Tiempo(s),Valor_ADC
0.0028,1655
0.0056,1649
0.0083,1635
0.0111,1638
0.0139,1648
0.0167,1644
0.0194,1643
0.0222,1637
0.0250,1631
0.0278,1626
0.0306,1624
0.0333,1629
0.0361,1634
0.0389,1634
0.0417,1632
0.0444,1629
0.0472,1631
0.0500,1636
0.0528,1643
0.0556,1641
0.0583,1651
0.0611,1643
0.0639,1639
0.0667,1627
0.0694,1628
0.0722,1633
0.0750,1642
0.0778,1645
0.0806,1645
0.0833,1646
0.0861,1648
0.0889,1647
0.0917,1652
0.0944,1655
0.0972,1664
0.1000,1674
0.1028,1664
0.1056,1673
0.1083,1675
0.1111,1690
0.1139,1691
0.1167,1700
0.1194,1706
0.1222,1708
0.1250,1704
0.1278,1701
0.1306,1702
0.1333,1699
0.1361,1700
0.1389,1705
0.1417,1701
0.1444,1702
0.1472,1699
0.1500,1706
0.1528,1703
0.1556,1702
0.1583,1705
0.1611,1693
0.1639,1691
0.1667,1689
0.1694,1691
0.1722,1695
0.1750,1698
0.1778,1695
0.1806,1688
0.1833,1694
0.1861,1684
0.1889,1682
0.1917,1679
0.1944,1683
0.1972,1680
0.2000,1685
0.2028,1684
0.2056,1679
0.2083,1679
0.2111,1680
0.2139,1681
0.2167,1686
0.2194,1680
0.2222,1685
0.2250,1691
0.2278,1689
0.2306,1694
0.2333,1701
0.2361,1695
0.2389,1700
0.2417,1693
0.2444,1692
0.2472,1690
0.2500,1696
0.2528,1698
0.2556,1703
0.2583,1720
0.2611,1737
0.2639,1749
0.2667,1781
0.2694,1792
0.2722,1809
0.2750,1826
0.2778,1838
0.2806,1838
0.2833,1833
0.2861,1840
0.2889,1857
0.2917,1874
0.2944,1883
0.2972,1883
0.3000,1887
0.3028,1894
0.3056,1914
0.3083,1921
0.3111,1923
0.3139,1902
0.3167,1883
0.3194,1845
0.3222,1824
0.3250,1808
0.3278,1778
0.3306,1748
0.3333,1717
0.3361,1683
0.3389,1677
0.3417,1666
0.3444,1660
0.3472,1655
0.3500,1654
0.3528,1650
0.3556,1642
0.3583,1633
0.3611,1622
0.3639,1611
0.3667,1612
0.3694,1618
0.3722,1633
0.3750,1639
0.3778,1628
0.3806,1629
0.3833,1630
0.3861,1632
0.3889,1629
0.3917,1637
0.3944,1598
0.3972,1571
0.4000,1588
0.4028,1588
0.4056,1605
0.4083,1624
0.4111,1694
0.4139,1874
0.4167,2169
0.4194,2429
0.4222,2577
0.4250,2655
0.4278,2708
0.4306,2836
0.4333,3050
0.4361,3165
0.4389,3013
0.4417,2640
0.4444,2209
0.4472,1844
0.4500,1563
0.4528,1416
0.4556,1433
0.4583,1563
0.4611,1733
0.4639,1845
0.4667,1842
0.4694,1764
0.4722,1625
0.4750,1504
0.4778,1440
0.4806,1426
0.4833,1452
0.4861,1501
0.4889,1544
0.4917,1567
0.4944,1572
0.4972,1548
0.5000,1522
0.5028,1524
0.5056,1547
0.5083,1567
0.5111,1579
0.5139,1576
0.5167,1561
0.5194,1559
0.5222,1564
0.5250,1581
0.5278,1616
0.5306,1641
0.5333,1651
0.5361,1638
0.5389,1627
0.5417,1630
0.5444,1640
0.5472,1648
0.5500,1644
0.5528,1630
0.5556,1631
0.5583,1641
0.5611,1635
0.5639,1655
0.5667,1693
0.5694,1716
0.5722,1735
0.5750,1725
0.5778,1740
0.5806,1754
0.5833,1775
0.5861,1801
0.5889,1822
0.5917,1814
0.5944,1776
0.5972,1764
0.6000,1757
0.6028,1774
0.6056,1782
0.6083,1788
0.6111,1781
0.6139,1778
0.6167,1787
0.6194,1794
0.6222,1820
0.6250,1841
0.6278,1874
0.6306,1880
0.6333,1880
0.6361,1872
0.6389,1864
0.6417,1946
0.6444,1952
0.6472,1952
0.6500,1943
0.6528,1937
0.6556,1910
0.6583,1897
0.6611,1870
0.6639,1855
0.6667,1847
0.6694,1825
0.6722,1819
0.6750,1794
0.6778,1767
0.6806,1751
0.6833,1749
0.6861,1748
0.6889,1749
0.6917,1752
0.6944,1744
0.6972,1730
0.7000,1723
0.7028,1721
0.7056,1724
0.7083,1717
0.7111,1724
0.7139,1724
0.7167,1728
0.7194,1716
0.7222,1742
0.7250,1752
0.7278,1763
0.7306,1768
0.7333,1771
0.7361,1756
0.7389,1739
0.7417,1710
0.7444,1690
0.7472,1701
0.7500,1728
0.7528,1783
0.7556,1798
0.7583,1765
0.7611,1739
0.7639,1733
0.7667,1715
0.7694,1721
0.7722,1726
0.7750,1711
0.7778,1705
0.7806,1701
0.7833,1723
0.7861,1754
0.7889,1760
0.7917,1759
0.7944,1752
0.7972,1764
0.8000,1771
0.8028,1769
0.8056,1759
0.8083,1753
0.8111,1754
0.8139,1754
0.8167,1744
0.8194,1738
0.8222,1739
0.8250,1749
0.8278,1765
0.8306,1759
0.8333,1755
0.8361,1740
0.8389,1724
0.8417,1724
0.8444,1760
0.8472,1806
0.8500,1832
0.8528,1803
0.8556,1764
0.8583,1718
0.8611,1696
0.8639,1696
0.8667,1713
0.8694,1701
0.8722,1703
0.8750,1710
0.8778,1726
0.8806,1733
0.8833,1731
0.8861,1735
0.8889,1716
0.8917,1701
0.8944,1696
0.8972,1689
0.9000,1687
0.9028,1671
0.9056,1672
0.9083,1663
0.9111,1690
0.9139,1730
0.9167,1748
0.9194,1727
0.9222,1702
0.9250,1674
0.9278,1671
0.9306,1679
0.9333,1675
0.9361,1656
0.9389,1615
0.9417,1596
0.9444,1620
0.9472,1656
0.9500,1680
0.9528,1697
0.9556,1697
0.9583,1689
0.9611,1703
0.9639,1715
0.9667,1739
0.9694,1754
0.9722,1768
0.9750,1778
0.9778,1779
0.9806,1784
0.9833,1799
0.9861,1812
0.9889,1820
0.9917,1831
0.9944,1839
0.9972,1857
1.0000,1875
1.0028,1900
1.0056,1890
1.0083,1858
1.0111,1818
1.0139,1776
1.0167,1749
1.0194,1754
1.0222,1765
1.0250,1777
1.0278,1783
1.0306,1780
1.0333,1771
1.0361,1759
1.0389,1736
1.0417,1723
1.0444,1696
1.0472,1676
1.0500,1643
1.0528,1617
1.0556,1590
1.0583,1561
1.0611,1529
1.0639,1498
1.0667,1477
1.0694,1453
1.0722,1438
1.0750,1437
1.0778,1440
1.0806,1450
1.0833,1460
1.0861,1460
1.0889,1443
1.0917,1436
1.0944,1421
1.0972,1410
1.1000,1426
1.1028,1538
1.1056,1683
1.1083,1834
1.1111,2039
1.1139,2254
1.1167,2448
1.1194,2615
1.1222,2728
1.1250,2831
1.1278,2934
1.1306,2994
1.1333,2898
1.1361,2642
1.1389,2315
1.1417,1982
1.1444,1702
1.1472,1516
1.1500,1442
1.1528,1449
1.1556,1491
1.1583,1532
1.1611,1559
1.1639,1565
1.1667,1562
1.1694,1535
1.1722,1533
1.1750,1517
1.1778,1520
1.1806,1523
1.1833,1530
1.1861,1522
1.1889,1505
1.1917,1483
1.1944,1480
1.1972,1481
1.2000,1493
1.2028,1500
1.2056,1509
1.2083,1504
1.2111,1502
1.2139,1497
1.2167,1503
1.2194,1509
1.2222,1527
1.2250,1534
1.2278,1555
1.2306,1548
1.2333,1552
1.2361,1561
1.2389,1576
1.2417,1582
1.2444,1581
1.2472,1587
1.2500,1582
1.2528,1582
1.2556,1577
1.2583,1580
1.2611,1589
1.2639,1593
1.2667,1594
1.2694,1595
1.2722,1594
1.2750,1601
1.2778,1606
1.2806,1613
1.2833,1626
1.2861,1629
1.2889,1633
1.2917,1627
1.2944,1622
1.2972,1633
1.3000,1643
1.3028,1656
1.3056,1669
1.3083,1679
1.3111,1683
1.3139,1696
1.3167,1706
1.3194,1720
1.3222,1740
1.3250,1753
1.3278,1757
1.3306,1759
1.3333,1764
1.3361,1841
1.3389,1849
1.3417,1827
1.3444,1826
1.3472,1805
1.3500,1783
1.3528,1777
1.3556,1755
1.3583,1742
1.3611,1729
1.3639,1715
1.3667,1703
1.3694,1676
1.3722,1652
1.3750,1636
1.3778,1634
1.3806,1630
1.3833,1624
1.3861,1616
1.3889,1605
1.3917,1593
1.3944,1590
1.3972,1584
1.4000,1586
1.4028,1592
1.4056,1593
1.4083,1594
1.4111,1588
1.4139,1591
1.4167,1594
1.4194,1598
1.4222,1596
1.4250,1599
1.4278,1591
1.4306,1591
1.4333,1589
1.4361,1585
1.4389,1587
1.4417,1597
1.4444,1610
1.4472,1614
1.4500,1612
1.4528,1606
1.4556,1603
1.4583,1608
1.4611,1616
1.4639,1620
1.4667,1619
1.4694,1626
1.4722,1628
1.4750,1625
1.4778,1628
1.4806,1633
1.4833,1636
1.4861,1640
1.4889,1641
1.4917,1640
1.4944,1646
1.4972,1653
1.5000,1667
1.5028,1668
1.5056,1669
1.5083,1662
1.5111,1665
1.5139,1668
1.5167,1676
1.5194,1682
1.5222,1685
1.5250,1689
1.5278,1678
1.5306,1678
1.5333,1679
1.5361,1683
1.5389,1671
1.5417,1682
1.5444,1674
1.5472,1680
1.5500,1680
1.5528,1676
1.5556,1668
1.5583,1671
1.5611,1667
1.5639,1663
1.5667,1655
1.5694,1658
1.5722,1655
1.5750,1654
1.5778,1652
1.5806,1655
1.5833,1669
1.5861,1669
1.5889,1668
1.5917,1662
1.5944,1661
1.5972,1666
1.6000,1676
1.6028,1681
1.6056,1681
1.6083,1688
1.6111,1685
1.6139,1678
1.6167,1685
1.6194,1677
1.6222,1682
1.6250,1680
1.6278,1682
1.6306,1682
1.6333,1680
1.6361,1669
1.6389,1675
1.6417,1682
1.6444,1689
1.6472,1688
1.6500,1687
1.6528,1677
1.6556,1684
1.6583,1691
1.6611,1705
1.6639,1717
1.6667,1729
1.6694,1751
1.6722,1772
1.6750,1784
1.6778,1797
1.6806,1811
1.6833,1835
1.6861,1844
1.6889,1848
1.6917,1833
1.6944,1834
1.6972,1847
1.7000,1867
1.7028,1876
1.7056,1881
1.7083,1883
1.7111,1903
1.7139,1912
1.7167,1936
1.7194,1931
1.7222,1910
1.7250,1885
1.7278,1851
1.7306,1822
1.7333,1797
1.7361,1769
1.7389,1739
1.7417,1721
1.7444,1706
1.7472,1699
1.7500,1698
1.7528,1684
1.7556,1681
1.7583,1666
1.7611,1664
1.7639,1656
1.7667,1649
1.7694,1647
1.7722,1643
1.7750,1645
1.7778,1653
1.7806,1651
1.7833,1651
1.7861,1651
1.7889,1656
1.7917,1652
1.7944,1651
1.7972,1654
1.8000,1630
1.8028,1609
1.8056,1584
1.8083,1543
1.8111,1504
1.8139,1521
1.8167,1609
1.8194,1743
1.8222,1920
1.8250,2137
1.8278,2340
1.8306,2522
1.8333,2683
1.8361,2806
1.8389,2909
1.8417,3026
1.8444,3077
1.8472,2971
1.8500,2707
1.8528,2396
1.8556,2068
1.8583,1783
1.8611,1599
1.8639,1532
1.8667,1531
1.8694,1563
1.8722,1597
1.8750,1615
1.8778,1624
1.8806,1618
1.8833,1598
1.8861,1577
1.8889,1553
1.8917,1552
1.8944,1556
1.8972,1576
1.9000,1599
1.9028,1615
1.9056,1622
1.9083,1631
1.9111,1639
1.9139,1656
1.9167,1665
1.9194,1657
1.9222,1662
1.9250,1653
1.9278,1647
1.9306,1648
1.9333,1656
1.9361,1659
1.9389,1661
1.9417,1662
1.9444,1658
1.9472,1662
1.9500,1671
1.9528,1676
1.9556,1684
1.9583,1674
1.9611,1675
1.9639,1673
1.9667,1674
1.9694,1687
1.9722,1690
1.9750,1700
1.9778,1690
1.9806,1698
1.9833,1703
1.9861,1698
1.9889,1695
1.9917,1704
1.9944,1707
1.9972,1715
2.0000,1717
2.0028,1710
2.0056,1705
2.0083,1709
2.0111,1722
2.0139,1741
2.0167,1752
2.0194,1753
2.0222,1758
2.0250,1755
2.0278,1756
2.0306,1769
2.0333,1789
2.0361,1808
2.0389,1814
2.0417,1812
2.0444,1806
2.0472,1809
2.0500,1867
2.0528,1863
2.0556,1858
2.0583,1837
2.0611,1822
2.0639,1800
2.0667,1780
2.0694,1769
2.0722,1754
2.0750,1737
2.0778,1729
2.0806,1717
2.0833,1699
2.0861,1692
2.0889,1690
2.0917,1669
2.0944,1664
2.0972,1661
2.1000,1646
2.1028,1627
2.1056,1611
2.1083,1602
2.1111,1610
2.1139,1615
2.1167,1618
2.1194,1629
2.1222,1619
2.1250,1621
2.1278,1612
2.1306,1610
2.1333,1605
2.1361,1611
2.1389,1603
2.1417,1615
2.1444,1614
2.1472,1610
2.1500,1613
2.1528,1609
2.1556,1613
2.1583,1621
2.1611,1618
2.1639,1614
2.1667,1615
2.1694,1617
2.1722,1627
2.1750,1626
2.1778,1628
2.1806,1630
2.1833,1627
2.1861,1632
2.1889,1631
2.1917,1640
2.1944,1635
2.1972,1637
2.2000,1636
2.2028,1634
2.2056,1638
2.2083,1637
2.2111,1637
2.2139,1649
2.2167,1658
2.2194,1660
2.2222,1669
2.2250,1659
2.2278,1668
2.2306,1658
2.2333,1671
2.2361,1678
2.2389,1672
2.2417,1661
2.2444,1662
2.2472,1661
2.2500,1655
2.2528,1665
2.2556,1658
2.2583,1662
2.2611,1664
2.2639,1662
2.2667,1660
2.2694,1664
2.2722,1655
2.2750,1651
2.2778,1659
2.2806,1654
2.2833,1658
2.2861,1658
2.2889,1652
2.2917,1655
2.2944,1644
2.2972,1648
2.3000,1651
2.3028,1652
2.3056,1648
2.3083,1645
2.3111,1640
2.3139,1636
2.3167,1638
2.3194,1642
2.3222,1644
2.3250,1645
2.3278,1642
2.3306,1640
2.3333,1637
2.3361,1629
2.3389,1627
2.3417,1639
2.3444,1647
2.3472,1659
2.3500,1655
2.3528,1667
2.3556,1674
2.3583,1672
2.3611,1674
2.3639,1666
2.3667,1667
2.3694,1670
2.3722,1669
2.3750,1690
2.3778,1688
2.3806,1694
2.3833,1702
2.3861,1697
2.3889,1700
2.3917,1705
2.3944,1717
2.3972,1731
2.4000,1742
2.4028,1751
2.4056,1757
2.4083,1787
2.4111,1791
2.4139,1802
2.4167,1810
2.4194,1812
2.4222,1834
2.4250,1843
2.4278,1856
2.4306,1856
2.4333,1865
2.4361,1880
2.4389,1903
2.4417,1901
2.4444,1895
2.4472,1867
2.4500,1823
2.4528,1801
2.4556,1771
2.4583,1748
2.4611,1727
2.4639,1716
2.4667,1697
2.4694,1691
2.4722,1683
2.4750,1682
2.4778,1671
2.4806,1661
2.4833,1647
2.4861,1643
2.4889,1623
2.4917,1633
2.4944,1628
2.4972,1621
2.5000,1622
2.5028,1616
2.5056,1611
2.5083,1616
2.5111,1622
2.5139,1622
2.5167,1623
2.5194,1624
2.5222,1611
2.5250,1583
2.5278,1558
2.5306,1520
2.5333,1492
2.5361,1508
2.5389,1590
2.5417,1716
2.5444,1850
2.5472,2046
2.5500,2242
2.5528,2424
2.5556,2582
2.5583,2727
2.5611,2834
2.5639,2962
2.5667,3028
2.5694,2947
2.5722,2714
2.5750,2398
2.5778,2069
2.5806,1789
2.5833,1585
2.5861,1488
2.5889,1477
2.5917,1493
2.5944,1545
2.5972,1574
2.6000,1595
2.6028,1592
2.6056,1577
2.6083,1567
2.6111,1573
2.6139,1573
2.6167,1574
2.6194,1574
2.6222,1568
2.6250,1554
2.6278,1550
2.6306,1555
2.6333,1567
2.6361,1574
2.6389,1582
2.6417,1577
2.6444,1572
2.6472,1564
2.6500,1558
2.6528,1571
2.6556,1573
2.6583,1573
2.6611,1578
2.6639,1578
2.6667,1565
2.6694,1574
2.6722,1583
2.6750,1591
2.6778,1603
2.6806,1602
2.6833,1609
2.6861,1592
2.6889,1593
2.6917,1607
2.6944,1621
2.6972,1644
2.7000,1642
2.7028,1638
2.7056,1634
2.7083,1629
2.7111,1631
2.7139,1648
2.7167,1671
2.7194,1675
2.7222,1682
2.7250,1690
2.7278,1693
2.7306,1699
2.7333,1703
2.7361,1712
2.7389,1718
2.7417,1716
2.7444,1723
2.7472,1725
2.7500,1730
2.7528,1741
2.7556,1751
2.7583,1762
2.7611,1775
2.7639,1774
2.7667,1778
2.7694,1777
2.7722,1900
2.7750,1901
2.7778,1895
2.7806,1882
2.7833,1874
2.7861,1859
2.7889,1839
2.7917,1820
2.7944,1814
2.7972,1801
2.8000,1802
2.8028,1793
2.8056,1776
2.8083,1748
2.8111,1741
2.8139,1736
2.8167,1727
2.8194,1723
2.8222,1722
2.8250,1707
2.8278,1703
2.8306,1693
2.8333,1698
2.8361,1696
2.8389,1691
2.8417,1697
2.8444,1699
2.8472,1691
2.8500,1685
2.8528,1678
2.8556,1677
2.8583,1682
2.8611,1681
2.8639,1681
2.8667,1681
2.8694,1682
2.8722,1677
2.8750,1681
2.8778,1692
2.8806,1702
2.8833,1704
2.8861,1706
2.8889,1702
2.8917,1692
2.8944,1696
2.8972,1695
2.9000,1698
2.9028,1697
2.9056,1705
2.9083,1708
2.9111,1714
2.9139,1720
2.9167,1722
2.9194,1726
2.9222,1730
2.9250,1724
2.9278,1718
2.9306,1711
2.9333,1726
2.9361,1714
2.9389,1716
2.9417,1729
2.9444,1734
2.9472,1724
2.9500,1733
2.9528,1726
2.9556,1737
2.9583,1740
2.9611,1743
2.9639,1739
2.9667,1731
2.9694,1717
2.9722,1707
2.9750,1714
2.9778,1714
2.9806,1717
2.9833,1730
2.9861,1725
2.9889,1721
2.9917,1727
2.9944,1726
2.9972,1722
3.0000,1725
3.0028,1713
3.0056,1714
3.0083,1714
3.0111,1715
3.0139,1705
3.0167,1712
3.0194,1721
3.0222,1727
3.0250,1720
3.0278,1714
3.0306,1707
3.0333,1709
3.0361,1711
3.0389,1708
3.0417,1698
3.0444,1696
3.0472,1692
3.0500,1686
3.0528,1690
3.0556,1693
3.0583,1694
3.0611,1700
3.0639,1704
3.0667,1695
3.0694,1699
3.0722,1705
3.0750,1705
3.0778,1708
3.0806,1698
3.0833,1696
3.0861,1701
3.0889,1707
3.0917,1701
3.0944,1712
3.0972,1712
3.1000,1710
3.1028,1719
3.1056,1721
3.1083,1731
3.1111,1740
3.1139,1753
3.1167,1778
3.1194,1798
3.1222,1803
3.1250,1826
3.1278,1846
3.1306,1856
3.1333,1848
3.1361,1858
3.1389,1871
3.1417,1886
3.1444,1891
3.1472,1893
3.1500,1905
3.1528,1915
3.1556,1943
3.1583,1937
3.1611,1940
3.1639,1921
3.1667,1881
3.1694,1853
3.1722,1826
3.1750,1807
3.1778,1785
3.1806,1758
3.1833,1724
3.1861,1708
3.1889,1686
3.1917,1676
3.1944,1670
3.1972,1671
3.2000,1667
3.2028,1671
3.2056,1654
3.2083,1650
3.2111,1643
3.2139,1634
3.2167,1638
3.2194,1632
3.2222,1628
3.2250,1631
3.2278,1637
3.2306,1634
3.2333,1636
3.2361,1634
3.2389,1632
3.2417,1614
3.2444,1594
3.2472,1560
3.2500,1517
3.2528,1486
3.2556,1519
3.2583,1609
3.2611,1759
3.2639,1923
3.2667,2127
3.2694,2339
3.2722,2534
3.2750,2698
3.2778,2823
3.2806,2918
3.2833,3029
3.2861,3080
3.2889,2955
3.2917,2685
3.2944,2338
3.2972,2004
3.3000,1727
3.3028,1557
3.3056,1486
3.3083,1493
3.3111,1531
3.3139,1582
3.3167,1616
3.3194,1619
3.3222,1619
3.3250,1605
3.3278,1587
3.3306,1586
3.3333,1579
3.3361,1582
3.3389,1579
3.3417,1573
3.3444,1567
3.3472,1563
3.3500,1560
3.3528,1576
3.3556,1584
3.3583,1583
3.3611,1588
3.3639,1594
3.3667,1583
3.3694,1587
3.3722,1589
3.3750,1595
3.3778,1603
3.3806,1610
3.3833,1599
3.3861,1592
3.3889,1593
3.3917,1605
3.3944,1610
3.3972,1623
3.4000,1626
3.4028,1630
3.4056,1623
3.4083,1626
3.4111,1636
3.4139,1632
3.4167,1654
3.4194,1658
3.4222,1650
3.4250,1652
3.4278,1649
3.4306,1659
3.4333,1674
3.4361,1683
3.4389,1680
3.4417,1691
3.4444,1689
3.4472,1680
3.4500,1682
3.4528,1685
3.4556,1685
3.4583,1708
3.4611,1712
3.4639,1712
3.4667,1712
3.4694,1712
3.4722,1721
3.4750,1745
3.4778,1759
3.4806,1765
3.4833,1775
3.4861,1779
3.4889,1786
3.4917,1855
3.4944,1862
3.4972,1863
3.5000,1852
3.5028,1830
3.5056,1821
3.5083,1801
3.5111,1775
3.5139,1754
3.5167,1747
3.5194,1745
3.5222,1735
3.5250,1711
3.5278,1693
3.5306,1677
3.5333,1661
3.5361,1657
3.5389,1654
3.5417,1650
3.5444,1631
3.5472,1621
3.5500,1617
3.5528,1605
3.5556,1608
3.5583,1609
3.5611,1616
3.5639,1613
3.5667,1614
3.5694,1607
3.5722,1601
3.5750,1598
3.5778,1613
3.5806,1598
3.5833,1605
3.5861,1599
3.5889,1602
3.5917,1602
3.5944,1604
3.5972,1608
3.6000,1603
3.6028,1602
3.6056,1596
3.6083,1589
3.6111,1589
3.6139,1600
3.6167,1602
3.6194,1602
3.6222,1605
3.6250,1604
3.6278,1609
3.6306,1616
3.6333,1617
3.6361,1627
3.6389,1629
3.6417,1637
3.6444,1632
3.6472,1626
3.6500,1636
3.6528,1639
3.6556,1642
3.6583,1652
3.6611,1643
3.6639,1645
3.6667,1647
3.6694,1644
3.6722,1640
3.6750,1648
3.6778,1641
3.6806,1643
3.6833,1645
3.6861,1645
3.6889,1642
3.6917,1641
3.6944,1643
3.6972,1644
3.7000,1643
3.7028,1643
3.7056,1638
3.7083,1626
3.7111,1624
3.7139,1628
3.7167,1628
3.7194,1633
3.7222,1635
3.7250,1630
3.7278,1630
3.7306,1626
3.7333,1617
3.7361,1617
3.7389,1618
3.7417,1622
3.7444,1623
3.7472,1611
3.7500,1609
3.7528,1613
3.7556,1617
3.7583,1619
3.7611,1620
3.7639,1615
3.7667,1611
3.7694,1609
3.7722,1609
3.7750,1611
3.7778,1614
3.7806,1611
3.7833,1619
3.7861,1620
3.7889,1610
3.7917,1620
3.7944,1629
3.7972,1630
3.8000,1632
3.8028,1625
3.8056,1623
3.8083,1621
3.8111,1618
3.8139,1618
3.8167,1623
3.8194,1633
3.8222,1637
3.8250,1628
3.8278,1634
3.8306,1631
3.8333,1639
3.8361,1644
3.8389,1648
3.8417,1649
3.8444,1638
3.8472,1639
3.8500,1634
3.8528,1647
3.8556,1646
3.8583,1645
3.8611,1653
3.8639,1665
3.8667,1663
3.8694,1675
3.8722,1694
3.8750,1715
3.8778,1732
3.8806,1745
3.8833,1760
3.8861,1770
3.8889,1782
3.8917,1796
3.8944,1796
3.8972,1806
3.9000,1810
3.9028,1827
3.9056,1831
3.9083,1837
3.9111,1841
3.9139,1859
3.9167,1880
3.9194,1892
3.9222,1883
3.9250,1862
3.9278,1832
3.9306,1804
3.9333,1780
3.9361,1760
3.9389,1743
3.9417,1710
3.9444,1679
3.9472,1653
3.9500,1640
3.9528,1632
3.9556,1620
3.9583,1621
3.9611,1623
3.9639,1615
3.9667,1611
3.9694,1609
3.9722,1591
3.9750,1592
3.9778,1592
3.9806,1590
3.9833,1587
3.9861,1595
3.9889,1589
3.9917,1606
3.9944,1609
3.9972,1616
4.0000,1612
4.0028,1587
4.0056,1560
4.0083,1523
4.0111,1489
4.0139,1451
4.0167,1464
4.0194,1550
4.0222,1698
4.0250,1850
4.0278,2048
4.0306,2264
4.0333,2456
4.0361,2622
4.0389,2742
4.0417,2825
4.0444,2938
4.0472,3018
4.0500,2968
4.0528,2732
4.0556,2409
4.0583,2071
4.0611,1777
4.0639,1580
4.0667,1493
4.0694,1500
4.0722,1535
4.0750,1582
4.0778,1609
4.0806,1625
4.0833,1616
4.0861,1589
4.0889,1565
4.0917,1551
4.0944,1548
4.0972,1556
4.1000,1565
4.1028,1570
4.1056,1551
4.1083,1545
4.1111,1537
4.1139,1543
4.1167,1547
4.1194,1559
4.1222,1562
4.1250,1559
4.1278,1560
4.1306,1557
4.1333,1555
4.1361,1572
4.1389,1579
4.1417,1585
4.1444,1581
4.1472,1577
4.1500,1577
4.1528,1578
4.1556,1589
4.1583,1594
4.1611,1603
4.1639,1613
4.1667,1609
4.1694,1600
4.1722,1604
4.1750,1615
4.1778,1629
4.1806,1641
4.1833,1644
4.1861,1641
4.1889,1640
4.1917,1635
4.1944,1651
4.1972,1658
4.2000,1677
4.2028,1677
4.2056,1679
4.2083,1667
4.2111,1668
4.2139,1671
4.2167,1676
4.2194,1692
4.2222,1697
4.2250,1709
4.2278,1703
4.2306,1709
4.2333,1717
4.2361,1730
4.2389,1739
4.2417,1749
4.2444,1757
4.2472,1763
4.2500,1768
4.2528,1870
4.2556,1871
4.2583,1870
4.2611,1853
4.2639,1836
4.2667,1813
4.2694,1790
4.2722,1773
4.2750,1761
4.2778,1751
4.2806,1742
4.2833,1728
4.2861,1713
4.2889,1698
4.2917,1686
4.2944,1671
4.2972,1671
4.3000,1661
4.3028,1652
4.3056,1640
4.3083,1633
4.3111,1634
4.3139,1629
4.3167,1630
4.3194,1640
4.3222,1637
4.3250,1634
4.3278,1629
4.3306,1625
4.3333,1615
4.3361,1622
4.3389,1626
4.3417,1625
4.3444,1631
4.3472,1619
4.3500,1622
4.3528,1622
4.3556,1630
4.3583,1631
4.3611,1631
4.3639,1630
4.3667,1632
4.3694,1619
4.3722,1623
4.3750,1625
4.3778,1632
4.3806,1648
4.3833,1647
4.3861,1643
4.3889,1645
4.3917,1644
4.3944,1646
4.3972,1645
4.4000,1654
4.4028,1654
4.4056,1661
4.4083,1659
4.4111,1665
4.4139,1655
4.4167,1659
4.4194,1662
4.4222,1664
4.4250,1671
4.4278,1668
4.4306,1667
4.4333,1672
4.4361,1677
4.4389,1679
4.4417,1687
4.4444,1683
4.4472,1676
4.4500,1676
4.4528,1660
4.4556,1674
4.4583,1672
4.4611,1678
4.4639,1674
4.4667,1670
4.4694,1666
4.4722,1656
4.4750,1662
4.4778,1665
4.4806,1662
4.4833,1657
4.4861,1664
4.4889,1653
4.4917,1650
4.4944,1647
4.4972,1646
4.5000,1647
4.5028,1640
4.5056,1644
4.5083,1646
4.5111,1637
4.5139,1633
4.5167,1638
4.5194,1643
4.5222,1640
4.5250,1640
4.5278,1633
4.5306,1631
4.5333,1629
4.5361,1640
4.5389,1638
4.5417,1641
4.5444,1641
4.5472,1638
4.5500,1633
4.5528,1641
4.5556,1640
4.5583,1640
4.5611,1646
4.5639,1647
4.5667,1645
4.5694,1650
4.5722,1646
4.5750,1643
4.5778,1651
4.5806,1651
4.5833,1651
4.5861,1642
4.5889,1637
4.5917,1639
4.5944,1640
4.5972,1644
4.6000,1648
4.6028,1647
4.6056,1647
4.6083,1647
4.6111,1644
4.6139,1647
4.6167,1643
4.6194,1640
4.6222,1647
4.6250,1639
4.6278,1646
4.6306,1647
4.6333,1653
4.6361,1658
4.6389,1660
4.6417,1660
4.6444,1663
4.6472,1666
4.6500,1660
4.6528,1663
4.6556,1662
4.6583,1672
4.6611,1675
4.6639,1684
4.6667,1689
4.6694,1700
4.6722,1706
4.6750,1732
4.6778,1754
4.6806,1763
4.6833,1783
4.6861,1802
4.6889,1814
4.6917,1815
4.6944,1816
4.6972,1834
4.7000,1838
4.7028,1845
4.7056,1851
4.7083,1856
4.7111,1880
4.7139,1906
4.7167,1917
4.7194,1917
4.7222,1896
4.7250,1873
4.7278,1828
4.7306,1797
4.7333,1776
4.7361,1746
4.7389,1731
4.7417,1704
4.7444,1688
4.7472,1664
4.7500,1662
4.7528,1663
4.7556,1655
4.7583,1658
4.7611,1651
4.7639,1646
4.7667,1628
4.7694,1623
4.7722,1622
4.7750,1623
4.7778,1617
4.7806,1625
4.7833,1635
4.7861,1636
4.7889,1636
4.7917,1635
4.7944,1633
4.7972,1625
4.8000,1621
4.8028,1602
4.8056,1573
4.8083,1541
4.8111,1499
4.8139,1501
4.8167,1574
4.8194,1704
4.8222,1865
4.8250,2061
4.8278,2274
4.8306,2470
4.8333,2631
4.8361,2759
4.8389,2845
4.8417,2960
4.8444,3063
4.8472,3036
4.8500,2802
4.8528,2475
4.8556,2138
4.8583,1845
4.8611,1626
4.8639,1533
4.8667,1521
4.8694,1569
4.8722,1617
4.8750,1652
4.8778,1663
4.8806,1651
4.8833,1623
4.8861,1600
4.8889,1585
4.8917,1579
4.8944,1588
4.8972,1598
4.9000,1602
4.9028,1597
4.9056,1591
4.9083,1584
4.9111,1578
4.9139,1591
4.9167,1597
4.9194,1606
4.9222,1603
4.9250,1594
4.9278,1592
4.9306,1603
4.9333,1605
4.9361,1607
4.9389,1611
4.9417,1610
4.9444,1611
4.9472,1614
4.9500,1608
4.9528,1625
4.9556,1635
4.9583,1639
4.9611,1647
4.9639,1640
4.9667,1635
4.9694,1636
4.9722,1632
4.9750,1650
4.9778,1656
4.9806,1662
4.9833,1661
4.9861,1659
4.9889,1661
4.9917,1674
4.9944,1685
4.9972,1697
5.0000,1694
5.0028,1703
5.0056,1701
5.0083,1701
5.0111,1704
5.0139,1715
5.0167,1722
5.0194,1727
5.0222,1724
5.0250,1719
5.0278,1714
5.0306,1720
5.0333,1734
5.0361,1749
5.0389,1767
5.0417,1772
5.0444,1775
5.0472,1779
5.0500,1874
5.0528,1873
5.0556,1870
5.0583,1871
5.0611,1870
5.0639,1846
5.0667,1815
5.0694,1794
5.0722,1792
5.0750,1769
5.0778,1758
5.0806,1743
5.0833,1720
5.0861,1715
5.0889,1697
5.0917,1685
5.0944,1688
5.0972,1691
5.1000,1681
5.1028,1674
5.1056,1652
5.1083,1644
5.1111,1646
5.1139,1648
5.1167,1653
5.1194,1642
5.1222,1642
5.1250,1637
5.1278,1638
5.1306,1622
5.1333,1634
5.1361,1634
5.1389,1637
5.1417,1637
5.1444,1630
5.1472,1626
5.1500,1631
5.1528,1637
5.1556,1646
5.1583,1649
5.1611,1649
5.1639,1646
5.1667,1645
5.1694,1637
5.1722,1639
5.1750,1651
5.1778,1664
5.1806,1669
5.1833,1671
5.1861,1669
5.1889,1668
5.1917,1660
5.1944,1674
5.1972,1674
5.2000,1677
5.2028,1672
5.2056,1680
5.2083,1686
5.2111,1691
5.2139,1697
5.2167,1701
5.2194,1707
5.2222,1709
5.2250,1699
5.2278,1695
5.2306,1684
5.2333,1688
5.2361,1696
5.2389,1689
5.2417,1695
5.2444,1696
5.2472,1696
5.2500,1691
5.2528,1695
5.2556,1692
5.2583,1690
5.2611,1685
5.2639,1687
5.2667,1668
5.2694,1658
5.2722,1657
5.2750,1655
5.2778,1650
5.2806,1647
5.2833,1642
5.2861,1645
5.2889,1636
5.2917,1644
5.2944,1649
5.2972,1646
5.3000,1642
5.3028,1643
5.3056,1633
5.3083,1644
5.3111,1638
5.3139,1645
5.3167,1640
5.3194,1649
5.3222,1632
5.3250,1631
5.3278,1635
5.3306,1633
5.3333,1639
5.3361,1636
5.3389,1639
5.3417,1634
5.3444,1641
5.3472,1631
5.3500,1624
5.3528,1624
5.3556,1633
5.3583,1627
5.3611,1639
5.3639,1634
5.3667,1649
5.3694,1632
5.3722,1629
5.3750,1636
5.3778,1638
5.3806,1640
5.3833,1645
5.3861,1646
5.3889,1646
5.3917,1651
5.3944,1642
5.3972,1642
5.4000,1635
5.4028,1646
5.4056,1642
5.4083,1640
5.4111,1652
5.4139,1656
5.4167,1660
5.4194,1666
5.4222,1656
5.4250,1659
5.4278,1652
5.4306,1660
5.4333,1653
5.4361,1656
5.4389,1663
5.4417,1661
5.4444,1659
5.4472,1669
5.4500,1670
5.4528,1671
5.4556,1668
5.4583,1668
5.4611,1674
5.4639,1670
5.4667,1677
5.4694,1676
5.4722,1674
5.4750,1677
5.4778,1677
5.4806,1673
5.4833,1672
5.4861,1672
5.4889,1680
5.4917,1693
5.4944,1722
5.4972,1744
5.5000,1770
5.5028,1783
5.5056,1799
5.5083,1812
5.5111,1813
5.5139,1803
5.5167,1811
5.5194,1818
5.5222,1831
5.5250,1835
5.5278,1855
5.5306,1876
5.5333,1892
5.5361,1923
5.5389,1915
5.5417,1905
5.5444,1861
5.5472,1830
5.5500,1796
5.5528,1769
5.5556,1751
5.5583,1733
5.5611,1703
5.5639,1685
5.5667,1668
5.5694,1664
5.5722,1656
5.5750,1652
5.5778,1650
5.5806,1641
5.5833,1637
5.5861,1635
5.5889,1624
5.5917,1632
5.5944,1629
5.5972,1625
5.6000,1628
5.6028,1628
5.6056,1627
5.6083,1632
5.6111,1627
5.6139,1627
5.6167,1628
5.6194,1619
5.6222,1594
5.6250,1560
5.6278,1514
5.6306,1489
5.6333,1521
5.6361,1617
5.6389,1756
5.6417,1924
5.6444,2117
5.6472,2336
5.6500,2525
5.6528,2671
5.6556,2796
5.6583,2905
5.6611,3029
5.6639,3089
5.6667,2984
5.6694,2735
5.6722,2390
5.6750,2062
5.6778,1777
5.6806,1592
5.6833,1527
5.6861,1531
5.6889,1566
5.6917,1606
5.6944,1629
5.6972,1639
5.7000,1630
5.7028,1613
5.7056,1589
5.7083,1589
5.7111,1594
5.7139,1592
5.7167,1604
5.7194,1596
5.7222,1599
5.7250,1588
5.7278,1578
5.7306,1583
5.7333,1591
5.7361,1595
5.7389,1601
5.7417,1596
5.7444,1594
5.7472,1604
5.7500,1600
5.7528,1618
5.7556,1620
5.7583,1626
5.7611,1616
5.7639,1612
5.7667,1611
5.7694,1617
5.7722,1631
5.7750,1643
5.7778,1648
5.7806,1641
5.7833,1639
5.7861,1630
5.7889,1639
5.7917,1647
5.7944,1657
5.7972,1663
5.8000,1656
5.8028,1649
5.8056,1642
5.8083,1648
5.8111,1656
5.8139,1667
5.8167,1686
5.8194,1693
5.8222,1690
5.8250,1695
5.8278,1703
5.8306,1716
5.8333,1723
5.8361,1738
5.8389,1735
5.8417,1735
5.8444,1730
5.8472,1731
5.8500,1734
5.8528,1743
5.8556,1757
5.8583,1766
5.8611,1767
5.8639,1772
5.8667,1775
5.8694,1877
5.8722,1884
5.8750,1874
5.8778,1871
5.8806,1858
5.8833,1840
5.8861,1822
5.8889,1804
5.8917,1787
5.8944,1776
5.8972,1755
5.9000,1742
5.9028,1730
5.9056,1723
5.9083,1696
5.9111,1704
5.9139,1685
5.9167,1691
5.9194,1673
5.9222,1654
5.9250,1644
5.9278,1640
5.9306,1636
5.9333,1647
5.9361,1653
5.9389,1649
5.9417,1647
5.9444,1635
5.9472,1630
5.9500,1629
5.9528,1634
5.9556,1639
5.9583,1643
5.9611,1650
5.9639,1638
5.9667,1636
5.9694,1636
5.9722,1634
5.9750,1643
5.9778,1651
5.9806,1654
5.9833,1652
5.9861,1655
5.9889,1657
5.9917,1648
5.9944,1657
5.9972,1659
6.0000,1671
6.0028,1660
6.0056,1653
6.0083,1663
6.0111,1656
6.0139,1669
6.0167,1671
6.0194,1673
6.0222,1687
6.0250,1685
6.0278,1695
6.0306,1696
6.0333,1707
6.0361,1703
6.0389,1703
6.0417,1697
6.0444,1697
6.0472,1695
6.0500,1697
6.0528,1701
6.0556,1704
6.0583,1710
6.0611,1703
6.0639,1711
6.0667,1712
6.0694,1707
6.0722,1700
6.0750,1708
6.0778,1708
6.0806,1704
6.0833,1703
6.0861,1692
6.0889,1692
6.0917,1680
6.0944,1690
6.0972,1676
6.1000,1673
6.1028,1682
6.1056,1676
6.1083,1680
6.1111,1672
6.1139,1686
6.1167,1683
6.1194,1693
6.1222,1703
6.1250,1683
6.1278,1690
6.1306,1682
6.1333,1677
6.1361,1683
6.1389,1686
6.1417,1683
6.1444,1682
6.1472,1681
6.1500,1689
6.1528,1692
6.1556,1681
6.1583,1683
6.1611,1674
6.1639,1661
6.1667,1658
6.1694,1660
6.1722,1673
6.1750,1675
6.1778,1680
6.1806,1684
6.1833,1681
6.1861,1684
6.1889,1680
6.1917,1680
6.1944,1692
6.1972,1682
6.2000,1680
6.2028,1682
6.2056,1676
6.2083,1679
6.2111,1688
6.2139,1684
6.2167,1689
6.2194,1684
6.2222,1688
6.2250,1688
6.2278,1687
6.2306,1692
6.2333,1698
6.2361,1698
6.2389,1695
6.2417,1700
6.2444,1698
6.2472,1692
6.2500,1691
6.2528,1695
6.2556,1693
6.2583,1710
6.2611,1701
6.2639,1702
6.2667,1704
6.2694,1703
6.2722,1719
6.2750,1714
6.2778,1720
6.2806,1715
6.2833,1718
6.2861,1717
6.2889,1732
6.2917,1742
6.2944,1747
6.2972,1764
6.3000,1785
6.3028,1782
6.3056,1791
6.3083,1803
6.3111,1822
6.3139,1827
6.3167,1832
6.3194,1847
6.3222,1862
6.3250,1863
6.3278,1875
6.3306,1885
6.3333,1902
6.3361,1924
6.3389,1939
6.3417,1947
6.3444,1926
6.3472,1892
6.3500,1873
6.3528,1836
6.3556,1797
6.3583,1763
6.3611,1739
6.3639,1727
6.3667,1730
6.3694,1719
6.3722,1710
6.3750,1693
6.3778,1694
6.3806,1679
6.3833,1670
6.3861,1657
6.3889,1642
6.3917,1648
6.3944,1652
6.3972,1646
6.4000,1652
6.4028,1649
6.4056,1649
6.4083,1652
6.4111,1665
6.4139,1667
6.4167,1662
6.4194,1656
6.4222,1630
6.4250,1590
6.4278,1556
6.4306,1535
6.4333,1557
6.4361,1634
6.4389,1767
6.4417,1911
6.4444,2078
6.4472,2273
6.4500,2463
6.4528,2616
6.4556,2762
6.4583,2884
6.4611,3006
6.4639,3110
6.4667,3048
6.4694,2809
6.4722,2505
6.4750,2159
6.4778,1873
6.4806,1663
6.4833,1545
6.4861,1520
6.4889,1530
6.4917,1577
6.4944,1615
6.4972,1643
6.5000,1645
6.5028,1638
6.5056,1624
6.5083,1620
6.5111,1616
6.5139,1618
6.5167,1630
6.5194,1622
6.5222,1614
6.5250,1608
6.5278,1602
6.5306,1602
6.5333,1607
6.5361,1619
6.5389,1626
6.5417,1614
6.5444,1626
6.5472,1621
6.5500,1626
6.5528,1641
6.5556,1650
6.5583,1647
6.5611,1641
6.5639,1634
6.5667,1640
6.5694,1651
6.5722,1669
6.5750,1685
6.5778,1691
6.5806,1690
6.5833,1678
6.5861,1667
6.5889,1675
6.5917,1681
6.5944,1693
6.5972,1701
6.6000,1710
6.6028,1711
6.6056,1709
6.6083,1704
6.6111,1714
6.6139,1718
6.6167,1718
6.6194,1705
6.6222,1708
6.6250,1718
6.6278,1723
6.6306,1730
6.6333,1750
6.6361,1745
6.6389,1754
6.6417,1759
6.6444,1759
6.6472,1777
6.6500,1790
6.6528,1799
6.6556,1805
6.6583,1809
6.6611,1813
6.6639,1808
6.6667,1821
6.6694,1902
6.6722,1914
6.6750,1906
6.6778,1907
6.6806,1894
6.6833,1870
6.6861,1845
6.6889,1834
6.6917,1817
6.6944,1808
6.6972,1797
6.7000,1784
6.7028,1765
6.7056,1742
6.7083,1723
6.7111,1710
6.7139,1705
6.7167,1700
6.7194,1684
6.7222,1682
6.7250,1672
6.7278,1672
6.7306,1663
6.7333,1662
6.7361,1659
6.7389,1661
6.7417,1660
6.7444,1657
6.7472,1650
6.7500,1649
6.7528,1646
6.7556,1644
6.7583,1650
6.7611,1650
6.7639,1645
6.7667,1651
6.7694,1654
6.7722,1663
6.7750,1674
6.7778,1672
6.7806,1674
6.7833,1672
6.7861,1668
6.7889,1661
6.7917,1671
6.7944,1671
6.7972,1681
6.8000,1685
6.8028,1687
6.8056,1676
6.8083,1675
6.8111,1679
6.8139,1686
6.8167,1698
6.8194,1699
6.8222,1701
6.8250,1699
6.8278,1694
6.8306,1701
6.8333,1708
6.8361,1712
6.8389,1708
6.8417,1705
6.8444,1701
6.8472,1696
6.8500,1701
6.8528,1694
6.8556,1702
6.8583,1701
6.8611,1696
6.8639,1703
6.8667,1689
6.8694,1693
6.8722,1691
6.8750,1690
6.8778,1694
6.8806,1695
6.8833,1681
6.8861,1669
6.8889,1674
6.8917,1671
6.8944,1675
6.8972,1674
6.9000,1670
6.9028,1670
6.9056,1662
6.9083,1657
6.9111,1661
6.9139,1664
6.9167,1660
6.9194,1658
6.9222,1659
6.9250,1657
6.9278,1652
6.9306,1654
6.9333,1647
6.9361,1657
6.9389,1665
6.9417,1659
6.9444,1661
6.9472,1656
6.9500,1648
6.9528,1656
6.9556,1650
6.9583,1658
6.9611,1656
6.9639,1662
6.9667,1662
6.9694,1662
6.9722,1655
6.9750,1657
6.9778,1663
6.9806,1670
6.9833,1673
6.9861,1665
6.9889,1666
6.9917,1662
6.9944,1668
6.9972,1669
7.0000,1672
7.0028,1675
7.0056,1671
7.0083,1669
7.0111,1668
7.0139,1660
7.0167,1660
7.0194,1672
7.0222,1664
7.0250,1660
7.0278,1662
7.0306,1668
7.0333,1668
7.0361,1675
7.0389,1679
7.0417,1674
7.0444,1679
7.0472,1669
7.0500,1662
7.0528,1663
7.0556,1664
7.0583,1671
7.0611,1675
7.0639,1678
7.0667,1681
7.0694,1676
7.0722,1678
7.0750,1686
7.0778,1687
7.0806,1689
7.0833,1696
7.0861,1703
7.0889,1720
7.0917,1732
7.0944,1750
7.0972,1771
7.1000,1790
7.1028,1803
7.1056,1803
7.1083,1804
7.1111,1803
7.1139,1818
7.1167,1820
7.1194,1834
7.1222,1843
7.1250,1859
7.1278,1877
7.1306,1896
7.1333,1893
7.1361,1873
7.1389,1844
7.1417,1814
7.1444,1778
7.1472,1760
7.1500,1732
7.1528,1715
7.1556,1702
7.1583,1690
7.1611,1681
7.1639,1669
7.1667,1653
7.1694,1638
7.1722,1634
7.1750,1626
7.1778,1618
7.1806,1609
7.1833,1608
7.1861,1597
7.1889,1603
7.1917,1602
7.1944,1609
7.1972,1610
7.2000,1630
7.2028,1624
7.2056,1634
7.2083,1634
7.2111,1610
7.2139,1587
7.2167,1554
7.2194,1518
7.2222,1480
7.2250,1469
7.2278,1531
7.2306,1648
7.2333,1808
7.2361,1999
7.2389,2211
7.2417,2422
7.2444,2597
7.2472,2740
7.2500,2847
7.2528,2941
7.2556,3035
7.2583,3012
7.2611,2827
7.2639,2501
7.2667,2153
7.2694,1836
7.2722,1593
7.2750,1472
7.2778,1456
7.2806,1497
7.2833,1565
7.2861,1601
7.2889,1629
7.2917,1624
7.2944,1608
7.2972,1584
7.3000,1572
7.3028,1566
7.3056,1569
7.3083,1576
7.3111,1580
7.3139,1573
7.3167,1562
7.3194,1556
7.3222,1560
7.3250,1566
7.3278,1575
7.3306,1574
7.3333,1575
7.3361,1571
7.3389,1568
7.3417,1575
7.3444,1585
7.3472,1590
7.3500,1599
7.3528,1602
7.3556,1595
7.3583,1592
7.3611,1591
7.3639,1600
7.3667,1610
7.3694,1622
7.3722,1631
7.3750,1626
7.3778,1625
7.3806,1630
7.3833,1634
7.3861,1646
7.3889,1653
7.3917,1659
7.3944,1662
7.3972,1658
7.4000,1644
7.4028,1649
7.4056,1661
7.4083,1668
7.4111,1676
7.4139,1669
7.4167,1675
7.4194,1683
7.4222,1684
7.4250,1702
7.4278,1717
7.4306,1728
7.4333,1724
7.4361,1727
7.4389,1732
7.4417,1733
7.4444,1743
7.4472,1757
7.4500,1764
7.4528,1773
7.4556,1776
7.4583,1790
7.4611,1792
7.4639,1857
7.4667,1863
7.4694,1849
7.4722,1841
7.4750,1820
7.4778,1803
7.4806,1783
7.4833,1764
7.4861,1750
7.4889,1742
7.4917,1732
7.4944,1707
7.4972,1685
7.5000,1661
7.5028,1649
7.5056,1636
7.5083,1634
7.5111,1631
7.5139,1619
7.5167,1609
7.5194,1597
7.5222,1594
7.5250,1582
7.5278,1593
7.5306,1589
7.5333,1586
7.5361,1585
7.5389,1579
7.5417,1573
7.5444,1573
7.5472,1577
7.5500,1578
7.5528,1576
7.5556,1587
7.5583,1581
7.5611,1579
7.5639,1577
7.5667,1574
7.5694,1573
7.5722,1576
7.5750,1570
7.5778,1565
7.5806,1560
7.5833,1570
7.5861,1575
7.5889,1580
7.5917,1582
7.5944,1582
7.5972,1587
7.6000,1590
7.6028,1589
7.6056,1597
7.6083,1601
7.6111,1602
7.6139,1607
7.6167,1599
7.6194,1600
7.6222,1610
7.6250,1620
7.6278,1623
7.6306,1637
7.6333,1639
7.6361,1641
7.6389,1626
7.6417,1624
7.6444,1628
7.6472,1632
7.6500,1623
7.6528,1639
7.6556,1646
7.6583,1636
7.6611,1642
7.6639,1647
7.6667,1647
7.6694,1642
7.6722,1649
7.6750,1640
7.6778,1642
7.6806,1630
7.6833,1628
7.6861,1633
7.6889,1637
7.6917,1630
7.6944,1635
7.6972,1626
7.7000,1624
7.7028,1625
7.7056,1628
7.7083,1625
7.7111,1627
7.7139,1624
7.7167,1616
7.7194,1619
7.7222,1620
7.7250,1629
7.7278,1623
7.7306,1636
7.7333,1635
7.7361,1629
7.7389,1625
7.7417,1624
7.7444,1619
7.7472,1621
7.7500,1624
7.7528,1620
7.7556,1629
7.7583,1628
7.7611,1617
7.7639,1622
7.7667,1619
7.7694,1622
7.7722,1619
7.7750,1630
7.7778,1619
7.7806,1622
7.7833,1620
7.7861,1628
7.7889,1632
7.7917,1638
7.7944,1622
7.7972,1619
7.8000,1617
7.8028,1620
7.8056,1624
7.8083,1624
7.8111,1626
7.8139,1631
7.8167,1627
7.8194,1621
7.8222,1627
7.8250,1624
7.8278,1631
7.8306,1632
7.8333,1636
7.8361,1624
7.8389,1633
7.8417,1635
7.8444,1640
7.8472,1647
7.8500,1644
7.8528,1647
7.8556,1632
7.8583,1639
7.8611,1636
7.8639,1643
7.8667,1647
7.8694,1644
7.8722,1661
7.8750,1661
7.8778,1671
7.8806,1683
7.8833,1698
7.8861,1717
7.8889,1729
7.8917,1754
7.8944,1779
7.8972,1799
7.9000,1805
7.9028,1801
7.9056,1795
7.9083,1795
7.9111,1807
7.9139,1815
7.9167,1827
7.9194,1844
7.9222,1860
7.9250,1880
7.9278,1892
7.9306,1891
7.9333,1863
7.9361,1826
7.9389,1785
7.9417,1764
7.9444,1738
7.9472,1720
7.9500,1699
7.9528,1674
7.9556,1653
7.9583,1657
7.9611,1650
7.9639,1639
7.9667,1624
7.9694,1615
7.9722,1612
7.9750,1605
7.9778,1608
7.9806,1607
7.9833,1598
7.9861,1599
7.9889,1595
7.9917,1595
7.9944,1602
7.9972,1603
8.0000,1611
8.0028,1615
8.0056,1610
8.0083,1600
8.0111,1578
8.0139,1539
8.0167,1506
8.0194,1465
8.0222,1456
8.0250,1514
8.0278,1654
8.0306,1816
8.0333,1995
8.0361,2217
8.0389,2422
8.0417,2594
8.0444,2731
8.0472,2825
8.0500,2926
8.0528,3031
8.0556,3006
8.0583,2803
8.0611,2474
8.0639,2139
8.0667,1837
8.0694,1608
8.0722,1498
8.0750,1493
8.0778,1528
8.0806,1575
8.0833,1611
8.0861,1626
8.0889,1624
8.0917,1605
8.0944,1586
8.0972,1572
8.1000,1569
8.1028,1578
8.1056,1580
8.1083,1571
8.1111,1569
8.1139,1556
8.1167,1548
8.1194,1549
8.1222,1564
8.1250,1582
8.1278,1590
8.1306,1594
8.1333,1583
8.1361,1574
8.1389,1575
8.1417,1590
8.1444,1594
8.1472,1606
8.1500,1607
8.1528,1596
8.1556,1596
8.1583,1596
8.1611,1604
8.1639,1624
8.1667,1634
8.1694,1631
8.1722,1630
8.1750,1632
8.1778,1638
8.1806,1636
8.1833,1647
8.1861,1647
8.1889,1656
8.1917,1653
8.1944,1648
8.1972,1667
8.2000,1671
8.2028,1686
8.2056,1693
8.2083,1693
8.2111,1701
8.2139,1686
8.2167,1691
8.2194,1705
8.2222,1710
8.2250,1732
8.2278,1735
8.2306,1737
8.2333,1747
8.2361,1738
8.2389,1734
8.2417,1755
8.2444,1771
8.2472,1781
8.2500,1792
8.2528,1791
8.2556,1796
8.2583,1805
8.2611,1897
8.2639,1905
8.2667,1887
8.2694,1877
8.2722,1867
8.2750,1852
8.2778,1824
8.2806,1801
8.2833,1780
8.2861,1765
8.2889,1746
8.2917,1734
8.2944,1712
8.2972,1695
8.3000,1692
8.3028,1677
8.3056,1664
8.3083,1661
8.3111,1659
8.3139,1647
8.3167,1642
8.3194,1644
8.3222,1643
8.3250,1636
8.3278,1628
8.3306,1632
8.3333,1633
8.3361,1629
8.3389,1621
8.3417,1621
8.3444,1622
8.3472,1630
8.3500,1625
8.3528,1622
8.3556,1620
8.3583,1619
8.3611,1619
8.3639,1624
8.3667,1629
8.3694,1629
8.3722,1635
8.3750,1637
8.3778,1638
8.3806,1636
8.3833,1645
8.3861,1639
8.3889,1645
8.3917,1653
8.3944,1650
8.3972,1646
8.4000,1653
8.4028,1654
8.4056,1670
8.4083,1680
8.4111,1680
8.4139,1677
8.4167,1671
8.4194,1673
8.4222,1681
8.4250,1679
8.4278,1695
8.4306,1705
8.4333,1706
8.4361,1703
8.4389,1694
8.4417,1699
8.4444,1701
8.4472,1706
8.4500,1706
8.4528,1711
8.4556,1701
8.4583,1708
8.4611,1712
8.4639,1712
8.4667,1710
8.4694,1712
8.4722,1708
8.4750,1707
8.4778,1698
8.4806,1690
8.4833,1698
8.4861,1695
8.4889,1698
8.4917,1693
8.4944,1696
8.4972,1691
8.5000,1690
8.5028,1676
8.5056,1682
8.5083,1679
8.5111,1683
8.5139,1672
8.5167,1672
8.5194,1671
8.5222,1678
8.5250,1688
8.5278,1689
8.5306,1692
8.5333,1704
8.5361,1703
8.5389,1706
8.5417,1702
8.5444,1700
8.5472,1693
8.5500,1690
8.5528,1691
8.5556,1694
8.5583,1692
8.5611,1692
8.5639,1697
8.5667,1682
8.5694,1667
8.5722,1661
8.5750,1646
8.5778,1652
8.5806,1664
8.5833,1672
8.5861,1681
8.5889,1691
8.5917,1688
8.5944,1681
8.5972,1669
8.6000,1659
8.6028,1662
8.6056,1659
8.6083,1658
8.6111,1667
8.6139,1670
8.6167,1670
8.6194,1671
8.6222,1676
8.6250,1675
8.6278,1683
8.6306,1673
8.6333,1662
8.6361,1657
8.6389,1660
8.6417,1667
8.6444,1673
8.6472,1680
8.6500,1682
8.6528,1678
8.6556,1673
8.6583,1672
8.6611,1667
8.6639,1666
8.6667,1665
8.6694,1670
8.6722,1674
8.6750,1692
8.6778,1716
8.6806,1734
8.6833,1747
8.6861,1753
8.6889,1766
8.6917,1779
8.6944,1792
8.6972,1788
8.7000,1787
8.7028,1795
8.7056,1809
8.7083,1824
8.7111,1825
8.7139,1839
8.7167,1856
8.7194,1880
8.7222,1899
8.7250,1895
8.7278,1869
8.7306,1833
8.7333,1808
8.7361,1768
8.7389,1741
8.7417,1704
8.7444,1690
8.7472,1656
8.7500,1642
8.7528,1643
8.7556,1627
8.7583,1631
8.7611,1625
8.7639,1620
8.7667,1616
8.7694,1610
8.7722,1613
8.7750,1612
8.7778,1609
8.7806,1606
8.7833,1600
8.7861,1601
8.7889,1590
8.7917,1601
8.7944,1597
8.7972,1595
8.8000,1602
8.8028,1598
8.8056,1581
8.8083,1552
8.8111,1521
8.8139,1479
8.8167,1475
8.8194,1532
8.8222,1656
8.8250,1796
8.8278,1986
8.8306,2181
8.8333,2362
8.8361,2529
8.8389,2658
8.8417,2770
8.8444,2884
8.8472,2990
8.8500,2948
8.8528,2740
8.8556,2436
8.8583,2101
8.8611,1798
8.8639,1575
8.8667,1454
8.8694,1426
8.8722,1449
8.8750,1491
8.8778,1535
8.8806,1562
8.8833,1581
8.8861,1573
8.8889,1568
8.8917,1559
8.8944,1560
8.8972,1558
8.9000,1562
8.9028,1552
8.9056,1541
8.9083,1524
8.9111,1509
8.9139,1520
8.9167,1538
8.9194,1548
8.9222,1553
8.9250,1558
8.9278,1561
8.9306,1562
8.9333,1572
8.9361,1584
8.9389,1578
8.9417,1573
8.9444,1564
8.9472,1556
8.9500,1556
8.9528,1563
8.9556,1569
8.9583,1579
8.9611,1593
8.9639,1598
8.9667,1598
8.9694,1602
8.9722,1600
8.9750,1605
8.9778,1612
8.9806,1620
8.9833,1612
8.9861,1613
8.9889,1615
8.9917,1616
8.9944,1619
8.9972,1638
9.0000,1646
9.0028,1651
9.0056,1652
9.0083,1650
9.0111,1647
9.0139,1654
9.0167,1653
9.0194,1660
9.0222,1670
9.0250,1671
9.0278,1676
9.0306,1687
9.0333,1700
9.0361,1718
9.0389,1732
9.0417,1735
9.0444,1730
9.0472,1731
9.0500,1728
9.0528,1745
9.0556,1837
9.0583,1834
9.0611,1834
9.0639,1811
9.0667,1787
9.0694,1766
9.0722,1749
9.0750,1724
9.0778,1718
9.0806,1704
9.0833,1693
9.0861,1683
9.0889,1667
9.0917,1651
9.0944,1634
9.0972,1627
9.1000,1622
9.1028,1622
9.1056,1601
9.1083,1601
9.1111,1573
9.1139,1569
9.1167,1565
9.1194,1569
9.1222,1578
9.1250,1579
9.1278,1582
9.1306,1579
9.1333,1586
9.1361,1565
9.1389,1576
9.1417,1559
9.1444,1561
9.1472,1565
9.1500,1567
9.1528,1570
9.1556,1567
9.1583,1574
9.1611,1583
9.1639,1579
9.1667,1570
9.1694,1572
9.1722,1559
9.1750,1553
9.1778,1556
9.1806,1561
9.1833,1563
9.1861,1577
9.1889,1578
9.1917,1591
9.1944,1593
9.1972,1609
9.2000,1607
9.2028,1606
9.2056,1610
9.2083,1611
9.2111,1617
9.2139,1625
9.2167,1623
9.2194,1624
9.2222,1627
9.2250,1624
9.2278,1630
9.2306,1639
9.2333,1644
9.2361,1641
9.2389,1647
9.2417,1640
9.2444,1645
9.2472,1635
9.2500,1635
9.2528,1635
9.2556,1625
9.2583,1624
9.2611,1624
9.2639,1625
9.2667,1624
9.2694,1621
9.2722,1623
9.2750,1613
9.2778,1622
9.2806,1619
9.2833,1617
9.2861,1620
9.2889,1622
9.2917,1619
9.2944,1615
9.2972,1610
9.3000,1615
9.3028,1605
9.3056,1608
9.3083,1600
9.3111,1590
9.3139,1593
9.3167,1595
9.3194,1605
9.3222,1593
9.3250,1592
9.3278,1594
9.3306,1592
9.3333,1596
9.3361,1595
9.3389,1593
9.3417,1587
9.3444,1590
9.3472,1594
9.3500,1591
9.3528,1590
9.3556,1585
9.3583,1581
9.3611,1591
9.3639,1595
9.3667,1599
9.3694,1600
9.3722,1590
9.3750,1581
9.3778,1574
9.3806,1574
9.3833,1576
9.3861,1580
9.3889,1578
9.3917,1580
9.3944,1594
9.3972,1593
9.4000,1599
9.4028,1599
9.4056,1595
9.4083,1595
9.4111,1597
9.4139,1593
9.4167,1590
9.4194,1599
9.4222,1598
9.4250,1601
9.4278,1614
9.4306,1616
9.4333,1625
9.4361,1643
9.4389,1656
9.4417,1670
9.4444,1681
9.4472,1689
9.4500,1701
9.4528,1717
9.4556,1734
9.4583,1746
9.4611,1751
9.4639,1759
9.4667,1772
9.4694,1782
9.4722,1782
9.4750,1795
9.4778,1822
9.4806,1839
9.4833,1848
9.4861,1843
9.4889,1816
9.4917,1783
9.4944,1750
9.4972,1719
9.5000,1696
9.5028,1660
9.5056,1639
9.5083,1608
9.5111,1597
9.5139,1575
9.5167,1573
9.5194,1571
9.5222,1577
9.5250,1570
9.5278,1567
9.5306,1558
9.5333,1554
9.5361,1549
9.5389,1541
9.5417,1543
9.5444,1534
9.5472,1538
9.5500,1536
9.5528,1536
9.5556,1532
9.5583,1538
9.5611,1539
9.5639,1520
9.5667,1508
9.5694,1468
9.5722,1446
9.5750,1411
9.5778,1411
9.5806,1472
9.5833,1596
9.5861,1742
9.5889,1928
9.5917,2135
9.5944,2325
9.5972,2496
9.6000,2646
9.6028,2764
9.6056,2888
9.6083,2988
9.6111,2959
9.6139,2750
9.6167,2446
9.6194,2114
9.6222,1801
9.6250,1570
9.6278,1441
9.6306,1394
9.6333,1400
9.6361,1439
9.6389,1472
9.6417,1501
9.6444,1511
9.6472,1506
9.6500,1500
9.6528,1494
9.6556,1494
9.6583,1496
9.6611,1500
9.6639,1500
9.6667,1486
9.6694,1480
9.6722,1482
9.6750,1474
9.6778,1468
9.6806,1476
9.6833,1476
9.6861,1483
9.6889,1480
9.6917,1484
9.6944,1497
9.6972,1511
9.7000,1525
9.7028,1525
9.7056,1512
9.7083,1499
9.7111,1496
9.7139,1501
9.7167,1511
9.7194,1519
9.7222,1533
9.7250,1532
9.7278,1524
9.7306,1519
9.7333,1515
9.7361,1507
9.7389,1516
9.7417,1530
9.7444,1531
9.7472,1527
9.7500,1541
9.7528,1535
9.7556,1547
9.7583,1547
9.7611,1551
9.7639,1566
9.7667,1568
9.7694,1574
9.7722,1569
9.7750,1577
9.7778,1586
9.7806,1598
9.7833,1616
9.7861,1622
9.7889,1629
9.7917,1638
9.7944,1652
9.7972,1662
9.8000,1666
9.8028,1671
9.8056,1670
9.8083,1674
9.8111,1676
9.8139,1690
9.8167,1710
9.8194,1717
9.8222,1705
9.8250,1712
9.8278,1699
9.8306,1675
9.8333,1627
9.8361,1587
9.8389,1557
9.8417,1539
9.8444,1520
9.8472,1511
9.8500,1502
9.8528,1497
9.8556,1480
9.8583,1459
9.8611,1432
9.8639,1382
9.8667,1347
9.8694,1317
9.8722,1339
9.8750,1388
9.8778,1416
9.8806,1427
9.8833,1385
9.8861,1324
9.8889,1281
9.8917,1298
9.8944,1335
9.8972,1349
9.9000,1362
9.9028,1361
9.9056,1369
9.9083,1366
9.9111,1395
9.9139,1441
9.9167,1486
9.9194,1515
9.9222,1510
9.9250,1495
9.9278,1477
9.9306,1467
9.9333,1452
9.9361,1430
9.9389,1432
9.9417,1453
9.9444,1476
9.9472,1510
9.9500,1538
9.9528,1549
9.9556,1553
9.9583,1553
9.9611,1555
9.9639,1547
9.9667,1529
9.9694,1507
9.9722,1494
9.9750,1504
9.9778,1543
9.9806,1576
9.9833,1606
9.9861,1625
9.9889,1625
9.9917,1624
9.9944,1622
9.9972,1620
10.0000,1615
10.0028,1629
10.0056,1661
10.0083,1698
10.0111,1720
10.0139,1713
10.0167,1691
10.0194,1674
10.0222,1632
10.0250,1613
10.0278,1629
10.0306,1649
10.0333,1690
10.0361,1730
10.0389,1747
10.0417,1756
10.0444,1726
10.0472,1713
10.0500,1703
10.0528,1714
10.0556,1720
10.0583,1727
10.0611,1732
10.0639,1736
10.0667,1735
10.0694,1735
10.0722,1728
10.0750,1717
10.0778,1689
10.0806,1670
10.0833,1657
10.0861,1660
10.0889,1701
10.0917,1740
10.0944,1764
10.0972,1767
10.1000,1738
10.1028,1725
10.1056,1735
10.1083,1739
10.1111,1736
10.1139,1728
10.1167,1729
10.1194,1749
10.1222,1762
10.1250,1780
10.1278,1792
10.1306,1780
10.1333,1756
10.1361,1739
10.1389,1719
10.1417,1715
10.1444,1716
10.1472,1744
10.1500,1748
10.1528,1728
10.1556,1731
10.1583,1748
10.1611,1767
10.1639,1761
10.1667,1745
10.1694,1724
10.1722,1709
10.1750,1700
10.1778,1684
10.1806,1669
10.1833,1673
10.1861,1705
10.1889,1723
10.1917,1737
10.1944,1743
10.1972,1740
10.2000,1739
10.2028,1742
10.2056,1737
10.2083,1736
10.2111,1729
10.2139,1732
10.2167,1741
10.2194,1749
10.2222,1764
10.2250,1772
10.2278,1777
10.2306,1774
10.2333,1778
10.2361,1791
10.2389,1828
10.2417,1866
10.2444,1879
10.2472,1873
10.2500,1863
10.2528,1874
10.2556,1892
10.2583,1902
10.2611,1903
10.2639,1899
10.2667,1903
10.2694,1911
10.2722,1928
10.2750,1921
10.2778,1895
10.2806,1875
10.2833,1843
10.2861,1813
10.2889,1805
10.2917,1784
10.2944,1778
10.2972,1759
10.3000,1735
10.3028,1720
10.3056,1713
10.3083,1718
10.3111,1714
10.3139,1700
10.3167,1678
10.3194,1665
10.3222,1672
10.3250,1694
10.3278,1701
10.3306,1688
10.3333,1664
10.3361,1652
10.3389,1650
10.3417,1644
10.3444,1648
10.3472,1645
10.3500,1643
10.3528,1630
10.3556,1631
10.3583,1630
10.3611,1622
10.3639,1591
10.3667,1557
10.3694,1590
10.3722,1683
10.3750,1822
10.3778,2001
10.3806,2200
10.3833,2380
10.3861,2538
10.3889,2698
10.3917,2837
10.3944,2975
10.3972,3092
10.4000,3090
10.4028,2898
10.4056,2569
10.4083,2210
10.4111,1893
10.4139,1664
10.4167,1551
10.4194,1538
10.4222,1575
10.4250,1624
10.4278,1656
10.4306,1685
10.4333,1680
10.4361,1652
10.4389,1606
10.4417,1577
10.4444,1572
10.4472,1599
10.4500,1637
10.4528,1676
10.4556,1686
10.4583,1679
10.4611,1666
10.4639,1650
10.4667,1648
10.4694,1627
10.4722,1618
10.4750,1596
10.4778,1560
10.4806,1559
10.4833,1587
10.4861,1635
10.4889,1680
10.4917,1693
10.4944,1685
10.4972,1667
10.5000,1650
10.5028,1645
10.5056,1639
10.5083,1648
10.5111,1651
10.5139,1663
10.5167,1659
10.5194,1652
10.5222,1642
10.5250,1643
10.5278,1649
10.5306,1658
10.5333,1658
10.5361,1666
10.5389,1676
10.5417,1691
10.5444,1701
10.5472,1708
10.5500,1688
10.5528,1671
10.5556,1655
10.5583,1633
10.5611,1639
10.5639,1651
10.5667,1664
10.5694,1665
10.5722,1659
10.5750,1667
10.5778,1670
10.5806,1682
10.5833,1689
10.5861,1709
10.5889,1724
10.5917,1734
10.5944,1741
10.5972,1745
10.6000,1755
10.6028,1754
10.6056,1831
10.6083,1839
10.6111,1817
10.6139,1809
10.6167,1798
10.6194,1783
10.6222,1757
10.6250,1740
10.6278,1727
10.6306,1704
10.6333,1687
10.6361,1662
10.6389,1639
10.6417,1618
10.6444,1617
10.6472,1627
10.6500,1624
10.6528,1634
10.6556,1627
10.6583,1626
10.6611,1623
10.6639,1630
10.6667,1627
10.6694,1627
10.6722,1640
10.6750,1634
10.6778,1627
10.6806,1622
10.6833,1617
10.6861,1625
10.6889,1625
10.6917,1630
10.6944,1631
10.6972,1630
10.7000,1615
10.7028,1601
10.7056,1606
10.7083,1599
10.7111,1597
10.7139,1601
10.7167,1595
10.7194,1601
10.7222,1600
10.7250,1586
10.7278,1572
10.7306,1564
10.7333,1566
10.7361,1558
10.7389,1571
10.7417,1580
10.7444,1591
10.7472,1605
10.7500,1591
10.7528,1561
10.7556,1532
10.7583,1516
10.7611,1478
10.7639,1458
10.7667,1440
10.7694,1426
10.7722,1409
10.7750,1396
10.7778,1384
10.7806,1376
10.7833,1376
10.7861,1372
10.7889,1371
10.7917,1360
10.7944,1392
10.7972,1429
10.8000,1450
10.8028,1443
10.8056,1413
10.8083,1397
10.8111,1384
10.8139,1386
10.8167,1410
10.8194,1446
10.8222,1478
10.8250,1502
10.8278,1528
10.8306,1544
10.8333,1564
10.8361,1596
10.8389,1590
10.8417,1588
10.8444,1600
10.8472,1616
10.8500,1627
10.8528,1650
10.8556,1679
10.8583,1704
10.8611,1722
10.8639,1730
10.8667,1745
10.8694,1752
10.8722,1770
10.8750,1781
10.8778,1789
10.8806,1787
10.8833,1783
10.8861,1768
10.8889,1768
10.8917,1741
10.8944,1735
10.8972,1746
10.9000,1775
10.9028,1807
10.9056,1800
10.9083,1771
10.9111,1738
10.9139,1720
10.9167,1717
10.9194,1711
10.9222,1729
10.9250,1745
10.9278,1757
10.9306,1767
10.9333,1776
10.9361,1774
10.9389,1760
10.9417,1757
10.9444,1754
10.9472,1754
10.9500,1748
10.9528,1735
10.9556,1730
10.9583,1734
10.9611,1736
10.9639,1743
10.9667,1749
10.9694,1758
10.9722,1748
10.9750,1737
10.9778,1732
10.9806,1737
10.9833,1740
10.9861,1748
10.9889,1755
10.9917,1764
10.9944,1763
10.9972,1751
11.0000,1748
11.0028,1750
11.0056,1767
11.0083,1784
11.0111,1804
11.0139,1827
11.0167,1830
11.0194,1834
11.0222,1844
11.0250,1859
11.0278,1872
11.0306,1882
11.0333,1891
11.0361,1904
11.0389,1906
11.0417,1926
11.0444,1917
11.0472,1933
11.0500,1941
11.0528,1944
11.0556,1957
11.0583,1983
11.0611,2006
11.0639,2017
11.0667,2009
11.0694,1988
11.0722,1949
11.0750,1928
11.0778,1905
11.0806,1886
11.0833,1868
11.0861,1848
11.0889,1831
11.0917,1824
11.0944,1830
11.0972,1834
11.1000,1813
11.1028,1797
11.1056,1785
11.1083,1766
11.1111,1762
11.1139,1769
11.1167,1771
11.1194,1767
11.1222,1778
11.1250,1769
11.1278,1764
11.1306,1759
11.1333,1754
11.1361,1740
11.1389,1732
11.1417,1730
11.1444,1717
11.1472,1713
11.1500,1690
11.1528,1657
11.1556,1614
11.1583,1597
11.1611,1649
11.1639,1765
11.1667,1920
11.1694,2097
11.1722,2316
11.1750,2518
11.1778,2680
11.1806,2817
11.1833,2914
11.1861,3018
11.1889,3125
11.1917,3137
11.1944,2999
11.1972,2718
11.2000,2374
11.2028,2060
11.2056,1784
11.2083,1633
11.2111,1579
11.2139,1593
11.2167,1629
11.2194,1673
11.2222,1695
11.2250,1701
11.2278,1684
11.2306,1665
11.2333,1635
11.2361,1637
11.2389,1619
11.2417,1628
11.2444,1641
11.2472,1635
11.2500,1621
11.2528,1617
11.2556,1616
11.2583,1606
11.2611,1612
11.2639,1611
11.2667,1611
11.2694,1605
11.2722,1598
11.2750,1599
11.2778,1603
11.2806,1601
11.2833,1603
11.2861,1610
11.2889,1603
11.2917,1601
11.2944,1590
11.2972,1610
11.3000,1618
11.3028,1624
11.3056,1633
11.3083,1638
11.3111,1634
11.3139,1629
11.3167,1622
11.3194,1627
11.3222,1643
11.3250,1655
11.3278,1659
11.3306,1658
11.3333,1654
11.3361,1662
11.3389,1671
11.3417,1674
11.3444,1683
11.3472,1693
11.3500,1681
11.3528,1679
11.3556,1682
11.3583,1693
11.3611,1722
11.3639,1728
11.3667,1743
11.3694,1743
11.3722,1740
11.3750,1743
11.3778,1753
11.3806,1768
11.3833,1780
11.3861,1790
11.3889,1800
11.3917,1807
11.3944,1822
11.3972,1898
11.4000,1912
11.4028,1907
11.4056,1900
11.4083,1877
11.4111,1859
11.4139,1840
11.4167,1822
11.4194,1789
11.4222,1776
11.4250,1771
11.4278,1760
11.4306,1746
11.4333,1729
11.4361,1713
11.4389,1705
11.4417,1704
11.4444,1694
11.4472,1679
11.4500,1670
11.4528,1663
11.4556,1659
11.4583,1665
11.4611,1660
11.4639,1670
11.4667,1668
11.4694,1665
11.4722,1655
11.4750,1640
11.4778,1638
11.4806,1638
11.4833,1641
11.4861,1644
11.4889,1642
11.4917,1637
11.4944,1645
11.4972,1650
11.5000,1652
11.5028,1659
11.5056,1653
11.5083,1660
11.5111,1642
11.5139,1632
11.5167,1628
11.5194,1629
11.5222,1638
11.5250,1653
11.5278,1654
11.5306,1656
11.5333,1652
11.5361,1656
11.5389,1660
11.5417,1657
11.5444,1658
11.5472,1662
11.5500,1673
11.5528,1669
11.5556,1673
11.5583,1672
11.5611,1679
11.5639,1676
11.5667,1676
11.5694,1684
11.5722,1682
11.5750,1688
11.5778,1693
11.5806,1701
11.5833,1714
11.5861,1725
11.5889,1721
11.5917,1717
11.5944,1701
11.5972,1691
11.6000,1692
11.6028,1700
11.6056,1712
11.6083,1710
11.6111,1730
11.6139,1729
11.6167,1718
11.6194,1718
11.6222,1710
11.6250,1705
11.6278,1704
11.6306,1698
11.6333,1696
11.6361,1696
11.6389,1710
11.6417,1709
11.6444,1705
11.6472,1707
11.6500,1700
11.6528,1702
11.6556,1700
11.6583,1695
11.6611,1701
11.6639,1702
11.6667,1703
11.6694,1690
11.6722,1685
11.6750,1687
11.6778,1686
11.6806,1684
11.6833,1688
11.6861,1687
11.6889,1691
11.6917,1698
11.6944,1705
11.6972,1705
11.7000,1699
11.7028,1696
11.7056,1690
11.7083,1678
11.7111,1672
11.7139,1662
11.7167,1663
11.7194,1675
11.7222,1677
11.7250,1692
11.7278,1697
11.7306,1707
11.7333,1721
11.7361,1708
11.7389,1704
11.7417,1694
11.7444,1688
11.7472,1681
11.7500,1676
11.7528,1681
11.7556,1673
11.7583,1676
11.7611,1687
11.7639,1688
11.7667,1681
11.7694,1697
11.7722,1701
11.7750,1691
11.7778,1689
11.7806,1677
11.7833,1671
11.7861,1666
11.7889,1663
11.7917,1678
11.7944,1688
11.7972,1697
11.8000,1708
11.8028,1728
11.8056,1741
11.8083,1749
11.8111,1767
11.8139,1777
11.8167,1789
11.8194,1802
11.8222,1822
11.8250,1838
11.8278,1843
11.8306,1853
11.8333,1858
11.8361,1861
11.8389,1853
11.8417,1874
11.8444,1886
11.8472,1912
11.8500,1922
11.8528,1923
11.8556,1900
11.8583,1868
11.8611,1840
11.8639,1810
11.8667,1795
11.8694,1767
11.8722,1748
11.8750,1722
11.8778,1711
11.8806,1691
11.8833,1683
11.8861,1682
11.8889,1691
11.8917,1692
11.8944,1681
11.8972,1681
11.9000,1678
11.9028,1674
11.9056,1658
11.9083,1657
11.9111,1650
11.9139,1644
11.9167,1651
11.9194,1654
11.9222,1658
11.9250,1655
11.9278,1661
11.9306,1654
11.9333,1627
11.9361,1597
11.9389,1584
11.9417,1550
11.9444,1525
11.9472,1561
11.9500,1652
11.9528,1783
11.9556,1939
11.9583,2126
11.9611,2323
11.9639,2517
11.9667,2682
11.9694,2814
11.9722,2928
11.9750,3046
11.9778,3129
11.9806,3072
11.9833,2825
11.9861,2479
11.9889,2122
11.9917,1831
11.9944,1614
11.9972,1507
12.0000,1503
12.0028,1541
12.0056,1591
12.0083,1642
12.0111,1644
12.0139,1645
12.0167,1629
12.0194,1607
12.0222,1600
12.0250,1592
12.0278,1597
12.0306,1607
12.0333,1603
12.0361,1607
12.0389,1600
12.0417,1601
12.0444,1620
12.0472,1626
12.0500,1632
12.0528,1638
12.0556,1631
12.0583,1621
12.0611,1609
12.0639,1617
12.0667,1624
12.0694,1641
12.0722,1644
12.0750,1644
12.0778,1635
12.0806,1626
12.0833,1625
12.0861,1639
12.0889,1654
12.0917,1655
12.0944,1653
12.0972,1650
12.1000,1644
12.1028,1646
12.1056,1666
12.1083,1675
12.1111,1692
12.1139,1701
12.1167,1692
12.1194,1695
12.1222,1697
12.1250,1699
12.1278,1702
12.1306,1718
12.1333,1720
12.1361,1724
12.1389,1724
12.1417,1732
12.1444,1742
12.1472,1754
12.1500,1750
12.1528,1765
12.1556,1754
12.1583,1763
12.1611,1779
12.1639,1793
12.1667,1799
12.1694,1806
12.1722,1814
12.1750,1819
12.1778,1818
12.1806,1835
12.1833,1958
12.1861,1957
12.1889,1930
12.1917,1915
12.1944,1888
12.1972,1869
12.2000,1846
12.2028,1835
12.2056,1807
12.2083,1804
12.2111,1801
12.2139,1785
12.2167,1770
12.2194,1750
12.2222,1725
12.2250,1708
12.2278,1706
12.2306,1698
12.2333,1692
12.2361,1683
12.2389,1665
12.2417,1661
12.2444,1661
12.2472,1668
12.2500,1665
12.2528,1666
12.2556,1659
12.2583,1665
12.2611,1660
12.2639,1658
12.2667,1663
12.2694,1665
12.2722,1660
12.2750,1667
12.2778,1649
12.2806,1646
12.2833,1650
12.2861,1656
12.2889,1661
12.2917,1666
12.2944,1662
12.2972,1658
12.3000,1648
12.3028,1653
12.3056,1658
12.3083,1662
12.3111,1672
12.3139,1679
12.3167,1675
12.3194,1670
12.3222,1672
12.3250,1673
12.3278,1670
12.3306,1679
12.3333,1679
12.3361,1684
12.3389,1682
12.3417,1693
12.3444,1699
12.3472,1701
12.3500,1709
12.3528,1715
12.3556,1709
12.3583,1726
12.3611,1713
12.3639,1709
12.3667,1712
12.3694,1730
12.3722,1726
12.3750,1726
12.3778,1719
12.3806,1714
12.3833,1721
12.3861,1724
12.3889,1728
12.3917,1733
12.3944,1733
12.3972,1727
12.4000,1726
12.4028,1731
12.4056,1727
12.4083,1728
12.4111,1730
12.4139,1734
12.4167,1728
12.4194,1726
12.4222,1722
12.4250,1721
12.4278,1720
12.4306,1720
12.4333,1711
12.4361,1719
12.4389,1704
12.4417,1703
12.4444,1701
12.4472,1702
12.4500,1702
12.4528,1703
12.4556,1696
12.4583,1706
12.4611,1697
12.4639,1690
12.4667,1699
12.4694,1695
12.4722,1702
12.4750,1697
12.4778,1696
12.4806,1700
12.4833,1700
12.4861,1694
12.4889,1701
12.4917,1703
12.4944,1712
12.4972,1702
12.5000,1712
12.5028,1705
12.5056,1708
12.5083,1708
12.5111,1719
12.5139,1728
12.5167,1722
12.5194,1724
12.5222,1724
12.5250,1719
12.5278,1723
12.5306,1731
12.5333,1729
12.5361,1728
12.5389,1729
12.5417,1723
12.5444,1720
12.5472,1725
12.5500,1727
12.5528,1739
12.5556,1736
12.5583,1734
12.5611,1735
12.5639,1733
12.5667,1736
12.5694,1737
12.5722,1734
12.5750,1738
12.5778,1742
12.5806,1744
12.5833,1740
12.5861,1731
12.5889,1731
12.5917,1732
12.5944,1728
12.5972,1725
12.6000,1720
12.6028,1724
12.6056,1724
12.6083,1729
12.6111,1723
12.6139,1735
12.6167,1737
12.6194,1742
12.6222,1770
12.6250,1782
12.6278,1801
12.6306,1819
12.6333,1840
12.6361,1862
12.6389,1872
12.6417,1871
12.6444,1873
12.6472,1882
12.6500,1885
12.6528,1881
12.6556,1881
12.6583,1894
12.6611,1910
12.6639,1929
12.6667,1949
12.6694,1942
12.6722,1929
12.6750,1894
12.6778,1865
12.6806,1822
12.6833,1798
12.6861,1773
12.6889,1754
12.6917,1730
12.6944,1711
12.6972,1692
12.7000,1690
12.7028,1677
12.7056,1664
12.7083,1654
12.7111,1654
12.7139,1646
12.7167,1639
12.7194,1640
12.7222,1632
12.7250,1625
12.7278,1631
12.7306,1624
12.7333,1631
12.7361,1639
12.7389,1635
12.7417,1640
12.7444,1640
12.7472,1629
12.7500,1612
12.7528,1589
12.7556,1551
12.7583,1518
12.7611,1486
12.7639,1496
12.7667,1581
12.7694,1738
12.7722,1902
12.7750,2111
12.7778,2339
12.7806,2543
12.7833,2696
12.7861,2806
12.7889,2883
12.7917,2971
12.7944,3051
12.7972,3000
12.8000,2751
12.8028,2389
12.8056,2030
12.8083,1729
12.8111,1524
12.8139,1448
12.8167,1466
12.8194,1515
12.8222,1584
12.8250,1621
12.8278,1625
12.8306,1619
12.8333,1599
12.8361,1574
12.8389,1558
12.8417,1550
12.8444,1558
12.8472,1567
12.8500,1569
12.8528,1560
12.8556,1555
12.8583,1544
12.8611,1554
12.8639,1558
12.8667,1572
12.8694,1583
12.8722,1571
12.8750,1575
12.8778,1567
12.8806,1577
12.8833,1593
12.8861,1597
12.8889,1602
12.8917,1600
12.8944,1585
12.8972,1584
12.9000,1584
12.9028,1602
12.9056,1610
12.9083,1621
12.9111,1622
12.9139,1613
12.9167,1614
12.9194,1624
12.9222,1629
12.9250,1641
12.9278,1652
12.9306,1656
12.9333,1644
12.9361,1643
12.9389,1644
12.9417,1654
12.9444,1673
12.9472,1685
12.9500,1692
12.9528,1685
12.9556,1672
12.9583,1668
12.9611,1682
12.9639,1696
12.9667,1701
12.9694,1704
12.9722,1706
12.9750,1699
12.9778,1713
12.9806,1729
12.9833,1736
12.9861,1756
12.9889,1774
12.9917,1781
12.9944,1772
12.9972,1771
13.0000,1907
13.0028,1907
13.0056,1893
13.0083,1880
13.0111,1860
13.0139,1851
13.0167,1820
13.0194,1791
13.0222,1771
13.0250,1764
13.0278,1751
13.0306,1730
13.0333,1715
13.0361,1695
13.0389,1677
13.0417,1652
13.0444,1643
13.0472,1653
13.0500,1632
13.0528,1622
13.0556,1617
13.0583,1609
13.0611,1608
13.0639,1606
13.0667,1611
13.0694,1620
13.0722,1616
13.0750,1604
13.0778,1603
13.0806,1595
13.0833,1588
13.0861,1603
13.0889,1604
13.0917,1614
13.0944,1610
13.0972,1619
13.1000,1610
13.1028,1611
13.1056,1625
13.1083,1624
13.1111,1628
13.1139,1624
13.1167,1627
13.1194,1626
13.1222,1627
13.1250,1628
13.1278,1632
13.1306,1636
13.1333,1638
13.1361,1631
13.1389,1634
13.1417,1634
13.1444,1642
13.1472,1646
13.1500,1657
13.1528,1656
13.1556,1653
13.1583,1653
13.1611,1653
13.1639,1656
13.1667,1658
13.1694,1667
13.1722,1665
13.1750,1666
13.1778,1663
13.1806,1658
13.1833,1653
13.1861,1660
13.1889,1668
13.1917,1666
13.1944,1663
13.1972,1666
13.2000,1666
13.2028,1666
13.2056,1676
13.2083,1682
13.2111,1682
13.2139,1676
13.2167,1664
13.2194,1658
13.2222,1670
13.2250,1669
13.2278,1663
13.2306,1675
13.2333,1667
13.2361,1658
13.2389,1664
13.2417,1665
13.2444,1654
13.2472,1654
13.2500,1660
13.2528,1658
13.2556,1661
13.2583,1661
13.2611,1661
13.2639,1667
13.2667,1665
13.2694,1665
13.2722,1664
13.2750,1654
13.2778,1647
13.2806,1655
13.2833,1652
13.2861,1655
13.2889,1657
13.2917,1658
13.2944,1645
13.2972,1640
13.3000,1644
13.3028,1649
13.3056,1654
13.3083,1665
13.3111,1663
13.3139,1665
13.3167,1658
13.3194,1648
13.3222,1649
13.3250,1651
13.3278,1657
13.3306,1652
13.3333,1655
13.3361,1652
13.3389,1640
13.3417,1639
13.3444,1635
13.3472,1641
13.3500,1645
13.3528,1651
13.3556,1658
13.3583,1646
13.3611,1653
13.3639,1655
13.3667,1657
13.3694,1658
13.3722,1655
13.3750,1652
13.3778,1653
13.3806,1645
13.3833,1647
13.3861,1647
13.3889,1651
13.3917,1648
13.3944,1640
13.3972,1649
13.4000,1642
13.4028,1650
13.4056,1646
13.4083,1640
13.4111,1629
13.4139,1625
13.4167,1640
13.4194,1640
13.4222,1644
13.4250,1664
13.4278,1681
13.4306,1680
13.4333,1672
13.4361,1661
13.4389,1648
13.4417,1652
13.4444,1660
13.4472,1686
13.4500,1693
13.4528,1710
13.4556,1717
13.4583,1726
13.4611,1727
13.4639,1751
13.4667,1767
13.4694,1771
13.4722,1774
13.4750,1767
13.4778,1763
13.4806,1768
13.4833,1765
13.4861,1770
13.4889,1784
13.4917,1809
13.4944,1832
13.4972,1849
13.5000,1842
13.5028,1825
13.5056,1801
13.5083,1769
13.5111,1745
13.5139,1720
13.5167,1703
13.5194,1676
13.5222,1669
13.5250,1649
13.5278,1653
13.5306,1657
13.5333,1655
13.5361,1650
13.5389,1651
13.5417,1632
13.5444,1627
13.5472,1641
13.5500,1643
13.5528,1633
13.5556,1633
13.5583,1633
13.5611,1633
13.5639,1641
13.5667,1634
13.5694,1625
13.5722,1632
13.5750,1625
13.5778,1610
13.5806,1589
13.5833,1577
13.5861,1543
13.5889,1490
13.5917,1469
13.5944,1512
13.5972,1636
13.6000,1793
13.6028,1942
13.6056,2134
13.6083,2344
13.6111,2534
13.6139,2690
13.6167,2804
13.6194,2907
13.6222,3030
13.6250,3071
13.6278,2949
13.6306,2668
13.6333,2334
13.6361,1992
13.6389,1705
13.6417,1536
13.6444,1484
13.6472,1514
13.6500,1574
13.6528,1618
13.6556,1643
13.6583,1624
13.6611,1597
13.6639,1565
13.6667,1527
13.6694,1513
13.6722,1511
13.6750,1516
13.6778,1532
13.6806,1540
13.6833,1550
13.6861,1547
13.6889,1547
13.6917,1555
13.6944,1577
13.6972,1590
13.7000,1593
13.7028,1603
13.7056,1594
13.7083,1593
13.7111,1608
13.7139,1637
13.7167,1656
13.7194,1654
13.7222,1651
13.7250,1643
13.7278,1646
13.7306,1668
13.7333,1681
13.7361,1683
13.7389,1686
13.7417,1683
13.7444,1682
13.7472,1673
13.7500,1692
13.7528,1713
13.7556,1741
13.7583,1772
13.7611,1765
13.7639,1748
13.7667,1724
13.7694,1737
13.7722,1754
13.7750,1782
13.7778,1778
13.7806,1792
13.7833,1806
13.7861,1818
13.7889,1815
13.7917,1801
13.7944,1797
13.7972,1800
13.8000,1814
13.8028,1810
13.8056,1812
13.8083,1816
13.8111,1821
13.8139,1817
13.8167,1817
13.8194,1818
13.8222,1827
13.8250,1830
13.8278,1846
13.8306,1981
13.8333,1983
13.8361,1972
13.8389,1974
13.8417,1954
13.8444,1940
13.8472,1924
13.8500,1897
13.8528,1888
13.8556,1866
13.8583,1846
13.8611,1842
13.8639,1825
13.8667,1799
13.8694,1787
13.8722,1746
13.8750,1732
13.8778,1716
13.8806,1678
13.8833,1632
13.8861,1613
13.8889,1629
13.8917,1636
13.8944,1641
13.8972,1627
13.9000,1645
13.9028,1660
13.9056,1667
13.9083,1638
13.9111,1611
13.9139,1605
13.9167,1627
13.9194,1642
13.9222,1652
13.9250,1648
13.9278,1651
13.9306,1647
13.9333,1633
13.9361,1629
13.9389,1614
13.9417,1609
13.9444,1605
13.9472,1615
13.9500,1630
13.9528,1630
13.9556,1621
13.9583,1616
13.9611,1605
13.9639,1605
13.9667,1590
13.9694,1579
13.9722,1576
13.9750,1572
13.9778,1574
13.9806,1584
13.9833,1589
13.9861,1593
13.9889,1603
13.9917,1602
13.9944,1615
13.9972,1619
14.0000,1620
14.0028,1621
14.0056,1630
14.0083,1634
14.0111,1641
14.0139,1652
14.0167,1661
14.0194,1660
14.0222,1667
14.0250,1667
14.0278,1667
14.0306,1672
14.0333,1666
14.0361,1671
14.0389,1673
14.0417,1676
14.0444,1657
14.0472,1660
14.0500,1659
14.0528,1667
14.0556,1673
14.0583,1685
14.0611,1678
14.0639,1674
14.0667,1671
14.0694,1675
14.0722,1675
14.0750,1674
14.0778,1678
14.0806,1672
14.0833,1663
14.0861,1661
14.0889,1662
14.0917,1666
14.0944,1662
14.0972,1663
14.1000,1660
14.1028,1662
14.1056,1657
14.1083,1643
14.1111,1633
14.1139,1619
14.1167,1619
14.1194,1618
14.1222,1624
14.1250,1616
14.1278,1607
14.1306,1605
14.1333,1594
14.1361,1582
14.1389,1565
14.1417,1562
14.1444,1567
14.1472,1576
14.1500,1570
14.1528,1579
14.1556,1592
14.1583,1598
14.1611,1569
14.1639,1561
14.1667,1559
14.1694,1593
14.1722,1646
14.1750,1675
14.1778,1679
14.1806,1658
14.1833,1647
14.1861,1621
14.1889,1610
14.1917,1583
14.1944,1566
14.1972,1570
14.2000,1572
14.2028,1581
14.2056,1573
14.2083,1558
14.2111,1542
14.2139,1527
14.2167,1513
14.2194,1514
14.2222,1510
14.2250,1505
14.2278,1504
14.2306,1506
14.2333,1512
14.2361,1517
14.2389,1533
14.2417,1542
14.2444,1554
14.2472,1555
14.2500,1559
14.2528,1562
14.2556,1568
14.2583,1578
14.2611,1587
14.2639,1599
14.2667,1607
14.2694,1622
14.2722,1642
14.2750,1660
14.2778,1673
14.2806,1689
14.2833,1704
14.2861,1715
14.2889,1721
14.2917,1719
14.2944,1726
14.2972,1738
14.3000,1739
14.3028,1744
14.3056,1745
14.3083,1760
14.3111,1780
14.3139,1808
14.3167,1810
14.3194,1820
14.3222,1803
14.3250,1763
14.3278,1733
14.3306,1706
14.3333,1693
14.3361,1672
14.3389,1647
14.3417,1626
14.3444,1611
14.3472,1607
14.3500,1593
14.3528,1580
14.3556,1567
14.3583,1567
14.3611,1556
14.3639,1546
14.3667,1539
14.3694,1520
14.3722,1517
14.3750,1512
14.3778,1514
14.3806,1512
14.3833,1523
14.3861,1522
14.3889,1516
14.3917,1517
14.3944,1505
14.3972,1499
14.4000,1477
14.4028,1451
14.4056,1419
14.4083,1385
14.4111,1359
14.4139,1408
14.4167,1522
14.4194,1657
14.4222,1842
14.4250,2053
14.4278,2253
14.4306,2433
14.4333,2568
14.4361,2679
14.4389,2782
14.4417,2884
14.4444,2914
14.4472,2765
14.4500,2481
14.4528,2151
14.4556,1847
14.4583,1596
14.4611,1448
14.4639,1401
14.4667,1417
14.4694,1446
14.4722,1489
14.4750,1511
14.4778,1502
14.4806,1497
14.4833,1481
14.4861,1462
14.4889,1459
14.4917,1465
14.4944,1469
14.4972,1474
14.5000,1470
14.5028,1469
14.5056,1462
14.5083,1461
14.5111,1474
14.5139,1480
14.5167,1496
14.5194,1495
14.5222,1497
14.5250,1500
14.5278,1504
14.5306,1510
14.5333,1523
14.5361,1530
14.5389,1534
14.5417,1533
14.5444,1527
14.5472,1532
14.5500,1539
14.5528,1553
14.5556,1560
14.5583,1568
14.5611,1561
14.5639,1564
14.5667,1570
14.5694,1571
14.5722,1581
14.5750,1588
14.5778,1592
14.5806,1584
14.5833,1591
14.5861,1591
14.5889,1603
14.5917,1627
14.5944,1639
14.5972,1653
14.6000,1664
14.6028,1680
14.6056,1669
14.6083,1673
14.6111,1684
14.6139,1695
14.6167,1709
14.6194,1716
14.6222,1724
14.6250,1724
14.6278,1739
14.6306,1755
14.6333,1765
14.6361,1779
14.6389,1794
14.6417,1801
14.6444,1812
14.6472,1829
14.6500,1902
14.6528,1913
14.6556,1908
14.6583,1886
14.6611,1869
14.6639,1847
14.6667,1821
14.6694,1803
14.6722,1791
14.6750,1790
14.6778,1778
14.6806,1765
14.6833,1743
14.6861,1727
14.6889,1716
14.6917,1701
14.6944,1712
14.6972,1712
14.7000,1703
14.7028,1690
14.7056,1688
14.7083,1688
14.7111,1683
14.7139,1687
14.7167,1688
14.7194,1691
14.7222,1680
14.7250,1673
14.7278,1671
14.7306,1687
14.7333,1687
14.7361,1695
14.7389,1703
14.7417,1707
14.7444,1709
14.7472,1698
14.7500,1699
14.7528,1705
14.7556,1707
14.7583,1705
14.7611,1702
14.7639,1707
14.7667,1704
14.7694,1707
14.7722,1709
14.7750,1718
14.7778,1724
14.7806,1732
14.7833,1730
14.7861,1738
14.7889,1729
14.7917,1737
14.7944,1736
14.7972,1741
14.8000,1748
14.8028,1744
14.8056,1748
14.8083,1750
14.8111,1755
14.8139,1753
14.8167,1753
14.8194,1761
14.8222,1771
14.8250,1780
14.8278,1773
14.8306,1780
14.8333,1782
14.8361,1790
14.8389,1799
14.8417,1801
14.8444,1802
14.8472,1796
14.8500,1791
14.8528,1798
14.8556,1784
14.8583,1795
14.8611,1799
14.8639,1791
14.8667,1801
14.8694,1808
14.8722,1811
14.8750,1823
14.8778,1828
14.8806,1822
14.8833,1818
14.8861,1809
14.8889,1810
14.8917,1806
14.8944,1809
14.8972,1807
14.9000,1805
14.9028,1802
14.9056,1799
14.9083,1793
14.9111,1789
14.9139,1791
14.9167,1793
14.9194,1789
14.9222,1789
14.9250,1793
14.9278,1793
14.9306,1795
14.9333,1798
14.9361,1807
14.9389,1803
14.9417,1801
14.9444,1797
14.9472,1791
14.9500,1800
14.9528,1800
14.9556,1806
14.9583,1802
14.9611,1805
14.9639,1798
14.9667,1798
14.9694,1796
14.9722,1799
14.9750,1794
14.9778,1799
14.9806,1812
14.9833,1812
14.9861,1809
14.9889,1813
14.9917,1815
14.9944,1805
14.9972,1811
15.0000,1808
15.0028,1803
15.0056,1802
15.0083,1803
15.0111,1804
15.0139,1804
15.0167,1809
15.0194,1805
15.0222,1807
15.0250,1805
15.0278,1802
15.0306,1804
15.0333,1811
15.0361,1813
15.0389,1816
15.0417,1805
15.0444,1816
15.0472,1821
15.0500,1833
15.0528,1844
15.0556,1854
15.0583,1878
15.0611,1898
15.0639,1914
15.0667,1926
15.0694,1945
15.0722,1953
15.0750,1960
15.0778,1970
15.0806,1977
15.0833,1982
15.0861,1990
15.0889,1985
15.0917,1989
15.0944,2000
15.0972,2002
15.1000,2029
15.1028,2049
15.1056,2045
15.1083,2029
15.1111,1997
15.1139,1956
15.1167,1927
15.1194,1903
15.1222,1879
15.1250,1850
15.1278,1822
15.1306,1806
15.1333,1797
15.1361,1783
15.1389,1780
15.1417,1765
15.1444,1757
15.1472,1755
15.1500,1747
15.1528,1729
15.1556,1719
15.1583,1725
15.1611,1716
15.1639,1717
15.1667,1717
15.1694,1725
15.1722,1724
15.1750,1711
15.1778,1712
15.1806,1710
15.1833,1703
15.1861,1680
15.1889,1648
15.1917,1618
15.1944,1572
15.1972,1555
15.2000,1597
15.2028,1728
15.2056,1874
15.2083,2062
15.2111,2283
15.2139,2505
15.2167,2684
15.2194,2832
15.2222,2926
15.2250,3030
15.2278,3145
15.2306,3156
15.2333,3003
15.2361,2698
15.2389,2338
15.2417,2011
15.2444,1743
15.2472,1597
15.2500,1555
15.2528,1583
15.2556,1646
15.2583,1685
15.2611,1706
15.2639,1706
15.2667,1700
15.2694,1673
15.2722,1654
15.2750,1639
15.2778,1650
15.2806,1645
15.2833,1648
15.2861,1642
15.2889,1629
15.2917,1627
15.2944,1631
15.2972,1635
15.3000,1645
15.3028,1656
15.3056,1648
15.3083,1634
15.3111,1631
15.3139,1626
15.3167,1640
15.3194,1657
15.3222,1667
15.3250,1671
15.3278,1667
15.3306,1662
15.3333,1666
15.3361,1677
15.3389,1699
15.3417,1705
15.3444,1704
15.3472,1693
15.3500,1676
15.3528,1667
15.3556,1669
15.3583,1681
15.3611,1684
15.3639,1687
15.3667,1680
15.3694,1689
15.3722,1688
15.3750,1688
15.3778,1708
15.3806,1714
15.3833,1718
15.3861,1714
15.3889,1706
15.3917,1708
15.3944,1705
15.3972,1702
15.4000,1708
15.4028,1714
15.4056,1707
15.4083,1716
15.4111,1721
15.4139,1727
15.4167,1733
15.4194,1741
15.4222,1750
15.4250,1756
15.4278,1757
15.4306,1768
15.4333,1768
15.4361,1854
15.4389,1866
15.4417,1845
15.4444,1829
15.4472,1807
15.4500,1780
15.4528,1765
15.4556,1742
15.4583,1729
15.4611,1718
15.4639,1696
15.4667,1679
15.4694,1656
15.4722,1638
15.4750,1630
15.4778,1632
15.4806,1627
15.4833,1613
15.4861,1610
15.4889,1608
15.4917,1600
15.4944,1585
15.4972,1587
15.5000,1582
15.5028,1580
15.5056,1577
15.5083,1573
15.5111,1566
15.5139,1568
15.5167,1568
15.5194,1576
15.5222,1588
15.5250,1591
15.5278,1581
15.5306,1580
15.5333,1584
15.5361,1587
15.5389,1586
15.5417,1592
15.5444,1595
15.5472,1593
15.5500,1593
15.5528,1587
15.5556,1590
15.5583,1593
15.5611,1605
15.5639,1603
15.5667,1610
15.5694,1604
15.5722,1595
15.5750,1596
15.5778,1598
15.5806,1612
15.5833,1616
15.5861,1618
15.5889,1619
15.5917,1629
15.5944,1631
15.5972,1632
15.6000,1633
15.6028,1641
15.6056,1635
15.6083,1637
15.6111,1635
15.6139,1635
15.6167,1641
15.6194,1655
15.6222,1659
15.6250,1660
15.6278,1664
15.6306,1656
15.6333,1649
15.6361,1646
15.6389,1651
15.6417,1647
15.6444,1658
15.6472,1653
15.6500,1650
15.6528,1649
15.6556,1648
15.6583,1650
15.6611,1644
15.6639,1651
15.6667,1650
15.6694,1645
15.6722,1642
15.6750,1643
15.6778,1647
15.6806,1647
15.6833,1639
15.6861,1639
15.6889,1633
15.6917,1627
15.6944,1620
15.6972,1619
15.7000,1623
15.7028,1621
15.7056,1631
15.7083,1639
15.7111,1641
15.7139,1630
15.7167,1635
15.7194,1633
15.7222,1640
15.7250,1640
15.7278,1639
15.7306,1636
15.7333,1642
15.7361,1634
15.7389,1633
15.7417,1645
15.7444,1648
15.7472,1651
15.7500,1651
15.7528,1646
15.7556,1645
15.7583,1641
15.7611,1646
15.7639,1651
15.7667,1654
15.7694,1655
15.7722,1653
15.7750,1651
15.7778,1645
15.7806,1648
15.7833,1646
15.7861,1650
15.7889,1667
15.7917,1670
15.7944,1670
15.7972,1666
15.8000,1665
15.8028,1670
15.8056,1663
15.8083,1660
15.8111,1665
15.8139,1677
15.8167,1692
15.8194,1706
15.8222,1722
15.8250,1742
15.8278,1749
15.8306,1772
15.8333,1784
15.8361,1800
15.8389,1811
15.8417,1803
15.8444,1806
15.8472,1812
15.8500,1812
15.8528,1823
15.8556,1824
15.8583,1836
15.8611,1856
15.8639,1878
15.8667,1898
15.8694,1888
15.8722,1869
15.8750,1836
15.8778,1798
15.8806,1768
15.8833,1749
15.8861,1743
15.8889,1725
15.8917,1705
15.8944,1691
15.8972,1681
15.9000,1685
15.9028,1684
15.9056,1680
15.9083,1674
15.9111,1673
15.9139,1662
15.9167,1656
15.9194,1656
15.9222,1655
15.9250,1650
15.9278,1651
15.9306,1645
15.9333,1639
15.9361,1642
15.9389,1638
15.9417,1634
15.9444,1625
15.9472,1609
15.9500,1579
15.9528,1551
15.9556,1512
15.9583,1467
15.9611,1460
15.9639,1530
15.9667,1658
15.9694,1816
15.9722,2003
15.9750,2226
15.9778,2437
15.9806,2616
15.9833,2752
15.9861,2841
15.9889,2929
15.9917,3027
15.9944,2992
15.9972,2782
16.0000,2456
16.0028,2111
16.0056,1796
16.0083,1556
16.0111,1428
16.0139,1403
16.0167,1434
16.0194,1485
16.0222,1524
16.0250,1546
16.0278,1543
16.0306,1517
16.0333,1495
16.0361,1472
16.0389,1445
16.0417,1433
16.0444,1436
16.0472,1438
16.0500,1435
16.0528,1438
16.0556,1437
16.0583,1449
16.0611,1468
16.0639,1476
16.0667,1488
16.0694,1497
16.0722,1496
16.0750,1501
16.0778,1513
16.0806,1529
16.0833,1552
16.0861,1555
16.0889,1559
16.0917,1568
16.0944,1566
16.0972,1583
16.1000,1597
16.1028,1611
16.1056,1638
16.1083,1629
16.1111,1619
16.1139,1618
16.1167,1621
16.1194,1620
16.1222,1641
16.1250,1641
16.1278,1649
16.1306,1653
16.1333,1642
16.1361,1650
16.1389,1655
16.1417,1669
16.1444,1679
16.1472,1678
16.1500,1694
16.1528,1693
16.1556,1686
16.1583,1680
16.1611,1676
16.1639,1691
16.1667,1707
16.1694,1710
16.1722,1717
16.1750,1723
16.1778,1747
16.1806,1761
16.1833,1779
16.1861,1783
16.1889,1775
16.1917,1779
16.1944,1787
16.1972,1801
16.2000,1854
16.2028,1864
16.2056,1847
16.2083,1832
16.2111,1805
16.2139,1783
16.2167,1766
16.2194,1751
16.2222,1726
16.2250,1708
16.2278,1690
16.2306,1662
16.2333,1648
16.2361,1619
16.2389,1610
16.2417,1602
16.2444,1587
16.2472,1585
16.2500,1587
16.2528,1575
16.2556,1557
16.2583,1549
16.2611,1546
16.2639,1539
16.2667,1533
16.2694,1524
16.2722,1524
16.2750,1515
16.2778,1511
16.2806,1512
16.2833,1519
16.2861,1517
16.2889,1520
16.2917,1524
16.2944,1515
16.2972,1515
16.3000,1519
16.3028,1527
16.3056,1534
16.3083,1552
16.3111,1551
16.3139,1543
16.3167,1539
16.3194,1528
16.3222,1525
16.3250,1531
16.3278,1533
16.3306,1548
16.3333,1551
16.3361,1556
16.3389,1557
16.3417,1564
16.3444,1565
16.3472,1569
16.3500,1561
16.3528,1555
16.3556,1549
16.3583,1551
16.3611,1556
16.3639,1560
16.3667,1556
16.3694,1562
16.3722,1566
16.3750,1574
16.3778,1582
16.3806,1585
16.3833,1587
16.3861,1589
16.3889,1587
16.3917,1588
16.3944,1581
16.3972,1580
16.4000,1599
16.4028,1611
16.4056,1597
16.4083,1591
16.4111,1581
16.4139,1575
16.4167,1596
16.4194,1602
16.4222,1597
16.4250,1606
16.4278,1600
16.4306,1591
16.4333,1579
16.4361,1553
16.4389,1530
16.4417,1515
16.4444,1515
16.4472,1518
16.4500,1518
16.4528,1524
16.4556,1534
16.4583,1542
16.4611,1530
16.4639,1528
16.4667,1533
16.4694,1541
16.4722,1546
16.4750,1547
16.4778,1559
16.4806,1553
16.4833,1546
16.4861,1545
16.4889,1536
16.4917,1534
16.4944,1532
16.4972,1541
16.5000,1539
16.5028,1547
16.5056,1559
16.5083,1553
16.5111,1553
16.5139,1544
16.5167,1531
16.5194,1538
16.5222,1547
16.5250,1558
16.5278,1560
16.5306,1559
16.5333,1560
16.5361,1542
16.5389,1534
16.5417,1537
16.5444,1530
16.5472,1534
16.5500,1539
16.5528,1544
16.5556,1548
16.5583,1547
16.5611,1551
16.5639,1556
16.5667,1558
16.5694,1548
16.5722,1546
16.5750,1565
16.5778,1559
16.5806,1562
16.5833,1558
16.5861,1565
16.5889,1575
16.5917,1565
16.5944,1577
16.5972,1597
16.6000,1629
16.6028,1668
16.6056,1682
16.6083,1691
16.6111,1700
16.6139,1705
16.6167,1721
16.6194,1720
16.6222,1720
16.6250,1728
16.6278,1750
16.6306,1775
16.6333,1781
16.6361,1798
16.6389,1809
16.6417,1823
16.6444,1828
16.6472,1816
16.6500,1799
16.6528,1781
16.6556,1751
16.6583,1727
16.6611,1718
16.6639,1701
16.6667,1678
16.6694,1654
16.6722,1636
16.6750,1624
16.6778,1609
16.6806,1602
16.6833,1600
16.6861,1589
16.6889,1587
16.6917,1588
16.6944,1587
16.6972,1584
16.7000,1592
16.7028,1581
16.7056,1588
16.7083,1584
16.7111,1584
16.7139,1576
16.7167,1584
16.7194,1576
16.7222,1578
16.7250,1574
16.7278,1556
16.7306,1534
16.7333,1509
16.7361,1497
16.7389,1463
16.7417,1459
16.7444,1517
16.7472,1634
16.7500,1784
16.7528,1966
16.7556,2188
16.7583,2405
16.7611,2597
16.7639,2731
16.7667,2820
16.7694,2913
16.7722,3001
16.7750,2998
16.7778,2800
16.7806,2478
16.7833,2131
16.7861,1811
16.7889,1566
16.7917,1455
16.7944,1437
16.7972,1491
16.8000,1545
16.8028,1599
16.8056,1612
16.8083,1605
16.8111,1586
16.8139,1562
16.8167,1540
16.8194,1522
16.8222,1535
16.8250,1543
16.8278,1559
16.8306,1562
16.8333,1553
16.8361,1546
16.8389,1550
16.8417,1559
16.8444,1573
16.8472,1574
16.8500,1571
16.8528,1560
16.8556,1555
16.8583,1564
16.8611,1576
16.8639,1590
16.8667,1601
16.8694,1599
16.8722,1574
16.8750,1559
16.8778,1550
16.8806,1568
16.8833,1580
16.8861,1585
16.8889,1581
16.8917,1585
16.8944,1585
16.8972,1588
16.9000,1598
16.9028,1603
16.9056,1617
16.9083,1614
16.9111,1619
16.9139,1615
16.9167,1607
16.9194,1634
16.9222,1652
16.9250,1674
16.9278,1683
16.9306,1683
16.9333,1677
16.9361,1677
16.9389,1676
16.9417,1678
16.9444,1689
16.9472,1693
16.9500,1702
16.9528,1703
16.9556,1708
16.9583,1713
16.9611,1727
16.9639,1758
16.9667,1771
16.9694,1779
16.9722,1779
16.9750,1771
16.9778,1779
16.9806,1892
16.9833,1899
16.9861,1873
16.9889,1863
16.9917,1845
16.9944,1822
16.9972,1822
17.0000,1792
17.0028,1780
17.0056,1761
17.0083,1748
17.0111,1724
17.0139,1703
17.0167,1686
17.0194,1675
17.0222,1670
17.0250,1648
17.0278,1649
17.0306,1630
17.0333,1630
17.0361,1629
17.0389,1630
17.0417,1636
17.0444,1645
17.0472,1649
17.0500,1645
17.0528,1629
17.0556,1607
17.0583,1605
17.0611,1597
17.0639,1596
17.0667,1592
17.0694,1596
17.0722,1596
17.0750,1591
17.0778,1589
17.0806,1592
17.0833,1596
17.0861,1596
17.0889,1600
17.0917,1598
17.0944,1607
17.0972,1604
17.1000,1611
17.1028,1616
17.1056,1621
17.1083,1635
17.1111,1636
17.1139,1636
17.1167,1634
17.1194,1638
17.1222,1649
17.1250,1658
17.1278,1673
17.1306,1669
17.1333,1663
17.1361,1664
17.1389,1666
17.1417,1678
17.1444,1691
17.1472,1692
17.1500,1704
17.1528,1697
17.1556,1696
17.1583,1678
17.1611,1672
17.1639,1676
17.1667,1678
17.1694,1674
17.1722,1668
17.1750,1663
17.1778,1658
17.1806,1662
17.1833,1673
17.1861,1676
17.1889,1678
17.1917,1679
17.1944,1680
17.1972,1676
17.2000,1684
17.2028,1686
17.2056,1680
17.2083,1683
17.2111,1685
17.2139,1682
17.2167,1692
17.2194,1690
17.2222,1681
17.2250,1680
17.2278,1677
17.2306,1679
17.2333,1679
17.2361,1684
17.2389,1679
17.2417,1671
17.2444,1673
17.2472,1671
17.2500,1667
17.2528,1679
17.2556,1684
17.2583,1681
17.2611,1681
17.2639,1669
17.2667,1666
17.2694,1674
17.2722,1672
17.2750,1662
17.2778,1658
17.2806,1646
17.2833,1654
17.2861,1651
17.2889,1653
17.2917,1665
17.2944,1656
17.2972,1661
17.3000,1665
17.3028,1662
17.3056,1666
17.3083,1656
17.3111,1659
17.3139,1660
17.3167,1669
17.3194,1662
17.3222,1660
17.3250,1661
17.3278,1668
17.3306,1669
17.3333,1671
17.3361,1676
17.3389,1676
17.3417,1678
17.3444,1690
17.3472,1689
17.3500,1696
17.3528,1688
17.3556,1682
17.3583,1681
17.3611,1695
17.3639,1718
17.3667,1752
17.3694,1782
17.3722,1809
17.3750,1824
17.3778,1831
17.3806,1842
17.3833,1864
17.3861,1864
17.3889,1863
17.3917,1854
17.3944,1860
17.3972,1857
17.4000,1860
17.4028,1853
17.4056,1863
17.4083,1886
17.4111,1916
17.4139,1931
17.4167,1933
17.4194,1914
17.4222,1887
17.4250,1856
17.4278,1824
17.4306,1795
17.4333,1774
17.4361,1758
17.4389,1735
17.4417,1729
17.4444,1725
17.4472,1724
17.4500,1719
17.4528,1717
17.4556,1701
17.4583,1688
17.4611,1689
17.4639,1685
17.4667,1678
17.4694,1670
17.4722,1672
17.4750,1662
17.4778,1652
17.4806,1652
17.4833,1656
17.4861,1658
17.4889,1652
17.4917,1644
17.4944,1630
17.4972,1612
17.5000,1580
17.5028,1550
17.5056,1513
17.5083,1499
17.5111,1554
17.5139,1670
17.5167,1818
17.5194,2004
17.5222,2230
17.5250,2438
17.5278,2611
17.5306,2744
17.5333,2840
17.5361,2934
17.5389,3046
17.5417,3044
17.5444,2886
17.5472,2595
17.5500,2246
17.5528,1932
17.5556,1664
17.5583,1522
17.5611,1501
17.5639,1545
17.5667,1589
17.5694,1633
17.5722,1664
17.5750,1668
17.5778,1648
17.5806,1630
17.5833,1616
17.5861,1613
17.5889,1606
17.5917,1613
17.5944,1627
17.5972,1619
17.6000,1610
17.6028,1606
17.6056,1601
17.6083,1620
17.6111,1637
17.6139,1650
17.6167,1648
17.6194,1639
17.6222,1617
17.6250,1603
17.6278,1603
17.6306,1603
17.6333,1602
17.6361,1612
17.6389,1600
17.6417,1593
17.6444,1592
17.6472,1603
17.6500,1613
17.6528,1622
17.6556,1635
17.6583,1637
17.6611,1641
17.6639,1648
17.6667,1662
17.6694,1674
17.6722,1686
17.6750,1688
17.6778,1688
17.6806,1687
17.6833,1683
17.6861,1691
17.6889,1700
17.6917,1716
17.6944,1727
17.6972,1733
17.7000,1728
17.7028,1739
17.7056,1738
17.7083,1757
17.7111,1771
17.7139,1773
17.7167,1775
17.7194,1776
17.7222,1772
17.7250,1769
17.7278,1781
17.7306,1796
17.7333,1803
17.7361,1829
17.7389,1833
17.7417,1827
17.7444,1848
17.7472,1952
17.7500,1962
17.7528,1960
17.7556,1955
17.7583,1939
17.7611,1911
17.7639,1899
17.7667,1874
17.7694,1872
17.7722,1859
17.7750,1853
17.7778,1843
17.7806,1827
17.7833,1813
17.7861,1803
17.7889,1789
17.7917,1789
17.7944,1790
17.7972,1795
17.8000,1773
17.8028,1747
17.8056,1717
17.8083,1696
17.8111,1676
17.8139,1662
17.8167,1665
17.8194,1661
17.8222,1672
17.8250,1670
17.8278,1673
17.8306,1664
17.8333,1654
17.8361,1652
17.8389,1649
17.8417,1653
17.8444,1639
17.8472,1632
17.8500,1629
17.8528,1621
17.8556,1623
17.8583,1628
17.8611,1625
17.8639,1635
17.8667,1630
17.8694,1637
17.8722,1644
17.8750,1647
17.8778,1646
17.8806,1653
17.8833,1659
17.8861,1667
17.8889,1669
17.8917,1674
17.8944,1685
17.8972,1694
17.9000,1703
17.9028,1694
17.9056,1681
17.9083,1678
17.9111,1681
17.9139,1686
17.9167,1693
17.9194,1706
17.9222,1709
17.9250,1707
17.9278,1717
17.9306,1712
17.9333,1706
17.9361,1709
17.9389,1706
17.9417,1704
17.9444,1723
17.9472,1727
17.9500,1728
17.9528,1733
17.9556,1718
17.9583,1710
17.9611,1710
17.9639,1703
17.9667,1706
17.9694,1705
17.9722,1704
17.9750,1700
17.9778,1691
17.9806,1680
17.9833,1673
17.9861,1676
17.9889,1677
17.9917,1687
17.9944,1682
17.9972,1678
18.0000,1680
18.0028,1670
18.0056,1669
18.0083,1666
18.0111,1680
18.0139,1681
18.0167,1686
18.0194,1686
18.0222,1684
18.0250,1682
18.0278,1677
18.0306,1663
18.0333,1666
18.0361,1668
18.0389,1671
18.0417,1677
18.0444,1672
18.0472,1659
18.0500,1665
18.0528,1664
18.0556,1660
18.0583,1651
18.0611,1646
18.0639,1646
18.0667,1648
18.0694,1655
18.0722,1651
18.0750,1646
18.0778,1647
18.0806,1653
18.0833,1651
18.0861,1651
18.0889,1659
18.0917,1671
18.0944,1682
18.0972,1696
18.1000,1698
18.1028,1703
18.1056,1703
18.1083,1714
18.1111,1725
18.1139,1737
18.1167,1757
18.1194,1771
18.1222,1777
18.1250,1784
18.1278,1800
18.1306,1806
18.1333,1824
18.1361,1838
18.1389,1853
18.1417,1849
18.1444,1843
18.1472,1860
18.1500,1881
18.1528,1911
18.1556,1921
18.1583,1910
18.1611,1878
18.1639,1846
18.1667,1810
18.1694,1781
18.1722,1743
18.1750,1700
18.1778,1666
18.1806,1661
18.1833,1662
18.1861,1661
18.1889,1664
18.1917,1650
18.1944,1639
18.1972,1626
18.2000,1608
18.2028,1605
18.2056,1608
18.2083,1607
18.2111,1591
18.2139,1595
18.2167,1594
18.2194,1597
18.2222,1603
18.2250,1603
18.2278,1608
18.2306,1616
18.2333,1607
18.2361,1586
18.2389,1561
18.2417,1524
18.2444,1503
18.2472,1481
18.2500,1495
18.2528,1571
18.2556,1696
18.2583,1834
18.2611,1999
18.2639,2188
18.2667,2368
18.2694,2543
18.2722,2694
18.2750,2813
18.2778,2943
18.2806,3057
18.2833,3029
18.2861,2820
18.2889,2517
18.2917,2176
18.2944,1881
18.2972,1646
18.3000,1513
18.3028,1462
18.3056,1480
18.3083,1517
18.3111,1560
18.3139,1575
18.3167,1580
18.3194,1574
18.3222,1568
18.3250,1550
18.3278,1550
18.3306,1548
18.3333,1549
18.3361,1561
18.3389,1564
18.3417,1566
18.3444,1574
18.3472,1591
18.3500,1580
18.3528,1580
18.3556,1571
18.3583,1574
18.3611,1574
18.3639,1584
18.3667,1594
18.3694,1597
18.3722,1592
18.3750,1581
18.3778,1574
18.3806,1574
18.3833,1568
18.3861,1574
18.3889,1593
18.3917,1615
18.3944,1634
18.3972,1630
18.4000,1629
18.4028,1622
18.4056,1627
18.4083,1634
18.4111,1650
18.4139,1663
18.4167,1663
18.4194,1650
18.4222,1629
18.4250,1623
18.4278,1627
18.4306,1633
18.4333,1648
18.4361,1655
18.4389,1650
18.4417,1651
18.4444,1641
18.4472,1657
18.4500,1681
18.4528,1709
18.4556,1713
18.4583,1707
18.4611,1700
18.4639,1691
18.4667,1693
18.4694,1701
18.4722,1713
18.4750,1737
18.4778,1750
18.4806,1764
18.4833,1768
18.4861,1780
18.4889,1863
18.4917,1858
18.4944,1860
18.4972,1836
18.5000,1825
18.5028,1810
18.5056,1799
18.5083,1787
18.5111,1780
18.5139,1759
18.5167,1747
18.5194,1740
18.5222,1726
18.5250,1715
18.5278,1692
18.5306,1671
18.5333,1665
18.5361,1677
18.5389,1664
18.5417,1666
18.5444,1645
18.5472,1635
18.5500,1634
18.5528,1634
18.5556,1639
18.5583,1640
18.5611,1637
18.5639,1636
18.5667,1625
18.5694,1623
18.5722,1612
18.5750,1614
18.5778,1608
18.5806,1612
18.5833,1607
18.5861,1602
18.5889,1612
18.5917,1617
18.5944,1622
18.5972,1635
18.6000,1640
18.6028,1637
18.6056,1638
18.6083,1647
18.6111,1646
18.6139,1655
18.6167,1659
18.6194,1650
18.6222,1653
18.6250,1652
18.6278,1650
18.6306,1647
18.6333,1650
18.6361,1648
18.6389,1648
18.6417,1653
18.6444,1651
18.6472,1656
18.6500,1665
18.6528,1675
18.6556,1669
18.6583,1667
18.6611,1668
18.6639,1675
18.6667,1685
18.6694,1681
18.6722,1690
18.6750,1691
18.6778,1686
18.6806,1687
18.6833,1679
18.6861,1677
18.6889,1686
18.6917,1685
18.6944,1679
18.6972,1681
18.7000,1683
18.7028,1685
18.7056,1678
18.7083,1673
18.7111,1666
18.7139,1671
18.7167,1662
18.7194,1652
18.7222,1657
18.7250,1655
18.7278,1653
18.7306,1663
18.7333,1649
18.7361,1662
18.7389,1654
18.7417,1656
18.7444,1656
18.7472,1657
18.7500,1657
18.7528,1658
18.7556,1658
18.7583,1652
18.7611,1654
18.7639,1651
18.7667,1647
18.7694,1652
18.7722,1654
18.7750,1651
18.7778,1651
18.7806,1651
18.7833,1656
18.7861,1649
18.7889,1653
18.7917,1659
18.7944,1661
18.7972,1659
18.8000,1665
18.8028,1671
18.8056,1672
18.8083,1681
18.8111,1680
18.8139,1677
18.8167,1678
18.8194,1671
18.8222,1682
18.8250,1690
18.8278,1705
18.8306,1723
18.8333,1737
18.8361,1768
18.8389,1796
18.8417,1804
18.8444,1813
18.8472,1796
18.8500,1808
18.8528,1824
18.8556,1833
18.8583,1851
18.8611,1879
18.8639,1894
18.8667,1916
18.8694,1932
18.8722,1933
18.8750,1926
18.8778,1912
18.8806,1880
18.8833,1852
18.8861,1826
18.8889,1801
18.8917,1772
18.8944,1739
18.8972,1704
18.9000,1681
18.9028,1665
18.9056,1646
18.9083,1651
18.9111,1654
18.9139,1649
18.9167,1641
18.9194,1629
18.9222,1626
18.9250,1613
18.9278,1601
18.9306,1607
18.9333,1605
18.9361,1623
18.9389,1617
18.9417,1622
18.9444,1619
18.9472,1616
18.9500,1619
18.9528,1603
18.9556,1586
18.9583,1561
18.9611,1521
18.9639,1490
18.9667,1510
18.9694,1590
18.9722,1704
18.9750,1859
18.9778,2037
18.9806,2266
18.9833,2488
18.9861,2671
18.9889,2816
18.9917,2934
18.9944,3053
18.9972,3121
19.0000,3047
19.0028,2782
19.0056,2441
19.0083,2088
19.0111,1786
19.0139,1587
19.0167,1488
19.0194,1478
19.0222,1519
19.0250,1568
19.0278,1607
19.0306,1629
19.0333,1627
19.0361,1606
19.0389,1596
19.0417,1581
19.0444,1582
19.0472,1591
19.0500,1591
19.0528,1593
19.0556,1579
19.0583,1572
19.0611,1573
19.0639,1578
19.0667,1586
19.0694,1613
19.0722,1605
19.0750,1595
19.0778,1592
19.0806,1600
19.0833,1616
19.0861,1624
19.0889,1631
19.0917,1632
19.0944,1632
19.0972,1614
19.1000,1617
19.1028,1634
19.1056,1626
19.1083,1645
19.1111,1650
19.1139,1648
19.1167,1637
19.1194,1636
19.1222,1642
19.1250,1660
19.1278,1675
19.1306,1684
19.1333,1681
19.1361,1683
19.1389,1672
19.1417,1681
19.1444,1672
19.1472,1682
19.1500,1690
19.1528,1695
19.1556,1695
19.1583,1702
19.1611,1705
19.1639,1709
19.1667,1722
19.1694,1735
19.1722,1743
19.1750,1739
19.1778,1739
19.1806,1744
19.1833,1752
19.1861,1755
19.1889,1769
19.1917,1784
19.1944,1795
19.1972,1800
19.2000,1801
19.2028,1918
19.2056,1927
19.2083,1919
19.2111,1900
19.2139,1885
19.2167,1859
19.2194,1832
19.2222,1813
19.2250,1797
19.2278,1792
19.2306,1766
19.2333,1755
19.2361,1736
19.2389,1717
19.2417,1700
19.2444,1683
19.2472,1679
19.2500,1676
19.2528,1670
19.2556,1660
19.2583,1655
19.2611,1658
19.2639,1644
19.2667,1653
19.2694,1645
19.2722,1639
19.2750,1629
19.2778,1625
19.2806,1623
19.2833,1632
19.2861,1629
19.2889,1636
19.2917,1636
19.2944,1636
19.2972,1638
19.3000,1629
19.3028,1624
19.3056,1623
19.3083,1629
19.3111,1632
19.3139,1626
19.3167,1633
19.3194,1624
19.3222,1627
19.3250,1631
19.3278,1639
19.3306,1646
19.3333,1641
19.3361,1647
19.3389,1655
19.3417,1642
19.3444,1648
19.3472,1655
19.3500,1664
19.3528,1673
19.3556,1668
19.3583,1667
19.3611,1676
19.3639,1672
19.3667,1678
19.3694,1696
19.3722,1696
19.3750,1698
19.3778,1689
19.3806,1684
19.3833,1692
19.3861,1704
19.3889,1702
19.3917,1696
19.3944,1708
19.3972,1708
19.4000,1700
19.4028,1693
19.4056,1686
19.4083,1685
19.4111,1690
19.4139,1697
19.4167,1691
19.4194,1699
19.4222,1695
19.4250,1691
19.4278,1693
19.4306,1699
19.4333,1697
19.4361,1698
19.4389,1691
19.4417,1679
19.4444,1678
19.4472,1676
19.4500,1688
19.4528,1692
19.4556,1696
19.4583,1697
19.4611,1694
19.4639,1691
19.4667,1686
19.4694,1680
19.4722,1682
19.4750,1681
19.4778,1667
19.4806,1667
19.4833,1671
19.4861,1674
19.4889,1683
19.4917,1682
19.4944,1697
19.4972,1695
19.5000,1697
19.5028,1689
19.5056,1686
19.5083,1691
19.5111,1689
19.5139,1692
19.5167,1693
19.5194,1694
19.5222,1695
19.5250,1688
19.5278,1682
19.5306,1680
19.5333,1682
19.5361,1675
19.5389,1679
19.5417,1681
19.5444,1699
19.5472,1687
19.5500,1688
19.5528,1689
19.5556,1697
19.5583,1695
19.5611,1698
19.5639,1695
19.5667,1695
19.5694,1698
19.5722,1696
19.5750,1692
19.5778,1698
19.5806,1709
19.5833,1714
19.5861,1743
19.5889,1762
19.5917,1789
19.5944,1815
19.5972,1824
19.6000,1844
19.6028,1845
19.6056,1853
19.6083,1862
19.6111,1870
19.6139,1886
19.6167,1899
19.6194,1904
19.6222,1899
19.6250,1900
19.6278,1919
19.6306,1924
19.6333,1930
19.6361,1929
19.6389,1906
19.6417,1878
19.6444,1854
19.6472,1827
19.6500,1808
19.6528,1787
19.6556,1749
19.6583,1715
19.6611,1698
19.6639,1676
19.6667,1673
19.6694,1674
19.6722,1672
19.6750,1664
19.6778,1651
19.6806,1650
19.6833,1648
19.6861,1638
19.6889,1629
19.6917,1641
19.6944,1633
19.6972,1643
19.7000,1636
19.7028,1646
19.7056,1648
19.7083,1640
19.7111,1643
19.7139,1639
19.7167,1613
19.7194,1586
19.7222,1542
19.7250,1505
19.7278,1481
19.7306,1487
19.7333,1586
19.7361,1732
19.7389,1906
19.7417,2111
19.7444,2337
19.7472,2546
19.7500,2719
19.7528,2836
19.7556,2913
19.7583,3005
19.7611,3093
19.7639,3029
19.7667,2771
19.7694,2415
19.7722,2062
19.7750,1753
19.7778,1551
19.7806,1483
19.7833,1490
19.7861,1546
19.7889,1592
19.7917,1628
19.7944,1639
19.7972,1624
19.8000,1604
19.8028,1590
19.8056,1573
19.8083,1574
19.8111,1580
19.8139,1592
19.8167,1588
19.8194,1583
19.8222,1578
19.8250,1576
19.8278,1575
19.8306,1581
19.8333,1591
19.8361,1598
19.8389,1592
19.8417,1585
19.8444,1587
19.8472,1592
19.8500,1611
19.8528,1617
19.8556,1624
19.8583,1625
19.8611,1619
19.8639,1613
19.8667,1603
19.8694,1613
19.8722,1628
19.8750,1622
19.8778,1632
19.8806,1629
19.8833,1629
19.8861,1633
19.8889,1634
19.8917,1646
19.8944,1652
19.8972,1651
19.9000,1645
19.9028,1642
19.9056,1648
19.9083,1649
19.9111,1670
19.9139,1678
19.9167,1677
19.9194,1669
19.9222,1666
19.9250,1668
19.9278,1679
19.9306,1702
19.9333,1719
19.9361,1738
19.9389,1730
19.9417,1736
19.9444,1734
19.9472,1747
19.9500,1758
19.9528,1781
19.9556,1789
19.9583,1788
19.9611,1788
19.9639,1802
19.9667,1906
19.9694,1915
19.9722,1907
19.9750,1901
19.9778,1880
19.9806,1858
19.9833,1823
19.9861,1806
19.9889,1789
19.9917,1779
19.9944,1765
19.9972,1751
20.0000,1733
20.0028,1712
20.0056,1689
20.0083,1673
20.0111,1666
20.0139,1662
20.0167,1655
20.0194,1631
20.0222,1617
20.0250,1602
20.0278,1599
20.0306,1601
20.0333,1606
20.0361,1610
20.0389,1611
20.0417,1612
20.0444,1604
20.0472,1604
20.0500,1604
20.0528,1612
20.0556,1613
20.0583,1606
20.0611,1591
20.0639,1586
20.0667,1588
20.0694,1596
20.0722,1591
20.0750,1593
20.0778,1594
20.0806,1594
20.0833,1593
20.0861,1588
20.0889,1595
20.0917,1605
20.0944,1607
20.0972,1608
20.1000,1600
20.1028,1604
20.1056,1604
20.1083,1609
20.1111,1618
20.1139,1624
20.1167,1633
20.1194,1626
20.1222,1620
20.1250,1627
20.1278,1626
20.1306,1629
20.1333,1638
20.1361,1640
20.1389,1637
20.1417,1638
20.1444,1635
20.1472,1643
20.1500,1655
20.1528,1654
20.1556,1666
20.1583,1668
20.1611,1663
20.1639,1670
20.1667,1668
20.1694,1674
20.1722,1665
20.1750,1673
20.1778,1662
20.1806,1662
20.1833,1655
20.1861,1653
20.1889,1654
20.1917,1658
20.1944,1655
20.1972,1658
20.2000,1661
20.2028,1656
20.2056,1652
20.2083,1660
20.2111,1654
20.2139,1648
20.2167,1652
20.2194,1647
20.2222,1641
20.2250,1643
20.2278,1644
20.2306,1649
20.2333,1655
20.2361,1657
20.2389,1654
20.2417,1646
20.2444,1639
20.2472,1627
20.2500,1632
20.2528,1642
20.2556,1640
20.2583,1646
20.2611,1651
20.2639,1648
20.2667,1651
20.2694,1642
20.2722,1638
20.2750,1650
20.2778,1642
20.2806,1643
20.2833,1637
20.2861,1633
20.2889,1644
20.2917,1643
20.2944,1649
20.2972,1651
20.3000,1648
20.3028,1641
20.3056,1643
20.3083,1645
20.3111,1635
20.3139,1634
20.3167,1632
20.3194,1638
20.3222,1645
20.3250,1650
20.3278,1652
20.3306,1656
20.3333,1657
20.3361,1652
20.3389,1656
20.3417,1653
20.3444,1650
20.3472,1648
20.3500,1655
20.3528,1657
20.3556,1658
20.3583,1669
20.3611,1663
20.3639,1664
20.3667,1673
20.3694,1681
20.3722,1694
20.3750,1729
20.3778,1757
20.3806,1766
20.3833,1783
20.3861,1791
20.3889,1808
20.3917,1813
20.3944,1813
20.3972,1816
20.4000,1834
20.4028,1848
20.4056,1847
20.4083,1856
20.4111,1859
20.4139,1881
20.4167,1896
20.4194,1907
20.4222,1909
20.4250,1876
20.4278,1845
20.4306,1819
20.4333,1794
20.4361,1778
20.4389,1752
20.4417,1716
20.4444,1696
20.4472,1664
20.4500,1661
20.4528,1653
20.4556,1659
20.4583,1648
20.4611,1638
20.4639,1625
20.4667,1616
20.4694,1614
20.4722,1616
20.4750,1618
20.4778,1626
20.4806,1620
20.4833,1620
20.4861,1613
20.4889,1610
20.4917,1607
20.4944,1602
20.4972,1612
20.5000,1596
20.5028,1584
20.5056,1565
20.5083,1545
20.5111,1507
20.5139,1469
20.5167,1476
20.5194,1557
20.5222,1699
20.5250,1864
20.5278,2070
20.5306,2301
20.5333,2501
20.5361,2677
20.5389,2788
20.5417,2887
20.5444,2991
20.5472,3069
20.5500,3014
20.5528,2755
20.5556,2390
20.5583,2047
20.5611,1755
20.5639,1560
20.5667,1481
20.5694,1505
20.5722,1553
20.5750,1600
20.5778,1626
20.5806,1645
20.5833,1629
20.5861,1603
20.5889,1577
20.5917,1569
20.5944,1578
20.5972,1588
20.6000,1596
20.6028,1608
20.6056,1589
20.6083,1579
20.6111,1576
20.6139,1578
20.6167,1582
20.6194,1589
20.6222,1592
20.6250,1585
20.6278,1577
20.6306,1573
20.6333,1585
20.6361,1588
20.6389,1608
20.6417,1603
20.6444,1611
20.6472,1595
20.6500,1588
20.6528,1594
20.6556,1606
20.6583,1626
20.6611,1629
20.6639,1631
20.6667,1625
20.6694,1625
20.6722,1637
20.6750,1648
20.6778,1657
20.6806,1659
20.6833,1658
20.6861,1655
20.6889,1650
20.6917,1648
20.6944,1648
20.6972,1659
20.7000,1666
20.7028,1672
20.7056,1674
20.7083,1665
20.7111,1670
20.7139,1681
20.7167,1693
20.7194,1703
20.7222,1704
20.7250,1705
20.7278,1709
20.7306,1717
20.7333,1731
20.7361,1744
20.7389,1747
20.7417,1764
20.7444,1768
20.7472,1763
20.7500,1780
20.7528,1894
20.7556,1898
20.7583,1894
20.7611,1882
20.7639,1856
20.7667,1845
20.7694,1812
20.7722,1793
20.7750,1778
20.7778,1765
20.7806,1751
20.7833,1742
20.7861,1718
20.7889,1693
20.7917,1678
20.7944,1660
20.7972,1649
20.8000,1643
20.8028,1637
20.8056,1633
20.8083,1626
20.8111,1616
20.8139,1611
20.8167,1612
20.8194,1614
20.8222,1606
20.8250,1612
20.8278,1598
20.8306,1602
20.8333,1603
20.8361,1610
20.8389,1615
20.8417,1624
20.8444,1620
20.8472,1613
20.8500,1606
20.8528,1604
20.8556,1614
20.8583,1611
20.8611,1617
20.8639,1621
20.8667,1615
20.8694,1614
20.8722,1611
20.8750,1619
20.8778,1622
20.8806,1635
20.8833,1646
20.8861,1637
20.8889,1637
20.8917,1633
20.8944,1632
20.8972,1638
20.9000,1643
20.9028,1637
20.9056,1643
20.9083,1644
20.9111,1642
20.9139,1648
20.9167,1656
20.9194,1658
20.9222,1662
20.9250,1669
20.9278,1666
20.9306,1660
20.9333,1659
20.9361,1673
20.9389,1677
20.9417,1689
20.9444,1693
20.9472,1689
20.9500,1686
20.9528,1682
20.9556,1667
20.9583,1657
20.9611,1655
20.9639,1643
20.9667,1639
20.9694,1638
20.9722,1637
20.9750,1645
20.9778,1656
20.9806,1659
20.9833,1664
20.9861,1666
20.9889,1661
20.9917,1665
20.9944,1672
20.9972,1679
21.0000,1683
21.0028,1679
21.0056,1667
21.0083,1654
21.0111,1654
21.0139,1659
21.0167,1654
21.0194,1651
21.0222,1639
21.0250,1640
21.0278,1633
21.0306,1631
21.0333,1635
21.0361,1642
21.0389,1648
21.0417,1657
21.0444,1654
21.0472,1648
21.0500,1643
21.0528,1641
21.0556,1640
21.0583,1643
21.0611,1645
21.0639,1650
21.0667,1646
21.0694,1636
21.0722,1639
21.0750,1638
21.0778,1641
21.0806,1648
21.0833,1647
21.0861,1644
21.0889,1644
21.0917,1633
21.0944,1640
21.0972,1631
21.1000,1634
21.1028,1628
21.1056,1632
21.1083,1629
21.1111,1629
21.1139,1635
21.1167,1641
21.1194,1642
21.1222,1647
21.1250,1645
21.1278,1633
21.1306,1636
21.1333,1634
21.1361,1636
21.1389,1642
21.1417,1640
21.1444,1646
21.1472,1643
21.1500,1648
21.1528,1648
21.1556,1646
21.1583,1652
21.1611,1664
21.1639,1667
21.1667,1664
21.1694,1667
21.1722,1679
21.1750,1688
21.1778,1718
21.1806,1740
21.1833,1761
21.1861,1782
21.1889,1791
21.1917,1808
21.1944,1811
21.1972,1795
21.2000,1807
21.2028,1818
21.2056,1830
21.2083,1837
21.2111,1840
21.2139,1849
21.2167,1868
21.2194,1894
21.2222,1899
21.2250,1874
21.2278,1851
21.2306,1817
21.2333,1796
21.2361,1780
21.2389,1763
21.2417,1718
21.2444,1681
21.2472,1655
21.2500,1647
21.2528,1645
21.2556,1647
21.2583,1645
21.2611,1628
21.2639,1622
21.2667,1605
21.2694,1586
21.2722,1578
21.2750,1578
21.2778,1575
21.2806,1588
21.2833,1590
21.2861,1602
21.2889,1603
21.2917,1593
21.2944,1585
21.2972,1585
21.3000,1580
21.3028,1576
21.3056,1546
21.3083,1508
21.3111,1479
21.3139,1439
21.3167,1444
21.3194,1520
21.3222,1664
21.3250,1825
21.3278,2019
21.3306,2243
21.3333,2442
21.3361,2597
21.3389,2728
21.3417,2840
21.3444,2943
21.3472,3054
21.3500,3023
21.3528,2803
21.3556,2477
21.3583,2113
21.3611,1805
21.3639,1581
21.3667,1480
21.3694,1481
21.3722,1515
21.3750,1558
21.3778,1592
21.3806,1592
21.3833,1580
21.3861,1557
21.3889,1542
21.3917,1534
21.3944,1538
21.3972,1561
21.4000,1565
21.4028,1569
21.4056,1560
21.4083,1547
21.4111,1532
21.4139,1540
21.4167,1552
21.4194,1562
21.4222,1564
21.4250,1560
21.4278,1552
21.4306,1558
21.4333,1576
21.4361,1561
21.4389,1581
21.4417,1582
21.4444,1581
21.4472,1577
21.4500,1571
21.4528,1581
21.4556,1591
21.4583,1602
21.4611,1610
21.4639,1606
21.4667,1616
21.4694,1622
21.4722,1621
21.4750,1626
21.4778,1628
21.4806,1629
21.4833,1635
21.4861,1629
21.4889,1627
21.4917,1622
21.4944,1631
21.4972,1640
21.5000,1639
21.5028,1638
21.5056,1645
21.5083,1645
21.5111,1649
21.5139,1664
21.5167,1686
21.5194,1695
21.5222,1708
21.5250,1702
21.5278,1710
21.5306,1714
21.5333,1709
21.5361,1725
21.5389,1725
21.5417,1729
21.5444,1742
21.5472,1741
21.5500,1737
21.5528,1756
21.5556,1859
21.5583,1863
21.5611,1852
21.5639,1840
21.5667,1834
21.5694,1816
21.5722,1802
21.5750,1787
21.5778,1776
21.5806,1766
21.5833,1749
21.5861,1730
21.5889,1716
21.5917,1694
21.5944,1670
21.5972,1651
21.6000,1650
21.6028,1627
21.6056,1616
21.6083,1591
21.6111,1594
21.6139,1587
21.6167,1586
21.6194,1599
21.6222,1597
21.6250,1596
21.6278,1590
21.6306,1596
21.6333,1590
21.6361,1608
21.6389,1608
21.6417,1606
21.6444,1609
21.6472,1602
21.6500,1597
21.6528,1595
21.6556,1589
21.6583,1586
21.6611,1594
21.6639,1590
21.6667,1593
21.6694,1593
21.6722,1595
21.6750,1603
21.6778,1607
21.6806,1612
21.6833,1606
21.6861,1604
21.6889,1600
21.6917,1608
21.6944,1616
21.6972,1619
21.7000,1629
21.7028,1635
21.7056,1631
21.7083,1627
21.7111,1618
21.7139,1625
21.7167,1622
21.7194,1634
21.7222,1633
21.7250,1632
21.7278,1633
21.7306,1623
21.7333,1628
21.7361,1630
21.7389,1621
21.7417,1629
21.7444,1638
21.7472,1641
21.7500,1637
21.7528,1628
21.7556,1637
21.7583,1645
21.7611,1649
21.7639,1647
21.7667,1641
21.7694,1647
21.7722,1638
21.7750,1636
21.7778,1640
21.7806,1647
21.7833,1658
21.7861,1656
21.7889,1656
21.7917,1642
21.7944,1647
21.7972,1648
21.8000,1643
21.8028,1641
21.8056,1635
21.8083,1628
21.8111,1639
21.8139,1637
21.8167,1650
21.8194,1655
21.8222,1665
21.8250,1656
21.8278,1655
21.8306,1645
21.8333,1637
21.8361,1627
21.8389,1634
21.8417,1631
21.8444,1641
21.8472,1632
21.8500,1628
21.8528,1624
21.8556,1621
21.8583,1624
21.8611,1616
21.8639,1615
21.8667,1612
21.8694,1613
21.8722,1617
21.8750,1617
21.8778,1628
21.8806,1630
21.8833,1630
21.8861,1645
21.8889,1641
21.8917,1649
21.8944,1650
21.8972,1656
21.9000,1654
21.9028,1652
21.9056,1659
21.9083,1655
21.9111,1659
21.9139,1659
21.9167,1653
21.9194,1655
21.9222,1662
21.9250,1676
21.9278,1675
21.9306,1670
21.9333,1662
21.9361,1661
21.9389,1664
21.9417,1661
21.9444,1666
21.9472,1663
21.9500,1664
21.9528,1667
21.9556,1672
21.9583,1676
21.9611,1683
21.9639,1683
21.9667,1683
21.9694,1691
21.9722,1694
21.9750,1701
21.9778,1711
21.9806,1728
21.9833,1734
21.9861,1741
21.9889,1757
21.9917,1772
21.9944,1793
21.9972,1795
22.0000,1800
22.0028,1813
22.0056,1823
22.0083,1838
22.0111,1838
22.0139,1869
22.0167,1882
22.0194,1906
22.0222,1917
22.0250,1913
22.0278,1888
22.0306,1859
22.0333,1833
22.0361,1799
22.0389,1774
22.0417,1744
22.0444,1728
22.0472,1702
22.0500,1684
22.0528,1678
22.0556,1681
22.0583,1678
22.0611,1678
22.0639,1666
22.0667,1647
22.0694,1634
22.0722,1633
22.0750,1624
22.0778,1622
22.0806,1620
22.0833,1629
22.0861,1621
22.0889,1624
22.0917,1621
22.0944,1629
22.0972,1638
22.1000,1625
22.1028,1624
22.1056,1600
22.1083,1572
22.1111,1534
22.1139,1496
22.1167,1500
22.1194,1562
22.1222,1681
22.1250,1826
22.1278,2011
22.1306,2215
22.1333,2421
22.1361,2598
22.1389,2749
22.1417,2877
22.1444,3002
22.1472,3117
22.1500,3094
22.1528,2887
22.1556,2567
22.1583,2217
22.1611,1904
22.1639,1656
22.1667,1514
22.1694,1463
22.1722,1469
22.1750,1515
22.1778,1570
22.1806,1594
22.1833,1615
22.1861,1600
22.1889,1589
22.1917,1571
22.1944,1570
22.1972,1587
22.2000,1591
22.2028,1589
22.2056,1594
22.2083,1571
22.2111,1573
22.2139,1576
22.2167,1591
22.2194,1596
22.2222,1594
22.2250,1592
22.2278,1582
22.2306,1586
22.2333,1594
22.2361,1604
22.2389,1618
22.2417,1615
22.2444,1609
22.2472,1605
22.2500,1599
22.2528,1603
22.2556,1613
22.2583,1616
22.2611,1617
22.2639,1627
22.2667,1619
22.2694,1617
22.2722,1618
22.2750,1626
22.2778,1637
22.2806,1641
22.2833,1648
22.2861,1642
22.2889,1639
22.2917,1645
22.2944,1653
22.2972,1664
22.3000,1676
22.3028,1679
22.3056,1679
22.3083,1677
22.3111,1677
22.3139,1679
22.3167,1695
22.3194,1698
22.3222,1705
22.3250,1706
22.3278,1703
22.3306,1706
22.3333,1703
22.3361,1721
22.3389,1735
22.3417,1741
22.3444,1758
22.3472,1750
22.3500,1752
22.3528,1758
22.3556,1875
22.3583,1869
22.3611,1876
22.3639,1852
22.3667,1837
22.3694,1822
22.3722,1799
22.3750,1782
22.3778,1762
22.3806,1744
22.3833,1736
22.3861,1718
22.3889,1693
22.3917,1679
22.3944,1663
22.3972,1653
22.4000,1646
22.4028,1648
22.4056,1632
22.4083,1631
22.4111,1621
22.4139,1611
22.4167,1611
22.4194,1607
22.4222,1597
22.4250,1597
22.4278,1594
22.4306,1590
22.4333,1585
22.4361,1581
22.4389,1581
22.4417,1582
22.4444,1580
22.4472,1578
22.4500,1577
22.4528,1577
22.4556,1580
22.4583,1583
22.4611,1586
22.4639,1589
22.4667,1587
22.4694,1583
22.4722,1598
22.4750,1605
22.4778,1619
22.4806,1628
22.4833,1632
22.4861,1631
22.4889,1630
22.4917,1626
22.4944,1628
22.4972,1629
22.5000,1634
22.5028,1632
22.5056,1634
22.5083,1642
22.5111,1635
22.5139,1643
22.5167,1644
22.5194,1644
22.5222,1649
22.5250,1651
22.5278,1645
22.5306,1656
22.5333,1650
22.5361,1661
22.5389,1652
22.5417,1664
22.5444,1668
22.5472,1669
22.5500,1671
22.5528,1673
22.5556,1667
22.5583,1658
22.5611,1659
22.5639,1654
22.5667,1645
22.5694,1652
22.5722,1655
22.5750,1652
22.5778,1652
22.5806,1660
22.5833,1665
22.5861,1650
22.5889,1649
22.5917,1645
22.5944,1646
22.5972,1652
22.6000,1646
22.6028,1647
22.6056,1641
22.6083,1637
22.6111,1637
22.6139,1645
22.6167,1644
22.6194,1646
22.6222,1645
22.6250,1647
22.6278,1649
22.6306,1647
22.6333,1641
22.6361,1639
22.6389,1641
22.6417,1634
22.6444,1636
22.6472,1641
22.6500,1637
22.6528,1640
22.6556,1643
22.6583,1647
22.6611,1647
22.6639,1647
22.6667,1649
22.6694,1633
22.6722,1633
22.6750,1631
22.6778,1627
22.6806,1637
22.6833,1634
22.6861,1641
22.6889,1639
22.6917,1643
22.6944,1644
22.6972,1639
22.7000,1643
22.7028,1643
22.7056,1635
22.7083,1638
22.7111,1636
22.7139,1644
22.7167,1645
22.7194,1646
22.7222,1656
22.7250,1653
22.7278,1657
22.7306,1660
22.7333,1654
22.7361,1663
22.7389,1657
22.7417,1660
22.7444,1655
22.7472,1661
22.7500,1665
22.7528,1665
22.7556,1661
22.7583,1659
22.7611,1660
22.7639,1663
22.7667,1673
22.7694,1666
22.7722,1666
22.7750,1680
22.7778,1685
22.7806,1704
22.7833,1733
22.7861,1751
22.7889,1768
22.7917,1784
22.7944,1797
22.7972,1796
22.8000,1799
22.8028,1791
22.8056,1807
22.8083,1818
22.8111,1827
22.8139,1848
22.8167,1860
22.8194,1877
22.8222,1887
22.8250,1892
22.8278,1876
22.8306,1839
22.8333,1804
22.8361,1778
22.8389,1746
22.8417,1727
22.8444,1720
22.8472,1705
22.8500,1675
22.8528,1653
22.8556,1644
22.8583,1634
22.8611,1621
22.8639,1627
22.8667,1615
22.8694,1604
22.8722,1604
22.8750,1599
22.8778,1594
22.8806,1598
22.8833,1601
22.8861,1608
22.8889,1599
22.8917,1609
22.8944,1609
22.8972,1611
22.9000,1608
22.9028,1603
22.9056,1585
22.9083,1559
22.9111,1529
22.9139,1497
22.9167,1476
22.9194,1505
22.9222,1602
22.9250,1744
22.9278,1920
22.9306,2127
22.9333,2350
22.9361,2544
22.9389,2717
22.9417,2824
22.9444,2917
22.9472,3025
22.9500,3078
22.9528,2968
22.9556,2661
22.9583,2305
22.9611,1968
22.9639,1679
22.9667,1511
22.9694,1460
22.9722,1489
22.9750,1538
22.9778,1592
22.9806,1614
22.9833,1624
22.9861,1610
22.9889,1594
22.9917,1567
22.9944,1561
22.9972,1570
23.0000,1576
23.0028,1579
23.0056,1578
23.0083,1576
23.0111,1574
23.0139,1572
23.0167,1580
23.0194,1598
23.0222,1604
23.0250,1597
23.0278,1588
23.0306,1579
23.0333,1576
23.0361,1577
23.0389,1588
23.0417,1600
23.0444,1607
23.0472,1599
23.0500,1593
23.0528,1598
23.0556,1599
23.0583,1609
23.0611,1631
23.0639,1625
23.0667,1620
23.0694,1612
23.0722,1618
23.0750,1613
23.0778,1627
23.0806,1641
23.0833,1639
23.0861,1638
23.0889,1633
23.0917,1641
23.0944,1636
23.0972,1642
23.1000,1659
23.1028,1672
23.1056,1663
23.1083,1660
23.1111,1656
23.1139,1661
23.1167,1676
23.1194,1692
23.1222,1701
23.1250,1707
23.1278,1706
23.1306,1707
23.1333,1713
23.1361,1721
23.1389,1728
23.1417,1741
23.1444,1760
23.1472,1761
23.1500,1766
23.1528,1768
23.1556,1885
23.1583,1889
23.1611,1872
23.1639,1876
23.1667,1850
23.1694,1821
23.1722,1811
23.1750,1782
23.1778,1772
23.1806,1762
23.1833,1744
23.1861,1721
23.1889,1712
23.1917,1685
23.1944,1662
23.1972,1647
23.2000,1647
23.2028,1628
23.2056,1620
23.2083,1607
23.2111,1607
23.2139,1593
23.2167,1596
23.2194,1605
23.2222,1601
23.2250,1601
23.2278,1601
23.2306,1589
23.2333,1590
23.2361,1588
23.2389,1587
23.2417,1592
23.2444,1591
23.2472,1595
23.2500,1601
23.2528,1598
23.2556,1596
23.2583,1586
23.2611,1594
23.2639,1604
23.2667,1593
23.2694,1585
23.2722,1580
23.2750,1584
23.2778,1588
23.2806,1601
23.2833,1601
23.2861,1611
23.2889,1602
23.2917,1602
23.2944,1601
23.2972,1603
23.3000,1618
23.3028,1618
23.3056,1623
23.3083,1627
23.3111,1633
23.3139,1630
23.3167,1634
23.3194,1653
23.3222,1664
23.3250,1665
23.3278,1679
23.3306,1670
23.3333,1671
23.3361,1671
23.3389,1677
23.3417,1681
23.3444,1675
23.3472,1670
23.3500,1671
23.3528,1665
23.3556,1671
23.3583,1658
23.3611,1667
23.3639,1668
23.3667,1664
23.3694,1664
23.3722,1673
23.3750,1662
23.3778,1653
23.3806,1660
23.3833,1660
23.3861,1660
23.3889,1651
23.3917,1655
23.3944,1649
23.3972,1647
23.4000,1645
23.4028,1648
23.4056,1650
23.4083,1639
23.4111,1636
23.4139,1629
23.4167,1641
23.4194,1647
23.4222,1637
23.4250,1634
23.4278,1635
23.4306,1628
23.4333,1627
23.4361,1625
23.4389,1623
23.4417,1631
23.4444,1630
23.4472,1625
23.4500,1632
23.4528,1627
23.4556,1634
23.4583,1639
23.4611,1649
23.4639,1649
23.4667,1650
23.4694,1658
23.4722,1659
23.4750,1663
23.4778,1665
23.4806,1671
23.4833,1679
23.4861,1679
23.4889,1674
23.4917,1668
23.4944,1675
23.4972,1681
23.5000,1684
23.5028,1690
23.5056,1702
23.5083,1702
23.5111,1703
23.5139,1703
23.5167,1703
23.5194,1714
23.5222,1720
23.5250,1730
23.5278,1737
23.5306,1744
23.5333,1738
23.5361,1735
23.5389,1731
23.5417,1730
23.5444,1734
23.5472,1743
23.5500,1744
23.5528,1749
23.5556,1755
23.5583,1758
23.5611,1755
23.5639,1750
23.5667,1749
23.5694,1751
23.5722,1750
23.5750,1752
23.5778,1770
23.5806,1785
23.5833,1807
23.5861,1837
23.5889,1855
23.5917,1863
23.5944,1882
23.5972,1885
23.6000,1892
23.6028,1884
23.6056,1875
23.6083,1881
23.6111,1897
23.6139,1907
23.6167,1928
23.6194,1935
23.6222,1951
23.6250,1976
23.6278,1989
23.6306,1984
23.6333,1966
23.6361,1931
23.6389,1903
23.6417,1876
23.6444,1848
23.6472,1826
23.6500,1809
23.6528,1783
23.6556,1766
23.6583,1756
23.6611,1758
23.6639,1756
23.6667,1744
23.6694,1737
23.6722,1729
23.6750,1727
23.6778,1709
23.6806,1718
23.6833,1717
23.6861,1703
23.6889,1703
23.6917,1699
23.6944,1702
23.6972,1702
23.7000,1699
23.7028,1698
23.7056,1698
23.7083,1687
23.7111,1651
23.7139,1635
23.7167,1607
23.7194,1560
23.7222,1544
23.7250,1593
23.7278,1704
23.7306,1853
23.7333,2037
23.7361,2252
23.7389,2469
23.7417,2660
23.7444,2809
23.7472,2897
23.7500,3001
23.7528,3109
23.7556,3126
23.7583,2961
23.7611,2658
23.7639,2303
23.7667,1974
23.7694,1730
23.7722,1594
23.7750,1564
23.7778,1603
23.7806,1651
23.7833,1693
23.7861,1724
23.7889,1716
23.7917,1703
23.7944,1675
23.7972,1655
23.8000,1650
23.8028,1647
23.8056,1660
23.8083,1666
23.8111,1654
23.8139,1652
23.8167,1649
23.8194,1645
23.8222,1658
23.8250,1681
23.8278,1684
23.8306,1681
23.8333,1668
23.8361,1665
23.8389,1663
23.8417,1670
23.8444,1673
23.8472,1688
23.8500,1700
23.8528,1705
23.8556,1701
23.8583,1700
23.8611,1701
23.8639,1683
23.8667,1681
23.8694,1682
23.8722,1684
23.8750,1683
23.8778,1711
23.8806,1730
23.8833,1753
23.8861,1772
23.8889,1787
23.8917,1794
23.8944,1792
23.8972,1785
23.9000,1781
23.9028,1787
23.9056,1799
23.9083,1810
23.9111,1824
23.9139,1820
23.9167,1826
23.9194,1830
23.9222,1844
23.9250,1846
23.9278,1855
23.9306,1861
23.9333,1862
23.9361,1862
23.9389,1863
23.9417,1876
23.9444,1886
23.9472,1892
23.9500,1888
23.9528,1896
23.9556,1907
23.9583,1907
23.9611,1972
23.9639,1977
23.9667,1969
23.9694,1952
23.9722,1936
23.9750,1916
23.9778,1900
23.9806,1879
23.9833,1868
23.9861,1838
23.9889,1814
23.9917,1799
23.9944,1777
23.9972,1758
24.0000,1745
24.0028,1740
24.0056,1733
24.0083,1731
24.0111,1728
24.0139,1720
24.0167,1700
24.0194,1689
24.0222,1686
24.0250,1687
24.0278,1692
24.0306,1688
24.0333,1687
24.0361,1684
24.0389,1698
24.0417,1695
24.0444,1682
24.0472,1683
24.0500,1667
24.0528,1658
24.0556,1648
24.0583,1642
24.0611,1639
24.0639,1638
24.0667,1655
24.0694,1655
24.0722,1656
24.0750,1646
24.0778,1655
24.0806,1648
24.0833,1646
24.0861,1657
24.0889,1660
24.0917,1648
24.0944,1653
24.0972,1655
24.1000,1655
24.1028,1660
24.1056,1664
24.1083,1666
24.1111,1660
24.1139,1651
24.1167,1644
24.1194,1655
24.1222,1658
24.1250,1672
24.1278,1682
24.1306,1689
24.1333,1686
24.1361,1668
24.1389,1667
24.1417,1668
24.1444,1671
24.1472,1677
24.1500,1680
24.1528,1678
24.1556,1677
24.1583,1675
24.1611,1685
24.1639,1689
24.1667,1687
24.1694,1682
24.1722,1674
24.1750,1660
24.1778,1662
24.1806,1663
24.1833,1667
24.1861,1682
24.1889,1683
24.1917,1679
24.1944,1662
24.1972,1654
24.2000,1641
24.2028,1640
24.2056,1650
24.2083,1657
24.2111,1654
24.2139,1662
24.2167,1657
24.2194,1649
24.2222,1657
24.2250,1658
24.2278,1653
24.2306,1654
24.2333,1637
24.2361,1645
24.2389,1645
24.2417,1649
24.2444,1650
24.2472,1646
24.2500,1638
24.2528,1635
24.2556,1630
24.2583,1635
24.2611,1633
24.2639,1644
24.2667,1651
24.2694,1654
24.2722,1649
24.2750,1641
24.2778,1640
24.2806,1644
24.2833,1650
24.2861,1641
24.2889,1647
24.2917,1643
24.2944,1650
24.2972,1643
24.3000,1652
24.3028,1641
24.3056,1646
24.3083,1643
24.3111,1644
24.3139,1642
24.3167,1643
24.3194,1646
24.3222,1649
24.3250,1661
24.3278,1665
24.3306,1666
24.3333,1670
24.3361,1674
24.3389,1669
24.3417,1666
24.3444,1664
24.3472,1666
24.3500,1671
24.3528,1671
24.3556,1669
24.3583,1677
24.3611,1678
24.3639,1679
24.3667,1690
24.3694,1711
24.3722,1725
24.3750,1744
24.3778,1746
24.3806,1762
24.3833,1773
24.3861,1802
24.3889,1815
24.3917,1822
24.3944,1823
24.3972,1826
24.4000,1838
24.4028,1847
24.4056,1847
24.4083,1864
24.4111,1879
24.4139,1892
24.4167,1899
24.4194,1899
24.4222,1882
24.4250,1857
24.4278,1837
24.4306,1805
24.4333,1787
24.4361,1758
24.4389,1733
24.4417,1722
24.4444,1701
24.4472,1691
24.4500,1680
24.4528,1677
24.4556,1667
24.4583,1664
24.4611,1652
24.4639,1644
24.4667,1641
24.4694,1628
24.4722,1623
24.4750,1610
24.4778,1611
24.4806,1615
24.4833,1617
24.4861,1628
24.4889,1628
24.4917,1628
24.4944,1630
24.4972,1615
24.5000,1598
24.5028,1569
24.5056,1544
24.5083,1513
24.5111,1488
24.5139,1522
24.5167,1618
24.5194,1756
24.5222,1923
24.5250,2117
24.5278,2332
24.5306,2515
24.5333,2673
24.5361,2799
24.5389,2922
24.5417,3023
24.5444,3073
24.5472,2943
24.5500,2648
24.5528,2298
24.5556,1976
24.5583,1713
24.5611,1545
24.5639,1486
24.5667,1492
24.5694,1538
24.5722,1575
24.5750,1616
24.5778,1627
24.5806,1625
24.5833,1599
24.5861,1589
24.5889,1574
24.5917,1580
24.5944,1579
24.5972,1574
24.6000,1574
24.6028,1565
24.6056,1561
24.6083,1563
24.6111,1574
24.6139,1585
24.6167,1590
24.6194,1592
24.6222,1586
24.6250,1586
24.6278,1589
24.6306,1592
24.6333,1601
24.6361,1608
24.6389,1609
24.6417,1608
24.6444,1606
24.6472,1612
24.6500,1616
24.6528,1625
24.6556,1635
24.6583,1628
24.6611,1621
24.6639,1617
24.6667,1618
24.6694,1613
24.6722,1627
24.6750,1635
24.6778,1644
24.6806,1643
24.6833,1644
24.6861,1641
24.6889,1651
24.6917,1660
24.6944,1670
24.6972,1671
24.7000,1668
24.7028,1666
24.7056,1657
24.7083,1673
24.7111,1677
24.7139,1699
24.7167,1698
24.7194,1703
24.7222,1702
24.7250,1700
24.7278,1704
24.7306,1709
24.7333,1725
24.7361,1734
24.7389,1737
24.7417,1734
24.7444,1735
24.7472,1739
24.7500,1880
24.7528,1875
24.7556,1872
24.7583,1857
24.7611,1855
24.7639,1843
24.7667,1822
24.7694,1799
24.7722,1775
24.7750,1755
24.7778,1732
24.7806,1718
24.7833,1698
24.7861,1668
24.7889,1654
24.7917,1640
24.7944,1639
24.7972,1638
24.8000,1626
24.8028,1609
24.8056,1597
24.8083,1592
24.8111,1576
24.8139,1579
24.8167,1573
24.8194,1569
24.8222,1564
24.8250,1562
24.8278,1560
24.8306,1565
24.8333,1560
24.8361,1570
24.8389,1566
24.8417,1557
24.8444,1550
24.8472,1558
24.8500,1551
24.8528,1559
24.8556,1563
24.8583,1562
24.8611,1573
24.8639,1574
24.8667,1570
24.8694,1572
24.8722,1584
24.8750,1580
24.8778,1597
24.8806,1599
24.8833,1594
24.8861,1601
24.8889,1597
24.8917,1600
24.8944,1606
24.8972,1605
24.9000,1598
24.9028,1589
24.9056,1592
24.9083,1593
24.9111,1596
24.9139,1602
24.9167,1608
24.9194,1617
24.9222,1612
24.9250,1624
24.9278,1619
24.9306,1626
24.9333,1613
24.9361,1615
24.9389,1625
24.9417,1623
24.9444,1617
24.9472,1610
24.9500,1604
24.9528,1604
24.9556,1606
24.9583,1607
24.9611,1608
24.9639,1613
24.9667,1603
24.9694,1610
24.9722,1614
24.9750,1610
24.9778,1619
24.9806,1609
24.9833,1598
24.9861,1587
24.9889,1590
24.9917,1587
24.9944,1587
24.9972,1589
25.0000,1579
25.0028,1586
25.0056,1595
25.0083,1582
25.0111,1585
25.0139,1585
25.0167,1572
25.0194,1571
25.0222,1563
25.0250,1552
25.0278,1559
25.0306,1557
25.0333,1565
25.0361,1572
25.0389,1580
25.0417,1576
25.0444,1580
25.0472,1584
25.0500,1591
25.0528,1594
25.0556,1589
25.0583,1582
25.0611,1577
25.0639,1568
25.0667,1573
25.0694,1573
25.0722,1584
25.0750,1582
25.0778,1594
25.0806,1599
25.0833,1595
25.0861,1597
25.0889,1593
25.0917,1597
25.0944,1587
25.0972,1589
25.1000,1586
25.1028,1589
25.1056,1589
25.1083,1598
25.1111,1599
25.1139,1598
25.1167,1603
25.1194,1609
25.1222,1610
25.1250,1597
25.1278,1596
25.1306,1597
25.1333,1593
25.1361,1605
25.1389,1615
25.1417,1616
25.1444,1628
25.1472,1635
25.1500,1636
25.1528,1649
25.1556,1675
25.1583,1695
25.1611,1716
25.1639,1721
25.1667,1733
25.1694,1760
25.1722,1749
25.1750,1750
25.1778,1756
25.1806,1751
25.1833,1780
25.1861,1786
25.1889,1782
25.1917,1789
25.1944,1818
25.1972,1830
25.2000,1846
25.2028,1839
25.2056,1820
25.2083,1789
25.2111,1760
25.2139,1744
25.2167,1717
25.2194,1688
25.2222,1663
25.2250,1624
25.2278,1618
25.2306,1597
25.2333,1604
25.2361,1596
25.2389,1595
25.2417,1597
25.2444,1589
25.2472,1584
25.2500,1573
25.2528,1566
25.2556,1574
25.2583,1558
25.2611,1552
25.2639,1556
25.2667,1555
25.2694,1555
25.2722,1556
25.2750,1569
25.2778,1575
25.2806,1567
25.2833,1542
25.2861,1527
25.2889,1498
25.2917,1449
25.2944,1416
25.2972,1452
25.3000,1579
25.3028,1756
25.3056,1937
25.3083,2142
25.3111,2360
25.3139,2543
25.3167,2696
25.3194,2819
25.3222,2930
25.3250,3029
25.3278,2993
25.3306,2796
25.3333,2462
25.3361,2109
25.3389,1804
25.3417,1562
25.3444,1442
25.3472,1424
25.3500,1465
25.3528,1509
25.3556,1537
25.3583,1554
25.3611,1532
25.3639,1508
25.3667,1484
25.3694,1461
25.3722,1460
25.3750,1467
25.3778,1469
25.3806,1474
25.3833,1465
25.3861,1458
25.3889,1459
25.3917,1470
25.3944,1490
25.3972,1512
25.4000,1521
25.4028,1520
25.4056,1517
25.4083,1516
25.4111,1523
25.4139,1531
25.4167,1551
25.4194,1557
25.4222,1553
25.4250,1543
25.4278,1549
25.4306,1572
25.4333,1582
25.4361,1596
25.4389,1613
25.4417,1618
25.4444,1610
25.4472,1610
25.4500,1609
25.4528,1626
25.4556,1644
25.4583,1643
25.4611,1647
25.4639,1634
25.4667,1623
25.4694,1625
25.4722,1631
25.4750,1638
25.4778,1642
25.4806,1654
25.4833,1657
25.4861,1648
25.4889,1640
25.4917,1644
25.4944,1652
25.4972,1673
25.5000,1672
25.5028,1664
25.5056,1659
25.5083,1659
25.5111,1662
25.5139,1677
25.5167,1695
25.5194,1712
25.5222,1724
25.5250,1732
25.5278,1735
25.5306,1737
25.5333,1783
25.5361,1782
25.5389,1779
25.5417,1757
25.5444,1728
25.5472,1712
25.5500,1683
25.5528,1671
25.5556,1668
25.5583,1645
25.5611,1634
25.5639,1619
25.5667,1594
25.5694,1586
25.5722,1576
25.5750,1577
25.5778,1557
25.5806,1555
25.5833,1545
25.5861,1533
25.5889,1523
25.5917,1515
25.5944,1513
25.5972,1527
25.6000,1531
25.6028,1534
25.6056,1533
25.6083,1535
25.6111,1521
25.6139,1509
25.6167,1501
25.6194,1509
25.6222,1522
25.6250,1514
25.6278,1519
25.6306,1504
25.6333,1502
25.6361,1514
25.6389,1524
25.6417,1521
25.6444,1512
25.6472,1499
25.6500,1494
25.6528,1480
25.6556,1482
25.6583,1488
25.6611,1484
25.6639,1481
25.6667,1492
25.6694,1516
25.6722,1516
25.6750,1542
25.6778,1548
25.6806,1551
25.6833,1537
25.6861,1524
25.6889,1521
25.6917,1529
25.6944,1544
25.6972,1555
25.7000,1558
25.7028,1561
25.7056,1559
25.7083,1557
25.7111,1562
25.7139,1559
25.7167,1566
25.7194,1566
25.7222,1576
25.7250,1568
25.7278,1560
25.7306,1568
25.7333,1571
25.7361,1561
25.7389,1556
25.7417,1558
25.7444,1547
25.7472,1553
25.7500,1541
25.7528,1542
25.7556,1550
25.7583,1541
25.7611,1535
25.7639,1539
25.7667,1528
25.7694,1536
25.7722,1536
25.7750,1534
25.7778,1539
25.7806,1542
25.7833,1549
25.7861,1546
25.7889,1550
25.7917,1542
25.7944,1541
25.7972,1536
25.8000,1529
25.8028,1537
25.8056,1530
25.8083,1536
25.8111,1541
25.8139,1538
25.8167,1540
25.8194,1534
25.8222,1545
25.8250,1536
25.8278,1535
25.8306,1538
25.8333,1539
25.8361,1542
25.8389,1549
25.8417,1550
25.8444,1548
25.8472,1545
25.8500,1540
25.8528,1541
25.8556,1547
25.8583,1541
25.8611,1544
25.8639,1530
25.8667,1533
25.8694,1544
25.8722,1540
25.8750,1535
25.8778,1521
25.8806,1515
25.8833,1509
25.8861,1514
25.8889,1533
25.8917,1547
25.8944,1560
25.8972,1565
25.9000,1559
25.9028,1570
25.9056,1594
25.9083,1613
25.9111,1627
25.9139,1644
25.9167,1658
25.9194,1666
25.9222,1672
25.9250,1674
25.9278,1681
25.9306,1690
25.9333,1707
25.9361,1715
25.9389,1715
25.9417,1719
25.9444,1739
25.9472,1761
25.9500,1780
25.9528,1780
25.9556,1764
25.9583,1725
25.9611,1692
25.9639,1672
25.9667,1645
25.9694,1617
25.9722,1586
25.9750,1560
25.9778,1539
25.9806,1525
25.9833,1514
25.9861,1516
25.9889,1517
25.9917,1510
25.9944,1504
25.9972,1496
26.0000,1501
26.0028,1501
26.0056,1500
26.0083,1496
26.0111,1491
26.0139,1493
26.0167,1511
26.0194,1516
26.0222,1519
26.0250,1515
26.0278,1517
26.0306,1508
26.0333,1488
26.0361,1463
26.0389,1428
26.0417,1399
26.0444,1367
26.0472,1391
26.0500,1480
26.0528,1628
26.0556,1814
26.0583,2015
26.0611,2235
26.0639,2426
26.0667,2574
26.0694,2689
26.0722,2796
26.0750,2893
26.0778,2923
26.0806,2774
26.0833,2499
26.0861,2159
26.0889,1841
26.0917,1580
26.0944,1421
26.0972,1375
26.1000,1400
26.1028,1444
26.1056,1482
26.1083,1498
26.1111,1487
26.1139,1465
26.1167,1444
26.1194,1428
26.1222,1421
26.1250,1426
26.1278,1422
26.1306,1424
26.1333,1427
26.1361,1418
26.1389,1420
26.1417,1426
26.1444,1430
26.1472,1438
26.1500,1445
26.1528,1435
26.1556,1437
26.1583,1425
26.1611,1438
26.1639,1459
26.1667,1472
26.1694,1468
26.1722,1464
26.1750,1458
26.1778,1452
26.1806,1447
26.1833,1455
26.1861,1468
26.1889,1476
26.1917,1486
26.1944,1486
26.1972,1496
26.2000,1497
26.2028,1496
26.2056,1505
26.2083,1502
26.2111,1510
26.2139,1506
26.2167,1505
26.2194,1503
26.2222,1511
26.2250,1516
26.2278,1528
26.2306,1535
26.2333,1525
26.2361,1527
26.2389,1532
26.2417,1531
26.2444,1541
26.2472,1550
26.2500,1561
26.2528,1575
26.2556,1574
26.2583,1587
26.2611,1581
26.2639,1581
26.2667,1593
26.2694,1608
26.2722,1618
26.2750,1613
26.2778,1617
26.2806,1624
26.2833,1736
26.2861,1741
26.2889,1736
26.2917,1725
26.2944,1705
26.2972,1682
26.3000,1671
26.3028,1655
26.3056,1646
26.3083,1630
26.3111,1611
26.3139,1593
26.3167,1569
26.3194,1544
26.3222,1530
26.3250,1518
26.3278,1507
26.3306,1507
26.3333,1497
26.3361,1483
26.3389,1474
26.3417,1470
26.3444,1462
26.3472,1460
26.3500,1460
26.3528,1450
26.3556,1449
26.3583,1447
26.3611,1434
26.3639,1440
26.3667,1448
26.3694,1436
26.3722,1439
26.3750,1441
26.3778,1433
26.3806,1428
26.3833,1412
26.3861,1420
26.3889,1426
26.3917,1429
26.3944,1427
26.3972,1433
26.4000,1423
26.4028,1419
26.4056,1426
