Tiempo(s),Valor_ADC
0.0028,1551
0.0056,1578
0.0083,1615
0.0111,1627
0.0139,1639
0.0167,1647
0.0194,1646
0.0222,1655
0.0250,1651
0.0278,1647
0.0306,1652
0.0333,1649
0.0361,1660
0.0389,1678
0.0417,1686
0.0444,1708
0.0472,1713
0.0500,1708
0.0528,1700
0.0556,1683
0.0583,1659
0.0611,1613
0.0639,1590
0.0667,1579
0.0694,1562
0.0722,1558
0.0750,1538
0.0778,1507
0.0806,1476
0.0833,1473
0.0861,1453
0.0889,1444
0.0917,1452
0.0944,1445
0.0972,1459
0.1000,1466
0.1028,1483
0.1056,1485
0.1083,1475
0.1111,1471
0.1139,1466
0.1167,1478
0.1194,1492
0.1222,1523
0.1250,1508
0.1278,1498
0.1306,1480
0.1333,1493
0.1361,1493
0.1389,1502
0.1417,1518
0.1444,1518
0.1472,1518
0.1500,1503
0.1528,1472
0.1556,1444
0.1583,1446
0.1611,1468
0.1639,1508
0.1667,1582
0.1694,1694
0.1722,1835
0.1750,1995
0.1778,2218
0.1806,2491
0.1833,2781
0.1861,2938
0.1889,2943
0.1917,2826
0.1944,2569
0.1972,2219
0.2000,1779
0.2028,1352
0.2056,1031
0.2083,850
0.2111,758
0.2139,720
0.2167,746
0.2194,821
0.2222,949
0.2250,1088
0.2278,1244
0.2306,1382
0.2333,1486
0.2361,1557
0.2389,1589
0.2417,1604
0.2444,1606
0.2472,1598
0.2500,1598
0.2528,1591
0.2556,1623
0.2583,1638
0.2611,1653
0.2639,1656
0.2667,1644
0.2694,1636
0.2722,1640
0.2750,1658
0.2778,1670
0.2806,1685
0.2833,1688
0.2861,1691
0.2889,1680
0.2917,1683
0.2944,1696
0.2972,1712
0.3000,1707
0.3028,1719
0.3056,1716
0.3083,1698
0.3111,1701
0.3139,1709
0.3167,1710
0.3194,1704
0.3222,1713
0.3250,1713
0.3278,1725
0.3306,1736
0.3333,1736
0.3361,1744
0.3389,1751
0.3417,1746
0.3444,1742
0.3472,1733
0.3500,1730
0.3528,1748
0.3556,1768
0.3583,1776
0.3611,1783
0.3639,1777
0.3667,1771
0.3694,1765
0.3722,1769
0.3750,1777
0.3778,1785
0.3806,1794
0.3833,1804
0.3861,1811
0.3889,1793
0.3917,1775
0.3944,1777
0.3972,1778
0.4000,1770
0.4028,1747
0.4056,1756
0.4083,1749
0.4111,1769
0.4139,1779
0.4167,1797
0.4194,1784
0.4222,1774
0.4250,1789
0.4278,1793
0.4306,1786
0.4333,1798
0.4361,1798
0.4389,1789
0.4417,1749
0.4444,1726
0.4472,1716
0.4500,1721
0.4528,1735
0.4556,1718
0.4583,1694
0.4611,1687
0.4639,1661
0.4667,1670
0.4694,1661
0.4722,1660
0.4750,1671
0.4778,1674
0.4806,1660
0.4833,1647
0.4861,1632
0.4889,1625
0.4917,1626
0.4944,1644
0.4972,1640
0.5000,1636
0.5028,1632
0.5056,1632
0.5083,1639
0.5111,1633
0.5139,1637
0.5167,1657
0.5194,1655
0.5222,1650
0.5250,1626
0.5278,1617
0.5306,1619
0.5333,1642
0.5361,1648
0.5389,1642
0.5417,1636
0.5444,1613
0.5472,1625
0.5500,1619
0.5528,1624
0.5556,1633
0.5583,1641
0.5611,1637
0.5639,1611
0.5667,1603
0.5694,1602
0.5722,1601
0.5750,1615
0.5778,1620
0.5806,1607
0.5833,1605
0.5861,1606
0.5889,1620
0.5917,1629
0.5944,1630
0.5972,1629
0.6000,1612
0.6028,1604
0.6056,1619
0.6083,1612
0.6111,1612
0.6139,1633
0.6167,1619
0.6194,1602
0.6222,1604
0.6250,1598
0.6278,1598
0.6306,1610
0.6333,1611
0.6361,1622
0.6389,1602
0.6417,1588
0.6444,1611
0.6472,1597
0.6500,1590
0.6528,1586
0.6556,1602
0.6583,1615
0.6611,1617
0.6639,1615
0.6667,1620
0.6694,1630
0.6722,1639
0.6750,1652
0.6778,1672
0.6806,1709
0.6833,1722
0.6861,1721
0.6889,1735
0.6917,1739
0.6944,1759
0.6972,1760
0.7000,1750
0.7028,1755
0.7056,1768
0.7083,1788
0.7111,1794
0.7139,1798
0.7167,1818
0.7194,1819
0.7222,1827
0.7250,1817
0.7278,1784
0.7306,1738
0.7333,1701
0.7361,1667
0.7389,1660
0.7417,1650
0.7444,1622
0.7472,1602
0.7500,1583
0.7528,1564
0.7556,1554
0.7583,1542
0.7611,1520
0.7639,1527
0.7667,1546
0.7694,1541
0.7722,1565
0.7750,1554
0.7778,1553
0.7806,1545
0.7833,1555
0.7861,1551
0.7889,1561
0.7917,1566
0.7944,1584
0.7972,1582
0.8000,1583
0.8028,1583
0.8056,1568
0.8083,1579
0.8111,1568
0.8139,1583
0.8167,1580
0.8194,1577
0.8222,1575
0.8250,1565
0.8278,1559
0.8306,1547
0.8333,1552
0.8361,1569
0.8389,1620
0.8417,1723
0.8444,1848
0.8472,2001
0.8500,2174
0.8528,2418
0.8556,2712
0.8583,2946
0.8611,3045
0.8639,2989
0.8667,2789
0.8694,2433
0.8722,2031
0.8750,1583
0.8778,1211
0.8806,975
0.8833,855
0.8861,791
0.8889,797
0.8917,851
0.8944,979
0.8972,1126
0.9000,1283
0.9028,1419
0.9056,1529
0.9083,1595
0.9111,1622
0.9139,1644
0.9167,1626
0.9194,1621
0.9222,1613
0.9250,1618
0.9278,1621
0.9306,1646
0.9333,1663
0.9361,1667
0.9389,1658
0.9417,1658
0.9444,1650
0.9472,1638
0.9500,1666
0.9528,1687
0.9556,1695
0.9583,1688
0.9611,1688
0.9639,1682
0.9667,1683
0.9694,1696
0.9722,1700
0.9750,1707
0.9778,1695
0.9806,1695
0.9833,1707
0.9861,1706
0.9889,1713
0.9917,1747
0.9944,1738
0.9972,1733
1.0000,1726
1.0028,1706
1.0056,1710
1.0083,1727
1.0111,1751
1.0139,1783
1.0167,1792
1.0194,1789
1.0222,1785
1.0250,1794
1.0278,1798
1.0306,1795
1.0333,1794
1.0361,1802
1.0389,1786
1.0417,1786
1.0444,1798
1.0472,1793
1.0500,1809
1.0528,1806
1.0556,1813
1.0583,1820
1.0611,1821
1.0639,1806
1.0667,1808
1.0694,1809
1.0722,1799
1.0750,1813
1.0778,1792
1.0806,1777
1.0833,1764
1.0861,1765
1.0889,1791
1.0917,1801
1.0944,1815
1.0972,1813
1.1000,1796
1.1028,1777
1.1056,1765
1.1083,1772
1.1111,1773
1.1139,1781
1.1167,1776
1.1194,1733
1.1222,1726
1.1250,1697
1.1278,1701
1.1306,1727
1.1333,1740
1.1361,1712
1.1389,1682
1.1417,1639
1.1444,1630
1.1472,1623
1.1500,1627
1.1528,1641
1.1556,1642
1.1583,1631
1.1611,1617
1.1639,1623
1.1667,1614
1.1694,1619
1.1722,1626
1.1750,1611
1.1778,1596
1.1806,1581
1.1833,1570
1.1861,1572
1.1889,1583
1.1917,1600
1.1944,1614
1.1972,1625
1.2000,1615
1.2028,1597
1.2056,1601
1.2083,1606
1.2111,1614
1.2139,1622
1.2167,1607
1.2194,1601
1.2222,1602
1.2250,1606
1.2278,1610
1.2306,1607
1.2333,1620
1.2361,1614
1.2389,1598
1.2417,1597
1.2444,1591
1.2472,1594
1.2500,1609
1.2528,1618
1.2556,1615
1.2583,1607
1.2611,1587
1.2639,1587
1.2667,1587
1.2694,1604
1.2722,1603
1.2750,1613
1.2778,1591
1.2806,1575
1.2833,1591
1.2861,1592
1.2889,1612
1.2917,1612
1.2944,1638
1.2972,1630
1.3000,1617
1.3028,1607
1.3056,1602
1.3083,1593
1.3111,1594
1.3139,1603
1.3167,1609
1.3194,1606
1.3222,1612
1.3250,1624
1.3278,1634
1.3306,1632
1.3333,1631
1.3361,1639
1.3389,1622
1.3417,1613
1.3444,1604
1.3472,1604
1.3500,1614
1.3528,1618
1.3556,1623
1.3583,1610
1.3611,1625
1.3639,1629
1.3667,1635
1.3694,1644
1.3722,1644
1.3750,1648
1.3778,1641
1.3806,1618
1.3833,1624
1.3861,1623
1.3889,1640
1.3917,1659
1.3944,1667
1.3972,1663
1.4000,1672
1.4028,1656
1.4056,1645
1.4083,1631
1.4111,1652
1.4139,1649
1.4167,1641
1.4194,1652
1.4222,1650
1.4250,1652
1.4278,1668
1.4306,1667
1.4333,1667
1.4361,1671
1.4389,1662
1.4417,1660
1.4444,1674
1.4472,1703
1.4500,1730
1.4528,1741
1.4556,1751
1.4583,1752
1.4611,1758
1.4639,1770
1.4667,1781
1.4694,1781
1.4722,1779
1.4750,1806
1.4778,1814
1.4806,1825
1.4833,1832
1.4861,1842
1.4889,1842
1.4917,1844
1.4944,1822
1.4972,1801
1.5000,1759
1.5028,1721
1.5056,1700
1.5083,1698
1.5111,1691
1.5139,1695
1.5167,1681
1.5194,1646
1.5222,1631
1.5250,1600
1.5278,1592
1.5306,1592
1.5333,1596
1.5361,1615
1.5389,1599
1.5417,1615
1.5444,1627
1.5472,1635
1.5500,1630
1.5528,1612
1.5556,1619
1.5583,1622
1.5611,1634
1.5639,1637
1.5667,1627
1.5694,1607
1.5722,1614
1.5750,1609
1.5778,1621
1.5806,1621
1.5833,1625
1.5861,1633
1.5889,1630
1.5917,1630
1.5944,1637
1.5972,1614
1.6000,1592
1.6028,1570
1.6056,1587
1.6083,1612
1.6111,1706
1.6139,1822
1.6167,1923
1.6194,2077
1.6222,2280
1.6250,2549
1.6278,2800
1.6306,2951
1.6333,2971
1.6361,2881
1.6389,2656
1.6417,2321
1.6444,1935
1.6472,1516
1.6500,1228
1.6528,1078
1.6556,1003
1.6583,927
1.6611,941
1.6639,995
1.6667,1099
1.6694,1229
1.6722,1367
1.6750,1494
1.6778,1603
1.6806,1648
1.6833,1678
1.6861,1674
1.6889,1680
1.6917,1661
1.6944,1649
1.6972,1648
1.7000,1675
1.7028,1682
1.7056,1696
1.7083,1699
1.7111,1689
1.7139,1697
1.7167,1684
1.7194,1695
1.7222,1716
1.7250,1720
1.7278,1724
1.7306,1716
1.7333,1720
1.7361,1717
1.7389,1721
1.7417,1713
1.7444,1725
1.7472,1731
1.7500,1730
1.7528,1722
1.7556,1730
1.7583,1737
1.7611,1747
1.7639,1755
1.7667,1751
1.7694,1755
1.7722,1751
1.7750,1749
1.7778,1757
1.7806,1753
1.7833,1753
1.7861,1760
1.7889,1766
1.7917,1769
1.7944,1774
1.7972,1763
1.8000,1775
1.8028,1788
1.8056,1787
1.8083,1788
1.8111,1785
1.8139,1782
1.8167,1774
1.8194,1788
1.8222,1789
1.8250,1798
1.8278,1795
1.8306,1800
1.8333,1803
1.8361,1799
1.8389,1791
1.8417,1674
1.8444,1727
1.8472,1734
1.8500,1759
1.8528,1761
1.8556,1763
1.8583,1746
1.8611,1741
1.8639,1749
1.8667,1745
1.8694,1756
1.8722,1776
1.8750,1750
1.8778,1746
1.8806,1727
1.8833,1744
1.8861,1755
1.8889,1769
1.8917,1764
1.8944,1752
1.8972,1734
1.9000,1715
1.9028,1710
1.9056,1707
1.9083,1698
1.9111,1721
1.9139,1711
1.9167,1682
1.9194,1666
1.9222,1651
1.9250,1648
1.9278,1629
1.9306,1632
1.9333,1623
1.9361,1624
1.9389,1615
1.9417,1615
1.9444,1616
1.9472,1627
1.9500,1612
1.9528,1603
1.9556,1606
1.9583,1590
1.9611,1587
1.9639,1595
1.9667,1601
1.9694,1604
1.9722,1607
1.9750,1607
1.9778,1596
1.9806,1596
1.9833,1592
1.9861,1592
1.9889,1578
1.9917,1579
1.9944,1585
1.9972,1576
2.0000,1589
2.0028,1599
2.0056,1601
2.0083,1596
2.0111,1590
2.0139,1592
2.0167,1581
2.0194,1569
2.0222,1575
2.0250,1582
2.0278,1571
2.0306,1587
2.0333,1590
2.0361,1593
2.0389,1582
2.0417,1580
2.0444,1583
2.0472,1578
2.0500,1576
2.0528,1569
2.0556,1579
2.0583,1586
2.0611,1592
2.0639,1607
2.0667,1595
2.0694,1616
2.0722,1620
2.0750,1623
2.0778,1616
2.0806,1610
2.0833,1621
2.0861,1614
2.0889,1630
2.0917,1607
2.0944,1601
2.0972,1598
2.1000,1586
2.1028,1594
2.1056,1588
2.1083,1603
2.1111,1602
2.1139,1609
2.1167,1594
2.1194,1587
2.1222,1582
2.1250,1593
2.1278,1602
2.1306,1591
2.1333,1592
2.1361,1591
2.1389,1594
2.1417,1599
2.1444,1607
2.1472,1601
2.1500,1593
2.1528,1605
2.1556,1603
2.1583,1611
2.1611,1613
2.1639,1594
2.1667,1605
2.1694,1610
2.1722,1608
2.1750,1617
2.1778,1607
2.1806,1617
2.1833,1611
2.1861,1593
2.1889,1595
2.1917,1593
2.1944,1599
2.1972,1593
2.2000,1611
2.2028,1597
2.2056,1602
2.2083,1590
2.2111,1593
2.2139,1596
2.2167,1602
2.2194,1616
2.2222,1606
2.2250,1614
2.2278,1618
2.2306,1612
2.2333,1614
2.2361,1595
2.2389,1586
2.2417,1586
2.2444,1602
2.2472,1615
2.2500,1624
2.2528,1632
2.2556,1631
2.2583,1617
2.2611,1614
2.2639,1600
2.2667,1610
2.2694,1606
2.2722,1607
2.2750,1602
2.2778,1604
2.2806,1605
2.2833,1626
2.2861,1628
2.2889,1632
2.2917,1632
2.2944,1643
2.2972,1647
2.3000,1665
2.3028,1645
2.3056,1653
2.3083,1645
2.3111,1657
2.3139,1647
2.3167,1654
2.3194,1646
2.3222,1659
2.3250,1650
2.3278,1659
2.3306,1650
2.3333,1661
2.3361,1686
2.3389,1697
2.3417,1725
2.3444,1739
2.3472,1744
2.3500,1731
2.3528,1742
2.3556,1754
2.3583,1764
2.3611,1776
2.3639,1781
2.3667,1781
2.3694,1787
2.3722,1801
2.3750,1826
2.3778,1845
2.3806,1844
2.3833,1822
2.3861,1815
2.3889,1792
2.3917,1765
2.3944,1732
2.3972,1717
2.4000,1705
2.4028,1716
2.4056,1695
2.4083,1689
2.4111,1659
2.4139,1651
2.4167,1630
2.4194,1605
2.4222,1607
2.4250,1616
2.4278,1614
2.4306,1626
2.4333,1639
2.4361,1638
2.4389,1645
2.4417,1649
2.4444,1634
2.4472,1621
2.4500,1627
2.4528,1657
2.4556,1661
2.4583,1654
2.4611,1666
2.4639,1669
2.4667,1653
2.4694,1645
2.4722,1638
2.4750,1653
2.4778,1653
2.4806,1653
2.4833,1660
2.4861,1651
2.4889,1644
2.4917,1637
2.4944,1612
2.4972,1611
2.5000,1650
2.5028,1727
2.5056,1822
2.5083,1946
2.5111,2097
2.5139,2287
2.5167,2538
2.5194,2773
2.5222,2927
2.5250,2958
2.5278,2871
2.5306,2638
2.5333,2324
2.5361,1942
2.5389,1556
2.5417,1271
2.5444,1117
2.5472,1024
2.5500,957
2.5528,956
2.5556,1019
2.5583,1113
2.5611,1229
2.5639,1370
2.5667,1494
2.5694,1585
2.5722,1638
2.5750,1660
2.5778,1653
2.5806,1673
2.5833,1670
2.5861,1666
2.5889,1678
2.5917,1698
2.5944,1726
2.5972,1710
2.6000,1722
2.6028,1715
2.6056,1708
2.6083,1710
2.6111,1729
2.6139,1736
2.6167,1737
2.6194,1736
2.6222,1742
2.6250,1738
2.6278,1746
2.6306,1743
2.6333,1747
2.6361,1748
2.6389,1754
2.6417,1743
2.6444,1744
2.6472,1753
2.6500,1754
2.6528,1789
2.6556,1798
2.6583,1794
2.6611,1775
2.6639,1760
2.6667,1765
2.6694,1776
2.6722,1774
2.6750,1797
2.6778,1790
2.6806,1795
2.6833,1796
2.6861,1784
2.6889,1785
2.6917,1794
2.6944,1799
2.6972,1805
2.7000,1814
2.7028,1817
2.7056,1825
2.7083,1819
2.7111,1823
2.7139,1815
2.7167,1807
2.7194,1800
2.7222,1802
2.7250,1810
2.7278,1803
2.7306,1809
2.7333,1791
2.7361,1759
2.7389,1762
2.7417,1750
2.7444,1731
2.7472,1730
2.7500,1744
2.7528,1761
2.7556,1758
2.7583,1758
2.7611,1757
2.7639,1758
2.7667,1776
2.7694,1774
2.7722,1789
2.7750,1787
2.7778,1772
2.7806,1761
2.7833,1767
2.7861,1795
2.7889,1818
2.7917,1831
2.7944,1805
2.7972,1785
2.8000,1758
2.8028,1732
2.8056,1722
2.8083,1714
2.8111,1718
2.8139,1715
2.8167,1699
2.8194,1700
2.8222,1685
2.8250,1669
2.8278,1680
2.8306,1691
2.8333,1689
2.8361,1682
2.8389,1656
2.8417,1634
2.8444,1624
2.8472,1612
2.8500,1631
2.8528,1646
2.8556,1639
2.8583,1631
2.8611,1634
2.8639,1623
2.8667,1630
2.8694,1624
2.8722,1638
2.8750,1628
2.8778,1626
2.8806,1618
2.8833,1617
2.8861,1614
2.8889,1633
2.8917,1639
2.8944,1650
2.8972,1651
2.9000,1627
2.9028,1609
2.9056,1606
2.9083,1609
2.9111,1620
2.9139,1615
2.9167,1611
2.9194,1614
2.9222,1614
2.9250,1621
2.9278,1612
2.9306,1600
2.9333,1615
2.9361,1609
2.9389,1597
2.9417,1602
2.9444,1593
2.9472,1596
2.9500,1602
2.9528,1612
2.9556,1630
2.9583,1618
2.9611,1621
2.9639,1608
2.9667,1608
2.9694,1607
2.9722,1620
2.9750,1631
2.9778,1629
2.9806,1613
2.9833,1621
2.9861,1619
2.9889,1629
2.9917,1622
2.9944,1631
2.9972,1628
3.0000,1618
3.0028,1626
3.0056,1616
3.0083,1620
3.0111,1612
3.0139,1619
3.0167,1634
3.0194,1643
3.0222,1643
3.0250,1644
3.0278,1653
3.0306,1641
3.0333,1635
3.0361,1623
3.0389,1627
3.0417,1612
3.0444,1627
3.0472,1624
3.0500,1617
3.0528,1613
3.0556,1628
3.0583,1606
3.0611,1613
3.0639,1607
3.0667,1614
3.0694,1622
3.0722,1631
3.0750,1625
3.0778,1617
3.0806,1617
3.0833,1611
3.0861,1604
3.0889,1597
3.0917,1604
3.0944,1614
3.0972,1600
3.1000,1601
3.1028,1619
3.1056,1628
3.1083,1620
3.1111,1637
3.1139,1634
3.1167,1623
3.1194,1617
3.1222,1616
3.1250,1619
3.1278,1612
3.1306,1621
3.1333,1608
3.1361,1622
3.1389,1602
3.1417,1612
3.1444,1608
3.1472,1610
3.1500,1618
3.1528,1624
3.1556,1625
3.1583,1629
3.1611,1630
3.1639,1625
3.1667,1633
3.1694,1633
3.1722,1623
3.1750,1631
3.1778,1618
3.1806,1616
3.1833,1614
3.1861,1626
3.1889,1616
3.1917,1619
3.1944,1619
3.1972,1618
3.2000,1607
3.2028,1618
3.2056,1614
3.2083,1604
3.2111,1631
3.2139,1636
3.2167,1648
3.2194,1646
3.2222,1646
3.2250,1631
3.2278,1615
3.2306,1622
3.2333,1639
3.2361,1666
3.2389,1689
3.2417,1694
3.2444,1706
3.2472,1720
3.2500,1719
3.2528,1696
3.2556,1695
3.2583,1700
3.2611,1736
3.2639,1764
3.2667,1794
3.2694,1812
3.2722,1801
3.2750,1786
3.2778,1756
3.2806,1724
3.2833,1692
3.2861,1683
3.2889,1660
3.2917,1663
3.2944,1661
3.2972,1637
3.3000,1608
3.3028,1591
3.3056,1580
3.3083,1573
3.3111,1562
3.3139,1559
3.3167,1576
3.3194,1581
3.3222,1581
3.3250,1579
3.3278,1598
3.3306,1605
3.3333,1613
3.3361,1614
3.3389,1599
3.3417,1597
3.3444,1595
3.3472,1599
3.3500,1609
3.3528,1613
3.3556,1620
3.3583,1615
3.3611,1612
3.3639,1604
3.3667,1598
3.3694,1605
3.3722,1606
3.3750,1606
3.3778,1593
3.3806,1590
3.3833,1572
3.3861,1563
3.3889,1603
3.3917,1673
3.3944,1774
3.3972,1880
3.4000,2014
3.4028,2203
3.4056,2428
3.4083,2623
3.4111,2716
3.4139,2705
3.4167,2603
3.4194,2437
3.4222,2161
3.4250,1811
3.4278,1466
3.4306,1194
3.4333,1048
3.4361,966
3.4389,910
3.4417,855
3.4444,843
3.4472,892
3.4500,1010
3.4528,1159
3.4556,1323
3.4583,1449
3.4611,1540
3.4639,1599
3.4667,1628
3.4694,1630
3.4722,1635
3.4750,1626
3.4778,1640
3.4806,1656
3.4833,1672
3.4861,1686
3.4889,1696
3.4917,1698
3.4944,1694
3.4972,1693
3.5000,1704
3.5028,1714
3.5056,1719
3.5083,1712
3.5111,1703
3.5139,1690
3.5167,1693
3.5194,1682
3.5222,1724
3.5250,1728
3.5278,1738
3.5306,1736
3.5333,1724
3.5361,1708
3.5389,1695
3.5417,1694
3.5444,1697
3.5472,1697
3.5500,1716
3.5528,1725
3.5556,1720
3.5583,1724
3.5611,1732
3.5639,1748
3.5667,1753
3.5694,1744
3.5722,1743
3.5750,1730
3.5778,1723
3.5806,1734
3.5833,1755
3.5861,1758
3.5889,1765
3.5917,1757
3.5944,1749
3.5972,1730
3.6000,1729
3.6028,1749
3.6056,1754
3.6083,1744
3.6111,1744
3.6139,1732
3.6167,1718
3.6194,1716
3.6222,1642
3.6250,1686
3.6278,1701
3.6306,1725
3.6333,1723
3.6361,1690
3.6389,1681
3.6417,1672
3.6444,1690
3.6472,1708
3.6500,1725
3.6528,1730
3.6556,1720
3.6583,1719
3.6611,1722
3.6639,1731
3.6667,1756
3.6694,1751
3.6722,1767
3.6750,1750
3.6778,1726
3.6806,1710
3.6833,1717
3.6861,1725
3.6889,1723
3.6917,1739
3.6944,1705
3.6972,1680
3.7000,1666
3.7028,1666
3.7056,1654
3.7083,1663
3.7111,1668
3.7139,1661
3.7167,1638
3.7194,1622
3.7222,1614
3.7250,1602
3.7278,1589
3.7306,1591
3.7333,1599
3.7361,1587
3.7389,1588
3.7417,1576
3.7444,1580
3.7472,1573
3.7500,1571
3.7528,1586
3.7556,1584
3.7583,1598
3.7611,1597
3.7639,1594
3.7667,1600
3.7694,1588
3.7722,1586
3.7750,1574
3.7778,1556
3.7806,1558
3.7833,1553
3.7861,1569
3.7889,1580
3.7917,1581
3.7944,1590
3.7972,1585
3.8000,1584
3.8028,1571
3.8056,1567
3.8083,1570
3.8111,1573
3.8139,1564
3.8167,1551
3.8194,1550
3.8222,1552
3.8250,1546
3.8278,1566
3.8306,1580
3.8333,1567
3.8361,1545
3.8389,1540
3.8417,1544
3.8444,1560
3.8472,1561
3.8500,1569
3.8528,1563
3.8556,1562
3.8583,1555
3.8611,1554
3.8639,1547
3.8667,1543
3.8694,1542
3.8722,1551
3.8750,1539
3.8778,1550
3.8806,1555
3.8833,1560
3.8861,1558
3.8889,1561
3.8917,1559
3.8944,1556
3.8972,1555
3.9000,1559
3.9028,1537
3.9056,1536
3.9083,1532
3.9111,1541
3.9139,1545
3.9167,1529
3.9194,1527
3.9222,1532
3.9250,1539
3.9278,1535
3.9306,1526
3.9333,1516
3.9361,1516
3.9389,1536
3.9417,1555
3.9444,1550
3.9472,1539
3.9500,1554
3.9528,1548
3.9556,1532
3.9583,1511
3.9611,1504
3.9639,1523
3.9667,1513
3.9694,1521
3.9722,1517
3.9750,1521
3.9778,1526
3.9806,1545
3.9833,1546
3.9861,1549
3.9889,1546
3.9917,1549
3.9944,1536
3.9972,1539
4.0000,1538
4.0028,1541
4.0056,1550
4.0083,1562
4.0111,1566
4.0139,1573
4.0167,1554
4.0194,1556
4.0222,1546
4.0250,1560
4.0278,1561
4.0306,1565
4.0333,1563
4.0361,1571
4.0389,1593
4.0417,1624
4.0444,1635
4.0472,1659
4.0500,1664
4.0528,1688
4.0556,1696
4.0583,1689
4.0611,1682
4.0639,1685
4.0667,1701
4.0694,1722
4.0722,1749
4.0750,1778
4.0778,1778
4.0806,1787
4.0833,1786
4.0861,1786
4.0889,1778
4.0917,1758
4.0944,1729
4.0972,1688
4.1000,1673
4.1028,1676
4.1056,1664
4.1083,1642
4.1111,1619
4.1139,1589
4.1167,1586
4.1194,1572
4.1222,1571
4.1250,1564
4.1278,1553
4.1306,1546
4.1333,1553
4.1361,1566
4.1389,1586
4.1417,1595
4.1444,1582
4.1472,1570
4.1500,1567
4.1528,1574
4.1556,1560
4.1583,1570
4.1611,1575
4.1639,1583
4.1667,1590
4.1694,1575
4.1722,1589
4.1750,1595
4.1778,1590
4.1806,1587
4.1833,1573
4.1861,1578
4.1889,1549
4.1917,1523
4.1944,1533
4.1972,1580
4.2000,1643
4.2028,1738
4.2056,1865
4.2083,1994
4.2111,2166
4.2139,2375
4.2167,2616
4.2194,2751
4.2222,2749
4.2250,2628
4.2278,2488
4.2306,2268
4.2333,1946
4.2361,1590
4.2389,1272
4.2417,1049
4.2444,951
4.2472,923
4.2500,881
4.2528,854
4.2556,860
4.2583,940
4.2611,1069
4.2639,1221
4.2667,1361
4.2694,1485
4.2722,1587
4.2750,1627
4.2778,1635
4.2806,1638
4.2833,1647
4.2861,1642
4.2889,1658
4.2917,1675
4.2944,1688
4.2972,1701
4.3000,1707
4.3028,1704
4.3056,1692
4.3083,1689
4.3111,1697
4.3139,1704
4.3167,1707
4.3194,1706
4.3222,1711
4.3250,1713
4.3278,1717
4.3306,1723
4.3333,1736
4.3361,1729
4.3389,1722
4.3417,1741
4.3444,1734
4.3472,1724
4.3500,1732
4.3528,1738
4.3556,1750
4.3583,1742
4.3611,1737
4.3639,1754
4.3667,1767
4.3694,1767
4.3722,1774
4.3750,1780
4.3778,1789
4.3806,1780
4.3833,1784
4.3861,1779
4.3889,1771
4.3917,1773
4.3944,1803
4.3972,1825
4.4000,1832
4.4028,1840
4.4056,1834
4.4083,1815
4.4111,1812
4.4139,1810
4.4167,1804
4.4194,1812
4.4222,1800
4.4250,1778
4.4278,1758
4.4306,1752
4.4333,1754
4.4361,1730
4.4389,1721
4.4417,1736
4.4444,1733
4.4472,1764
4.4500,1784
4.4528,1783
4.4556,1768
4.4583,1764
4.4611,1764
4.4639,1783
4.4667,1799
4.4694,1817
4.4722,1803
4.4750,1785
4.4778,1775
4.4806,1761
4.4833,1763
4.4861,1784
4.4889,1796
4.4917,1802
4.4944,1775
4.4972,1736
4.5000,1720
4.5028,1721
4.5056,1724
4.5083,1742
4.5111,1732
4.5139,1710
4.5167,1691
4.5194,1671
4.5222,1648
4.5250,1629
4.5278,1638
4.5306,1656
4.5333,1657
4.5361,1668
4.5389,1664
4.5417,1662
4.5444,1664
4.5472,1662
4.5500,1661
4.5528,1665
4.5556,1669
4.5583,1657
4.5611,1662
4.5639,1643
4.5667,1644
4.5694,1631
4.5722,1627
4.5750,1637
4.5778,1617
4.5806,1621
4.5833,1628
4.5861,1645
4.5889,1662
4.5917,1675
4.5944,1672
4.5972,1644
4.6000,1647
4.6028,1654
4.6056,1630
4.6083,1638
4.6111,1648
4.6139,1659
4.6167,1664
4.6194,1683
4.6222,1674
4.6250,1658
4.6278,1646
4.6306,1646
4.6333,1650
4.6361,1653
4.6389,1629
4.6417,1634
4.6444,1632
4.6472,1627
4.6500,1640
4.6528,1654
4.6556,1682
4.6583,1683
4.6611,1679
4.6639,1689
4.6667,1686
4.6694,1694
4.6722,1690
4.6750,1671
4.6778,1679
4.6806,1661
4.6833,1672
4.6861,1678
4.6889,1696
4.6917,1703
4.6944,1718
4.6972,1694
4.7000,1710
4.7028,1696
4.7056,1695
4.7083,1701
4.7111,1705
4.7139,1699
4.7167,1691
4.7194,1699
4.7222,1702
4.7250,1694
4.7278,1704
4.7306,1700
4.7333,1709
4.7361,1704
4.7389,1684
4.7417,1669
4.7444,1671
4.7472,1692
4.7500,1699
4.7528,1708
4.7556,1705
4.7583,1701
4.7611,1699
4.7639,1695
4.7667,1696
4.7694,1695
4.7722,1677
4.7750,1688
4.7778,1698
4.7806,1699
4.7833,1699
4.7861,1700
4.7889,1708
4.7917,1729
4.7944,1743
4.7972,1750
4.8000,1757
4.8028,1754
4.8056,1767
4.8083,1782
4.8111,1773
4.8139,1786
4.8167,1777
4.8194,1790
4.8222,1811
4.8250,1834
4.8278,1854
4.8306,1879
4.8333,1884
4.8361,1864
4.8389,1848
4.8417,1822
4.8444,1789
4.8472,1763
4.8500,1740
4.8528,1729
4.8556,1730
4.8583,1717
4.8611,1709
4.8639,1698
4.8667,1672
4.8694,1654
4.8722,1634
4.8750,1633
4.8778,1617
4.8806,1640
4.8833,1645
4.8861,1664
4.8889,1679
4.8917,1692
4.8944,1676
4.8972,1665
4.9000,1674
4.9028,1666
4.9056,1660
4.9083,1661
4.9111,1666
4.9139,1676
4.9167,1683
4.9194,1672
4.9222,1665
4.9250,1661
4.9278,1652
4.9306,1662
4.9333,1656
4.9361,1657
4.9389,1644
4.9417,1629
4.9444,1644
4.9472,1672
4.9500,1732
4.9528,1832
4.9556,1948
4.9583,2077
4.9611,2230
4.9639,2438
4.9667,2656
4.9694,2839
4.9722,2862
4.9750,2752
4.9778,2595
4.9806,2387
4.9833,2082
4.9861,1714
4.9889,1366
4.9917,1142
4.9944,1010
4.9972,964
5.0000,937
5.0028,914
5.0056,907
5.0083,975
5.0111,1094
5.0139,1241
5.0167,1401
5.0194,1534
5.0222,1650
5.0250,1715
5.0278,1743
5.0306,1755
5.0333,1741
5.0361,1731
5.0389,1722
5.0417,1730
5.0444,1728
5.0472,1738
5.0500,1750
5.0528,1753
5.0556,1777
5.0583,1800
5.0611,1813
5.0639,1804
5.0667,1791
5.0694,1784
5.0722,1785
5.0750,1792
5.0778,1785
5.0806,1809
5.0833,1812
5.0861,1820
5.0889,1832
5.0917,1840
5.0944,1829
5.0972,1817
5.1000,1809
5.1028,1821
5.1056,1824
5.1083,1817
5.1111,1834
5.1139,1836
5.1167,1830
5.1194,1847
5.1222,1857
5.1250,1857
5.1278,1860
5.1306,1867
5.1333,1873
5.1361,1881
5.1389,1884
5.1417,1882
5.1444,1886
5.1472,1882
5.1500,1879
5.1528,1876
5.1556,1868
5.1583,1882
5.1611,1893
5.1639,1892
5.1667,1919
5.1694,1904
5.1722,1896
5.1750,1892
5.1778,1877
5.1806,1891
5.1833,1811
5.1861,1828
5.1889,1848
5.1917,1846
5.1944,1841
5.1972,1834
5.2000,1817
5.2028,1812
5.2056,1834
5.2083,1855
5.2111,1855
5.2139,1836
5.2167,1819
5.2194,1812
5.2222,1829
5.2250,1833
5.2278,1852
5.2306,1845
5.2333,1826
5.2361,1788
5.2389,1761
5.2417,1749
5.2444,1745
5.2472,1749
5.2500,1760
5.2528,1751
5.2556,1739
5.2583,1721
5.2611,1713
5.2639,1732
5.2667,1718
5.2694,1721
5.2722,1700
5.2750,1657
5.2778,1638
5.2806,1623
5.2833,1617
5.2861,1636
5.2889,1666
5.2917,1673
5.2944,1676
5.2972,1662
5.3000,1668
5.3028,1679
5.3056,1668
5.3083,1681
5.3111,1661
5.3139,1658
5.3167,1653
5.3194,1657
5.3222,1675
5.3250,1679
5.3278,1693
5.3306,1694
5.3333,1690
5.3361,1675
5.3389,1659
5.3417,1673
5.3444,1673
5.3472,1673
5.3500,1687
5.3528,1683
5.3556,1668
5.3583,1664
5.3611,1662
5.3639,1675
5.3667,1687
5.3694,1703
5.3722,1693
5.3750,1692
5.3778,1686
5.3806,1690
5.3833,1677
5.3861,1672
5.3889,1679
5.3917,1694
5.3944,1703
5.3972,1697
5.4000,1689
5.4028,1672
5.4056,1671
5.4083,1675
5.4111,1678
5.4139,1670
5.4167,1671
5.4194,1686
5.4222,1691
5.4250,1702
5.4278,1700
5.4306,1701
5.4333,1674
5.4361,1676
5.4389,1673
5.4417,1678
5.4444,1681
5.4472,1708
5.4500,1721
5.4528,1712
5.4556,1708
5.4583,1701
5.4611,1714
5.4639,1730
5.4667,1726
5.4694,1719
5.4722,1712
5.4750,1693
5.4778,1694
5.4806,1702
5.4833,1696
5.4861,1699
5.4889,1707
5.4917,1701
5.4944,1682
5.4972,1669
5.5000,1675
5.5028,1689
5.5056,1702
5.5083,1727
5.5111,1731
5.5139,1725
5.5167,1740
5.5194,1732
5.5222,1749
5.5250,1756
5.5278,1780
5.5306,1799
5.5333,1800
5.5361,1803
5.5389,1806
5.5417,1797
5.5444,1796
5.5472,1800
5.5500,1819
5.5528,1848
5.5556,1878
5.5583,1886
5.5611,1897
5.5639,1879
5.5667,1884
5.5694,1860
5.5722,1834
5.5750,1801
5.5778,1752
5.5806,1739
5.5833,1732
5.5861,1718
5.5889,1722
5.5917,1710
5.5944,1692
5.5972,1674
5.6000,1665
5.6028,1661
5.6056,1635
5.6083,1631
5.6111,1624
5.6139,1624
5.6167,1634
5.6194,1624
5.6222,1639
5.6250,1641
5.6278,1640
5.6306,1632
5.6333,1627
5.6361,1604
5.6389,1621
5.6417,1618
5.6444,1624
5.6472,1630
5.6500,1656
5.6528,1641
5.6556,1634
5.6583,1614
5.6611,1610
5.6639,1615
5.6667,1610
5.6694,1596
5.6722,1608
5.6750,1595
5.6778,1619
5.6806,1676
5.6833,1778
5.6861,1893
5.6889,1999
5.6917,2174
5.6944,2364
5.6972,2595
5.7000,2784
5.7028,2805
5.7056,2717
5.7083,2559
5.7111,2346
5.7139,2022
5.7167,1637
5.7194,1266
5.7222,992
5.7250,879
5.7278,843
5.7306,825
5.7333,797
5.7361,824
5.7389,912
5.7417,1072
5.7444,1227
5.7472,1364
5.7500,1505
5.7528,1583
5.7556,1618
5.7583,1634
5.7611,1623
5.7639,1626
5.7667,1643
5.7694,1662
5.7722,1684
5.7750,1696
5.7778,1706
5.7806,1709
5.7833,1698
5.7861,1691
5.7889,1689
5.7917,1700
5.7944,1702
5.7972,1726
5.8000,1745
5.8028,1734
5.8056,1731
5.8083,1740
5.8111,1743
5.8139,1747
5.8167,1747
5.8194,1766
5.8222,1764
5.8250,1767
5.8278,1766
5.8306,1777
5.8333,1788
5.8361,1789
5.8389,1787
5.8417,1800
5.8444,1786
5.8472,1779
5.8500,1777
5.8528,1792
5.8556,1795
5.8583,1810
5.8611,1805
5.8639,1787
5.8667,1781
5.8694,1785
5.8722,1804
5.8750,1814
5.8778,1825
5.8806,1844
5.8833,1848
5.8861,1843
5.8889,1824
5.8917,1821
5.8944,1821
5.8972,1834
5.9000,1835
5.9028,1846
5.9056,1848
5.9083,1831
5.9111,1847
5.9139,1768
5.9167,1765
5.9194,1781
5.9222,1785
5.9250,1805
5.9278,1807
5.9306,1817
5.9333,1796
5.9361,1778
5.9389,1775
5.9417,1773
5.9444,1775
5.9472,1761
5.9500,1779
5.9528,1773
5.9556,1769
5.9583,1751
5.9611,1760
5.9639,1747
5.9667,1762
5.9694,1751
5.9722,1727
5.9750,1688
5.9778,1665
5.9806,1670
5.9833,1672
5.9861,1668
5.9889,1673
5.9917,1664
5.9944,1638
5.9972,1644
6.0000,1642
6.0028,1636
6.0056,1644
6.0083,1632
6.0111,1644
6.0139,1651
6.0167,1652
6.0194,1640
6.0222,1638
6.0250,1652
6.0278,1658
6.0306,1639
6.0333,1625
6.0361,1636
6.0389,1630
6.0417,1627
6.0444,1635
6.0472,1636
6.0500,1641
6.0528,1649
6.0556,1633
6.0583,1641
6.0611,1642
6.0639,1641
6.0667,1648
6.0694,1656
6.0722,1654
6.0750,1655
6.0778,1632
6.0806,1648
6.0833,1645
6.0861,1647
6.0889,1642
6.0917,1656
6.0944,1649
6.0972,1620
6.1000,1627
6.1028,1624
6.1056,1631
6.1083,1645
6.1111,1646
6.1139,1654
6.1167,1657
6.1194,1640
6.1222,1639
6.1250,1632
6.1278,1639
6.1306,1646
6.1333,1652
6.1361,1649
6.1389,1644
6.1417,1645
6.1444,1638
6.1472,1644
6.1500,1662
6.1528,1667
6.1556,1653
6.1583,1646
6.1611,1647
6.1639,1651
6.1667,1668
6.1694,1684
6.1722,1687
6.1750,1688
6.1778,1692
6.1806,1676
6.1833,1681
6.1861,1683
6.1889,1687
6.1917,1670
6.1944,1681
6.1972,1682
6.2000,1679
6.2028,1697
6.2056,1688
6.2083,1694
6.2111,1702
6.2139,1696
6.2167,1679
6.2194,1690
6.2222,1675
6.2250,1692
6.2278,1694
6.2306,1688
6.2333,1678
6.2361,1664
6.2389,1674
6.2417,1683
6.2444,1696
6.2472,1705
6.2500,1695
6.2528,1708
6.2556,1697
6.2583,1707
6.2611,1698
6.2639,1696
6.2667,1701
6.2694,1716
6.2722,1729
6.2750,1710
6.2778,1708
6.2806,1714
6.2833,1721
6.2861,1732
6.2889,1751
6.2917,1744
6.2944,1736
6.2972,1731
6.3000,1722
6.3028,1722
6.3056,1734
6.3083,1736
6.3111,1754
6.3139,1765
6.3167,1799
6.3194,1824
6.3222,1819
6.3250,1818
6.3278,1823
6.3306,1816
6.3333,1825
6.3361,1813
6.3389,1828
6.3417,1827
6.3444,1852
6.3472,1868
6.3500,1884
6.3528,1881
6.3556,1876
6.3583,1860
6.3611,1823
6.3639,1782
6.3667,1761
6.3694,1725
6.3722,1733
6.3750,1705
6.3778,1729
6.3806,1720
6.3833,1696
6.3861,1687
6.3889,1667
6.3917,1652
6.3944,1642
6.3972,1641
6.4000,1645
6.4028,1634
6.4056,1642
6.4083,1635
6.4111,1652
6.4139,1631
6.4167,1613
6.4194,1603
6.4222,1594
6.4250,1592
6.4278,1597
6.4306,1593
6.4333,1598
6.4361,1602
6.4389,1596
6.4417,1595
6.4444,1594
6.4472,1592
6.4500,1602
6.4528,1591
6.4556,1579
6.4583,1587
6.4611,1580
6.4639,1577
6.4667,1572
6.4694,1578
6.4722,1592
6.4750,1650
6.4778,1719
6.4806,1834
6.4833,1971
6.4861,2140
6.4889,2368
6.4917,2608
6.4944,2788
6.4972,2816
6.5000,2742
6.5028,2523
6.5056,2203
6.5083,1806
6.5111,1402
6.5139,1052
6.5167,847
6.5194,733
6.5222,693
6.5250,691
6.5278,753
6.5306,860
6.5333,991
6.5361,1140
6.5389,1283
6.5417,1420
6.5444,1508
6.5472,1559
6.5500,1588
6.5528,1604
6.5556,1602
6.5583,1592
6.5611,1591
6.5639,1583
6.5667,1584
6.5694,1614
6.5722,1618
6.5750,1612
6.5778,1613
6.5806,1601
6.5833,1616
6.5861,1634
6.5889,1653
6.5917,1661
6.5944,1657
6.5972,1654
6.6000,1659
6.6028,1667
6.6056,1690
6.6083,1679
6.6111,1681
6.6139,1680
6.6167,1660
6.6194,1667
6.6222,1654
6.6250,1656
6.6278,1681
6.6306,1684
6.6333,1679
6.6361,1667
6.6389,1688
6.6417,1692
6.6444,1696
6.6472,1711
6.6500,1713
6.6528,1700
6.6556,1704
6.6583,1697
6.6611,1710
6.6639,1694
6.6667,1700
6.6694,1711
6.6722,1717
6.6750,1718
6.6778,1719
6.6806,1732
6.6833,1730
6.6861,1733
6.6889,1725
6.6917,1730
6.6944,1724
6.6972,1730
6.7000,1732
6.7028,1731
6.7056,1721
6.7083,1716
6.7111,1701
6.7139,1681
6.7167,1679
6.7194,1664
6.7222,1679
6.7250,1699
6.7278,1705
6.7306,1724
6.7333,1697
6.7361,1686
6.7389,1681
6.7417,1675
6.7444,1686
6.7472,1696
6.7500,1705
6.7528,1665
6.7556,1637
6.7583,1617
6.7611,1613
6.7639,1619
6.7667,1615
6.7694,1604
6.7722,1588
6.7750,1573
6.7778,1561
6.7806,1551
6.7833,1538
6.7861,1567
6.7889,1565
6.7917,1551
6.7944,1542
6.7972,1540
6.8000,1539
6.8028,1538
6.8056,1538
6.8083,1551
6.8111,1541
6.8139,1521
6.8167,1519
6.8194,1506
6.8222,1525
6.8250,1523
6.8278,1547
6.8306,1551
6.8333,1526
6.8361,1514
6.8389,1514
6.8417,1513
6.8444,1532
6.8472,1530
6.8500,1536
6.8528,1540
6.8556,1521
6.8583,1533
6.8611,1546
6.8639,1545
6.8667,1556
6.8694,1566
6.8722,1571
6.8750,1555
6.8778,1552
6.8806,1551
6.8833,1569
6.8861,1561
6.8889,1560
6.8917,1569
6.8944,1554
6.8972,1542
6.9000,1546
6.9028,1551
6.9056,1559
6.9083,1571
6.9111,1568
6.9139,1549
6.9167,1546
6.9194,1556
6.9222,1567
6.9250,1573
6.9278,1564
6.9306,1560
6.9333,1538
6.9361,1527
6.9389,1517
6.9417,1541
6.9444,1540
6.9472,1562
6.9500,1560
6.9528,1569
6.9556,1559
6.9583,1560
6.9611,1564
6.9639,1556
6.9667,1569
6.9694,1567
6.9722,1562
6.9750,1562
6.9778,1567
6.9806,1571
6.9833,1567
6.9861,1580
6.9889,1588
6.9917,1573
6.9944,1575
6.9972,1563
7.0000,1545
7.0028,1550
7.0056,1556
7.0083,1576
7.0111,1586
7.0139,1584
7.0167,1571
7.0194,1564
7.0222,1569
7.0250,1567
7.0278,1571
7.0306,1592
7.0333,1585
7.0361,1571
7.0389,1570
7.0417,1577
7.0444,1584
7.0472,1594
7.0500,1594
7.0528,1608
7.0556,1600
7.0583,1593
7.0611,1608
7.0639,1601
7.0667,1601
7.0694,1605
7.0722,1616
7.0750,1609
7.0778,1605
7.0806,1596
7.0833,1613
7.0861,1609
7.0889,1619
7.0917,1618
7.0944,1609
7.0972,1602
7.1000,1606
7.1028,1605
7.1056,1611
7.1083,1620
7.1111,1616
7.1139,1619
7.1167,1615
7.1194,1629
7.1222,1618
7.1250,1606
7.1278,1623
7.1306,1622
7.1333,1612
7.1361,1613
7.1389,1628
7.1417,1617
7.1444,1632
7.1472,1634
7.1500,1633
7.1528,1635
7.1556,1638
7.1583,1622
7.1611,1623
7.1639,1619
7.1667,1614
7.1694,1610
7.1722,1615
7.1750,1617
7.1778,1617
7.1806,1630
7.1833,1628
7.1861,1624
7.1889,1631
7.1917,1633
7.1944,1641
7.1972,1654
7.2000,1654
7.2028,1648
7.2056,1634
7.2083,1652
7.2111,1648
7.2139,1649
7.2167,1651
7.2194,1657
7.2222,1664
7.2250,1679
7.2278,1684
7.2306,1688
7.2333,1675
7.2361,1672
7.2389,1670
7.2417,1664
7.2444,1660
7.2472,1665
7.2500,1669
7.2528,1680
7.2556,1689
7.2583,1670
7.2611,1682
7.2639,1686
7.2667,1708
7.2694,1721
7.2722,1733
7.2750,1746
7.2778,1753
7.2806,1779
7.2833,1780
7.2861,1778
7.2889,1778
7.2917,1793
7.2944,1797
7.2972,1794
7.3000,1813
7.3028,1816
7.3056,1821
7.3083,1816
7.3111,1792
7.3139,1786
7.3167,1755
7.3194,1739
7.3222,1713
7.3250,1706
7.3278,1705
7.3306,1703
7.3333,1674
7.3361,1655
7.3389,1654
7.3417,1627
7.3444,1612
7.3472,1602
7.3500,1589
7.3528,1582
7.3556,1602
7.3583,1608
7.3611,1615
7.3639,1621
7.3667,1627
7.3694,1636
7.3722,1638
7.3750,1627
7.3778,1619
7.3806,1627
7.3833,1634
7.3861,1633
7.3889,1641
7.3917,1640
7.3944,1645
7.3972,1660
7.4000,1661
7.4028,1669
7.4056,1674
7.4083,1666
7.4111,1663
7.4139,1655
7.4167,1657
7.4194,1645
7.4222,1642
7.4250,1667
7.4278,1715
7.4306,1809
7.4333,1934
7.4361,2069
7.4389,2244
7.4417,2484
7.4444,2733
7.4472,2972
7.4500,3095
7.4528,3077
7.4556,2881
7.4583,2568
7.4611,2187
7.4639,1784
7.4667,1413
7.4694,1162
7.4722,1006
7.4750,922
7.4778,941
7.4806,1019
7.4833,1142
7.4861,1272
7.4889,1406
7.4917,1537
7.4944,1637
7.4972,1707
7.5000,1748
7.5028,1744
7.5056,1739
7.5083,1724
7.5111,1726
7.5139,1722
7.5167,1728
7.5194,1757
7.5222,1775
7.5250,1777
7.5278,1776
7.5306,1783
7.5333,1780
7.5361,1800
7.5389,1799
7.5417,1801
7.5444,1791
7.5472,1805
7.5500,1798
7.5528,1798
7.5556,1805
7.5583,1827
7.5611,1820
7.5639,1813
7.5667,1811
7.5694,1810
7.5722,1804
7.5750,1817
7.5778,1814
7.5806,1832
7.5833,1844
7.5861,1855
7.5889,1849
7.5917,1842
7.5944,1835
7.5972,1843
7.6000,1852
7.6028,1833
7.6056,1842
7.6083,1838
7.6111,1841
7.6139,1859
7.6167,1874
7.6194,1881
7.6222,1877
7.6250,1874
7.6278,1871
7.6306,1871
7.6333,1889
7.6361,1888
7.6389,1907
7.6417,1911
7.6444,1907
7.6472,1919
7.6500,1927
7.6528,1929
7.6556,1939
7.6583,1849
7.6611,1898
7.6639,1896
7.6667,1896
7.6694,1902
7.6722,1885
7.6750,1863
7.6778,1856
7.6806,1859
7.6833,1878
7.6861,1889
7.6889,1879
7.6917,1886
7.6944,1863
7.6972,1877
7.7000,1880
7.7028,1880
7.7056,1883
7.7083,1882
7.7111,1861
7.7139,1837
7.7167,1827
7.7194,1828
7.7222,1823
7.7250,1831
7.7278,1832
7.7306,1813
7.7333,1783
7.7361,1748
7.7389,1729
7.7417,1720
7.7444,1727
7.7472,1747
7.7500,1735
7.7528,1717
7.7556,1694
7.7583,1691
7.7611,1687
7.7639,1689
7.7667,1697
7.7694,1689
7.7722,1699
7.7750,1700
7.7778,1691
7.7806,1681
7.7833,1676
7.7861,1688
7.7889,1688
7.7917,1676
7.7944,1654
7.7972,1666
7.8000,1665
7.8028,1683
7.8056,1680
7.8083,1681
7.8111,1680
7.8139,1666
7.8167,1663
7.8194,1661
7.8222,1654
7.8250,1669
7.8278,1678
7.8306,1669
7.8333,1654
7.8361,1657
7.8389,1662
7.8417,1668
7.8444,1679
7.8472,1687
7.8500,1674
7.8528,1662
7.8556,1665
7.8583,1664
7.8611,1660
7.8639,1664
7.8667,1672
7.8694,1658
7.8722,1659
7.8750,1648
7.8778,1664
7.8806,1661
7.8833,1651
7.8861,1649
7.8889,1654
7.8917,1642
7.8944,1645
7.8972,1646
7.9000,1637
7.9028,1637
7.9056,1649
7.9083,1659
7.9111,1654
7.9139,1644
7.9167,1658
7.9194,1671
7.9222,1660
7.9250,1653
7.9278,1648
7.9306,1649
7.9333,1641
7.9361,1647
7.9389,1663
7.9417,1679
7.9444,1692
7.9472,1678
7.9500,1685
7.9528,1687
7.9556,1682
7.9583,1691
7.9611,1709
7.9639,1706
7.9667,1712
7.9694,1709
7.9722,1696
7.9750,1702
7.9778,1709
7.9806,1716
7.9833,1710
7.9861,1725
7.9889,1717
7.9917,1721
7.9944,1706
7.9972,1704
8.0000,1696
8.0028,1696
8.0056,1712
8.0083,1708
8.0111,1700
8.0139,1696
8.0167,1692
8.0194,1698
8.0222,1708
8.0250,1697
8.0278,1690
8.0306,1688
8.0333,1692
8.0361,1694
8.0389,1702
8.0417,1700
8.0444,1700
8.0472,1695
8.0500,1685
8.0528,1687
8.0556,1676
8.0583,1679
8.0611,1671
8.0639,1675
8.0667,1667
8.0694,1661
8.0722,1659
8.0750,1653
8.0778,1654
8.0806,1665
8.0833,1670
8.0861,1680
8.0889,1676
8.0917,1657
8.0944,1653
8.0972,1650
8.1000,1642
8.1028,1643
8.1056,1642
8.1083,1642
8.1111,1638
8.1139,1636
8.1167,1650
8.1194,1637
8.1222,1636
8.1250,1639
8.1278,1634
8.1306,1625
8.1333,1632
8.1361,1640
8.1389,1640
8.1417,1637
8.1444,1641
8.1472,1638
8.1500,1649
8.1528,1641
8.1556,1638
8.1583,1640
8.1611,1638
8.1639,1634
8.1667,1624
8.1694,1643
8.1722,1626
8.1750,1638
8.1778,1631
8.1806,1608
8.1833,1627
8.1861,1611
8.1889,1629
8.1917,1600
8.1944,1608
8.1972,1602
8.2000,1615
8.2028,1610
8.2056,1607
8.2083,1622
8.2111,1627
8.2139,1630
8.2167,1628
8.2194,1623
8.2222,1627
8.2250,1620
8.2278,1623
8.2306,1616
8.2333,1613
8.2361,1621
8.2389,1650
8.2417,1660
8.2444,1669
8.2472,1690
8.2500,1712
8.2528,1713
8.2556,1719
8.2583,1728
8.2611,1726
8.2639,1707
8.2667,1695
8.2694,1707
8.2722,1737
8.2750,1748
8.2778,1772
8.2806,1767
8.2833,1769
8.2861,1774
8.2889,1741
8.2917,1711
8.2944,1682
8.2972,1634
8.3000,1633
8.3028,1624
8.3056,1601
8.3083,1589
8.3111,1575
8.3139,1557
8.3167,1554
8.3194,1551
8.3222,1539
8.3250,1535
8.3278,1533
8.3306,1544
8.3333,1530
8.3361,1542
8.3389,1546
8.3417,1558
8.3444,1559
8.3472,1575
8.3500,1563
8.3528,1558
8.3556,1560
8.3583,1553
8.3611,1570
8.3639,1574
8.3667,1588
8.3694,1585
8.3722,1584
8.3750,1587
8.3778,1581
8.3806,1584
8.3833,1582
8.3861,1605
8.3889,1586
8.3917,1596
8.3944,1582
8.3972,1579
8.4000,1602
8.4028,1654
8.4056,1731
8.4083,1831
8.4111,1967
8.4139,2128
8.4167,2331
8.4194,2557
8.4222,2738
8.4250,2801
8.4278,2789
8.4306,2633
8.4333,2355
8.4361,2016
8.4389,1648
8.4417,1286
8.4444,1019
8.4472,892
8.4500,826
8.4528,794
8.4556,833
8.4583,914
8.4611,1034
8.4639,1166
8.4667,1308
8.4694,1451
8.4722,1545
8.4750,1623
8.4778,1644
8.4806,1671
8.4833,1658
8.4861,1638
8.4889,1639
8.4917,1641
8.4944,1655
8.4972,1674
8.5000,1698
8.5028,1711
8.5056,1719
8.5083,1707
8.5111,1708
8.5139,1733
8.5167,1751
8.5194,1760
8.5222,1767
8.5250,1757
8.5278,1754
8.5306,1750
8.5333,1745
8.5361,1735
8.5389,1768
8.5417,1759
8.5444,1776
8.5472,1772
8.5500,1781
8.5528,1780
8.5556,1783
8.5583,1777
8.5611,1784
8.5639,1778
8.5667,1761
8.5694,1756
8.5722,1759
8.5750,1782
8.5778,1796
8.5806,1810
8.5833,1818
8.5861,1810
8.5889,1809
8.5917,1802
8.5944,1802
8.5972,1814
8.6000,1808
8.6028,1804
8.6056,1807
8.6083,1809
8.6111,1822
8.6139,1832
8.6167,1829
8.6194,1847
8.6222,1834
8.6250,1829
8.6278,1819
8.6306,1832
8.6333,1763
8.6361,1794
8.6389,1801
8.6417,1801
8.6444,1803
8.6472,1809
8.6500,1803
8.6528,1795
8.6556,1797
8.6583,1805
8.6611,1818
8.6639,1822
8.6667,1827
8.6694,1815
8.6722,1807
8.6750,1803
8.6778,1796
8.6806,1803
8.6833,1801
8.6861,1792
8.6889,1772
8.6917,1754
8.6944,1727
8.6972,1706
8.7000,1701
8.7028,1697
8.7056,1698
8.7083,1688
8.7111,1682
8.7139,1669
8.7167,1663
8.7194,1645
8.7222,1626
8.7250,1633
8.7278,1625
8.7306,1608
8.7333,1601
8.7361,1593
8.7389,1597
8.7417,1595
8.7444,1583
8.7472,1576
8.7500,1587
8.7528,1596
8.7556,1598
8.7583,1603
8.7611,1617
8.7639,1622
8.7667,1619
8.7694,1609
8.7722,1596
8.7750,1593
8.7778,1591
8.7806,1592
8.7833,1600
8.7861,1612
8.7889,1617
8.7917,1602
8.7944,1611
8.7972,1615
8.8000,1615
8.8028,1607
8.8056,1609
8.8083,1616
8.8111,1607
8.8139,1606
8.8167,1604
8.8194,1604
8.8222,1593
8.8250,1600
8.8278,1617
8.8306,1605
8.8333,1582
8.8361,1588
8.8389,1596
8.8417,1595
8.8444,1600
8.8472,1598
8.8500,1598
8.8528,1585
8.8556,1582
8.8583,1592
8.8611,1589
8.8639,1595
8.8667,1597
8.8694,1607
8.8722,1605
8.8750,1598
8.8778,1590
8.8806,1568
8.8833,1572
8.8861,1592
8.8889,1606
8.8917,1618
8.8944,1614
8.8972,1615
8.9000,1629
8.9028,1632
8.9056,1622
8.9083,1617
8.9111,1615
8.9139,1602
8.9167,1602
8.9194,1610
8.9222,1621
8.9250,1622
8.9278,1623
8.9306,1629
8.9333,1618
8.9361,1621
8.9389,1622
8.9417,1616
8.9444,1616
8.9472,1616
8.9500,1625
8.9528,1616
8.9556,1614
8.9583,1631
8.9611,1632
8.9639,1640
8.9667,1639
8.9694,1648
8.9722,1637
8.9750,1631
8.9778,1630
8.9806,1631
8.9833,1634
8.9861,1632
8.9889,1635
8.9917,1645
8.9944,1645
8.9972,1645
9.0000,1648
9.0028,1646
9.0056,1624
9.0083,1632
9.0111,1634
9.0139,1645
9.0167,1649
9.0194,1648
9.0222,1661
9.0250,1657
9.0278,1655
9.0306,1660
9.0333,1667
9.0361,1661
9.0389,1656
9.0417,1678
9.0444,1671
9.0472,1661
9.0500,1653
9.0528,1658
9.0556,1661
9.0583,1670
9.0611,1679
9.0639,1674
9.0667,1684
9.0694,1686
9.0722,1681
9.0750,1671
9.0778,1660
9.0806,1662
9.0833,1662
9.0861,1674
9.0889,1693
9.0917,1694
9.0944,1689
9.0972,1689
9.1000,1679
9.1028,1674
9.1056,1693
9.1083,1695
9.1111,1694
9.1139,1690
9.1167,1689
9.1194,1671
9.1222,1668
9.1250,1660
9.1278,1681
9.1306,1670
9.1333,1678
9.1361,1686
9.1389,1687
9.1417,1671
9.1444,1667
9.1472,1664
9.1500,1671
9.1528,1669
9.1556,1676
9.1583,1694
9.1611,1704
9.1639,1736
9.1667,1736
9.1694,1737
9.1722,1748
9.1750,1752
9.1778,1761
9.1806,1762
9.1833,1764
9.1861,1792
9.1889,1818
9.1917,1825
9.1944,1848
9.1972,1846
9.2000,1850
9.2028,1848
9.2056,1837
9.2083,1810
9.2111,1768
9.2139,1732
9.2167,1728
9.2194,1725
9.2222,1726
9.2250,1710
9.2278,1698
9.2306,1681
9.2333,1660
9.2361,1637
9.2389,1632
9.2417,1608
9.2444,1614
9.2472,1618
9.2500,1618
9.2528,1648
9.2556,1654
9.2583,1670
9.2611,1660
9.2639,1650
9.2667,1654
9.2694,1654
9.2722,1658
9.2750,1661
9.2778,1650
9.2806,1645
9.2833,1649
9.2861,1651
9.2889,1652
9.2917,1675
9.2944,1669
9.2972,1666
9.3000,1665
9.3028,1654
9.3056,1658
9.3083,1643
9.3111,1630
9.3139,1644
9.3167,1668
9.3194,1732
9.3222,1808
9.3250,1932
9.3278,2057
9.3306,2228
9.3333,2430
9.3361,2643
9.3389,2788
9.3417,2800
9.3444,2705
9.3472,2556
9.3500,2308
9.3528,1994
9.3556,1621
9.3583,1282
9.3611,1046
9.3639,955
9.3667,922
9.3694,882
9.3722,880
9.3750,909
9.3778,1003
9.3806,1148
9.3833,1291
9.3861,1443
9.3889,1588
9.3917,1675
9.3944,1721
9.3972,1738
9.4000,1746
9.4028,1736
9.4056,1722
9.4083,1732
9.4111,1749
9.4139,1764
9.4167,1780
9.4194,1785
9.4222,1790
9.4250,1804
9.4278,1818
9.4306,1817
9.4333,1819
9.4361,1825
9.4389,1832
9.4417,1836
9.4444,1822
9.4472,1819
9.4500,1818
9.4528,1827
9.4556,1822
9.4583,1838
9.4611,1848
9.4639,1860
9.4667,1848
9.4694,1835
9.4722,1847
9.4750,1856
9.4778,1868
9.4806,1865
9.4833,1853
9.4861,1850
9.4889,1855
9.4917,1852
9.4944,1862
9.4972,1874
9.5000,1867
9.5028,1875
9.5056,1861
9.5083,1870
9.5111,1874
9.5139,1883
9.5167,1880
9.5194,1894
9.5222,1890
9.5250,1894
9.5278,1899
9.5306,1905
9.5333,1895
9.5361,1902
9.5389,1907
9.5417,1909
9.5444,1917
9.5472,1924
9.5500,1861
9.5528,1847
9.5556,1832
9.5583,1840
9.5611,1851
9.5639,1862
9.5667,1863
9.5694,1859
9.5722,1849
9.5750,1843
9.5778,1831
9.5806,1831
9.5833,1835
9.5861,1838
9.5889,1843
9.5917,1823
9.5944,1826
9.5972,1835
9.6000,1811
9.6028,1828
9.6056,1818
9.6083,1798
9.6111,1788
9.6139,1786
9.6167,1780
9.6194,1759
9.6222,1746
9.6250,1739
9.6278,1743
9.6306,1718
9.6333,1709
9.6361,1707
9.6389,1720
9.6417,1687
9.6444,1707
9.6472,1692
9.6500,1673
9.6528,1661
9.6556,1659
9.6583,1660
9.6611,1661
9.6639,1665
9.6667,1662
9.6694,1660
9.6722,1640
9.6750,1644
9.6778,1640
9.6806,1641
9.6833,1651
9.6861,1667
9.6889,1663
9.6917,1650
9.6944,1646
9.6972,1640
9.7000,1647
9.7028,1661
9.7056,1656
9.7083,1652
9.7111,1639
9.7139,1649
9.7167,1661
9.7194,1663
9.7222,1662
9.7250,1659
9.7278,1660
9.7306,1661
9.7333,1668
9.7361,1668
9.7389,1681
9.7417,1685
9.7444,1680
9.7472,1680
9.7500,1669
9.7528,1668
9.7556,1658
9.7583,1647
9.7611,1644
9.7639,1650
9.7667,1659
9.7694,1647
9.7722,1654
9.7750,1639
9.7778,1654
9.7806,1644
9.7833,1652
9.7861,1652
9.7889,1655
9.7917,1653
9.7944,1655
9.7972,1654
9.8000,1663
9.8028,1670
9.8056,1680
9.8083,1696
9.8111,1700
9.8139,1685
9.8167,1680
9.8194,1648
9.8222,1639
9.8250,1649
9.8278,1655
9.8306,1671
9.8333,1670
9.8361,1674
9.8389,1676
9.8417,1676
9.8444,1668
9.8472,1686
9.8500,1690
9.8528,1674
9.8556,1665
9.8583,1654
9.8611,1651
9.8639,1665
9.8667,1676
9.8694,1656
9.8722,1665
9.8750,1660
9.8778,1665
9.8806,1675
9.8833,1681
9.8861,1684
9.8889,1691
9.8917,1687
9.8944,1685
9.8972,1692
9.9000,1694
9.9028,1680
9.9056,1682
9.9083,1680
9.9111,1670
9.9139,1679
9.9167,1686
9.9194,1697
9.9222,1700
9.9250,1696
9.9278,1700
9.9306,1691
9.9333,1683
9.9361,1683
9.9389,1705
9.9417,1715
9.9444,1704
9.9472,1707
9.9500,1708
9.9528,1698
9.9556,1698
9.9583,1697
9.9611,1704
9.9639,1710
9.9667,1715
9.9694,1721
9.9722,1726
9.9750,1737
9.9778,1729
9.9806,1715
9.9833,1709
9.9861,1714
9.9889,1720
9.9917,1713
9.9944,1734
9.9972,1745
10.0000,1762
10.0028,1748
10.0056,1758
10.0083,1777
10.0111,1783
10.0139,1794
10.0167,1777
10.0194,1776
10.0222,1796
10.0250,1814
10.0278,1829
10.0306,1851
10.0333,1865
10.0361,1864
10.0389,1867
10.0417,1841
10.0444,1837
10.0472,1811
10.0500,1778
10.0528,1750
10.0556,1740
10.0583,1716
10.0611,1716
10.0639,1713
10.0667,1711
10.0694,1705
10.0722,1679
10.0750,1667
10.0778,1652
10.0806,1636
10.0833,1636
10.0861,1633
10.0889,1647
10.0917,1654
10.0944,1690
10.0972,1683
10.1000,1687
10.1028,1682
10.1056,1678
10.1083,1666
10.1111,1664
10.1139,1687
10.1167,1692
10.1194,1709
10.1222,1709
10.1250,1727
10.1278,1726
10.1306,1726
10.1333,1710
10.1361,1709
10.1389,1725
10.1417,1730
10.1444,1743
10.1472,1756
10.1500,1762
10.1528,1772
10.1556,1822
10.1583,1900
10.1611,1986
10.1639,2114
10.1667,2262
10.1694,2447
10.1722,2676
10.1750,2881
10.1778,2966
10.1806,2903
10.1833,2754
10.1861,2556
10.1889,2277
10.1917,1924
10.1944,1553
10.1972,1260
10.2000,1105
10.2028,1055
10.2056,1039
10.2083,1030
10.2111,1029
10.2139,1088
10.2167,1193
10.2194,1318
10.2222,1464
10.2250,1600
10.2278,1720
10.2306,1794
10.2333,1843
10.2361,1838
10.2389,1863
10.2417,1845
10.2444,1849
10.2472,1864
10.2500,1877
10.2528,1876
10.2556,1883
10.2583,1911
10.2611,1913
10.2639,1906
10.2667,1905
10.2694,1905
10.2722,1903
10.2750,1907
10.2778,1898
10.2806,1911
10.2833,1920
10.2861,1929
10.2889,1940
10.2917,1936
10.2944,1941
10.2972,1945
10.3000,1929
10.3028,1916
10.3056,1909
10.3083,1904
10.3111,1920
10.3139,1929
10.3167,1949
10.3194,1944
10.3222,1937
10.3250,1928
10.3278,1934
10.3306,1944
10.3333,1953
10.3361,1953
10.3389,1947
10.3417,1942
10.3444,1937
10.3472,1937
10.3500,1954
10.3528,1945
10.3556,1945
10.3583,1945
10.3611,1945
10.3639,1947
10.3667,1943
10.3694,1955
10.3722,1942
10.3750,1944
10.3778,1955
10.3806,1955
10.3833,1946
10.3861,1934
10.3889,1878
10.3917,1865
10.3944,1858
10.3972,1859
10.4000,1867
10.4028,1886
10.4056,1875
10.4083,1871
10.4111,1866
10.4139,1862
10.4167,1856
10.4194,1844
10.4222,1860
10.4250,1863
10.4278,1863
10.4306,1854
10.4333,1839
10.4361,1829
10.4389,1801
10.4417,1807
10.4444,1808
10.4472,1807
10.4500,1788
10.4528,1768
10.4556,1743
10.4583,1710
10.4611,1724
10.4639,1708
10.4667,1715
10.4694,1692
10.4722,1689
10.4750,1695
10.4778,1682
10.4806,1683
10.4833,1657
10.4861,1660
10.4889,1647
10.4917,1637
10.4944,1624
10.4972,1616
10.5000,1628
10.5028,1630
10.5056,1637
10.5083,1647
10.5111,1650
10.5139,1670
10.5167,1672
10.5194,1686
10.5222,1694
10.5250,1675
10.5278,1662
10.5306,1669
10.5333,1660
10.5361,1668
10.5389,1670
10.5417,1669
10.5444,1685
10.5472,1685
10.5500,1679
10.5528,1681
10.5556,1681
10.5583,1669
10.5611,1668
10.5639,1676
10.5667,1677
10.5694,1668
10.5722,1665
10.5750,1661
10.5778,1667
10.5806,1660
10.5833,1658
10.5861,1657
10.5889,1651
10.5917,1646
10.5944,1647
10.5972,1645
10.6000,1637
10.6028,1634
10.6056,1643
10.6083,1659
10.6111,1657
10.6139,1644
10.6167,1649
10.6194,1646
10.6222,1662
10.6250,1653
10.6278,1670
10.6306,1656
10.6333,1655
10.6361,1659
10.6389,1648
10.6417,1642
10.6444,1646
10.6472,1651
10.6500,1662
10.6528,1662
10.6556,1678
10.6583,1682
10.6611,1685
10.6639,1673
10.6667,1667
10.6694,1657
10.6722,1645
10.6750,1628
10.6778,1641
10.6806,1646
10.6833,1653
10.6861,1670
10.6889,1671
10.6917,1670
10.6944,1653
10.6972,1642
10.7000,1652
10.7028,1656
10.7056,1660
10.7083,1660
10.7111,1665
10.7139,1670
10.7167,1668
10.7194,1671
10.7222,1669
10.7250,1654
10.7278,1663
10.7306,1663
10.7333,1665
10.7361,1678
10.7389,1675
10.7417,1673
10.7444,1671
10.7472,1668
10.7500,1660
10.7528,1655
10.7556,1662
10.7583,1660
10.7611,1664
10.7639,1652
10.7667,1660
10.7694,1655
10.7722,1658
10.7750,1656
10.7778,1663
10.7806,1662
10.7833,1650
10.7861,1652
10.7889,1663
10.7917,1658
10.7944,1663
10.7972,1667
10.8000,1649
10.8028,1661
10.8056,1655
10.8083,1654
10.8111,1637
10.8139,1655
10.8167,1681
10.8194,1706
10.8222,1718
10.8250,1730
10.8278,1741
10.8306,1728
10.8333,1721
10.8361,1729
10.8389,1714
10.8417,1725
10.8444,1744
10.8472,1767
10.8500,1786
10.8528,1797
10.8556,1806
10.8583,1803
10.8611,1792
10.8639,1805
10.8667,1813
10.8694,1784
10.8722,1748
10.8750,1720
10.8778,1696
10.8806,1694
10.8833,1668
10.8861,1671
10.8889,1649
10.8917,1630
10.8944,1619
10.8972,1599
10.9000,1598
10.9028,1584
10.9056,1585
10.9083,1576
10.9111,1584
10.9139,1590
10.9167,1599
10.9194,1607
10.9222,1610
10.9250,1600
10.9278,1595
10.9306,1590
10.9333,1594
10.9361,1597
10.9389,1609
10.9417,1623
10.9444,1608
10.9472,1617
10.9500,1612
10.9528,1625
10.9556,1620
10.9583,1606
10.9611,1588
10.9639,1583
10.9667,1568
10.9694,1570
10.9722,1582
10.9750,1589
10.9778,1654
10.9806,1733
10.9833,1842
10.9861,1970
10.9889,2113
10.9917,2293
10.9944,2542
10.9972,2765
11.0000,2840
11.0028,2795
11.0056,2673
11.0083,2436
11.0111,2127
11.0139,1751
11.0167,1362
11.0194,1046
11.0222,880
11.0250,819
11.0278,794
11.0306,771
11.0333,806
11.0361,885
11.0389,1011
11.0417,1165
11.0444,1321
11.0472,1478
11.0500,1571
11.0528,1619
11.0556,1645
11.0583,1658
11.0611,1666
11.0639,1669
11.0667,1667
11.0694,1666
11.0722,1679
11.0750,1707
11.0778,1728
11.0806,1723
11.0833,1732
11.0861,1727
11.0889,1737
11.0917,1753
11.0944,1760
11.0972,1766
11.1000,1763
11.1028,1761
11.1056,1762
11.1083,1750
11.1111,1766
11.1139,1762
11.1167,1775
11.1194,1782
11.1222,1782
11.1250,1789
11.1278,1780
11.1306,1800
11.1333,1797
11.1361,1809
11.1389,1808
11.1417,1819
11.1444,1802
11.1472,1813
11.1500,1809
11.1528,1807
11.1556,1820
11.1583,1822
11.1611,1816
11.1639,1809
11.1667,1822
11.1694,1840
11.1722,1854
11.1750,1860
11.1778,1858
11.1806,1857
11.1833,1861
11.1861,1874
11.1889,1866
11.1917,1858
11.1944,1842
11.1972,1868
11.2000,1858
11.2028,1844
11.2056,1852
11.2083,1850
11.2111,1801
11.2139,1832
11.2167,1826
11.2194,1827
11.2222,1812
11.2250,1811
11.2278,1813
11.2306,1805
11.2333,1794
11.2361,1801
11.2389,1806
11.2417,1816
11.2444,1829
11.2472,1834
11.2500,1803
11.2528,1793
11.2556,1773
11.2583,1770
11.2611,1757
11.2639,1747
11.2667,1745
11.2694,1723
11.2722,1705
11.2750,1692
11.2778,1689
11.2806,1678
11.2833,1675
11.2861,1651
11.2889,1638
11.2917,1629
11.2944,1611
11.2972,1611
11.3000,1627
11.3028,1616
11.3056,1626
11.3083,1618
11.3111,1603
11.3139,1588
11.3167,1587
11.3194,1588
11.3222,1604
11.3250,1600
11.3278,1598
11.3306,1570
11.3333,1583
11.3361,1577
11.3389,1595
11.3417,1589
11.3444,1591
11.3472,1604
11.3500,1587
11.3528,1585
11.3556,1588
11.3583,1572
11.3611,1581
11.3639,1601
11.3667,1610
11.3694,1600
11.3722,1599
11.3750,1581
11.3778,1580
11.3806,1583
11.3833,1588
11.3861,1592
11.3889,1608
11.3917,1606
11.3944,1598
11.3972,1612
11.4000,1595
11.4028,1584
11.4056,1567
11.4083,1590
11.4111,1579
11.4139,1563
11.4167,1573
11.4194,1571
11.4222,1574
11.4250,1570
11.4278,1577
11.4306,1589
11.4333,1575
11.4361,1580
11.4389,1582
11.4417,1579
11.4444,1584
11.4472,1577
11.4500,1568
11.4528,1570
11.4556,1581
11.4583,1581
11.4611,1581
11.4639,1584
11.4667,1584
11.4694,1584
11.4722,1586
11.4750,1578
11.4778,1577
11.4806,1567
11.4833,1585
11.4861,1595
11.4889,1583
11.4917,1575
11.4944,1586
11.4972,1603
11.5000,1601
11.5028,1593
11.5056,1593
11.5083,1589
11.5111,1584
11.5139,1589
11.5167,1571
11.5194,1550
11.5222,1555
11.5250,1576
11.5278,1565
11.5306,1569
11.5333,1576
11.5361,1570
11.5389,1585
11.5417,1573
11.5444,1571
11.5472,1579
11.5500,1582
11.5528,1583
11.5556,1590
11.5583,1593
11.5611,1582
11.5639,1586
11.5667,1604
11.5694,1592
11.5722,1585
11.5750,1572
11.5778,1597
11.5806,1581
11.5833,1572
11.5861,1578
11.5889,1601
11.5917,1621
11.5944,1641
11.5972,1657
11.6000,1647
11.6028,1641
11.6056,1630
11.6083,1615
11.6111,1580
11.6139,1596
11.6167,1605
11.6194,1611
11.6222,1619
11.6250,1624
11.6278,1642
11.6306,1653
11.6333,1641
11.6361,1640
11.6389,1636
11.6417,1625
11.6444,1628
11.6472,1617
11.6500,1607
11.6528,1617
11.6556,1628
11.6583,1636
11.6611,1638
11.6639,1651
11.6667,1638
11.6694,1644
11.6722,1638
11.6750,1647
11.6778,1641
11.6806,1643
11.6833,1640
11.6861,1641
11.6889,1647
11.6917,1654
11.6944,1693
11.6972,1710
11.7000,1729
11.7028,1728
11.7056,1732
11.7083,1747
11.7111,1750
11.7139,1752
11.7167,1759
11.7194,1753
11.7222,1757
11.7250,1778
11.7278,1806
11.7306,1821
11.7333,1829
11.7361,1843
11.7389,1827
11.7417,1834
11.7444,1820
11.7472,1785
11.7500,1749
11.7528,1725
11.7556,1714
11.7583,1700
11.7611,1682
11.7639,1699
11.7667,1691
11.7694,1674
11.7722,1634
11.7750,1621
11.7778,1602
11.7806,1594
11.7833,1608
11.7861,1607
11.7889,1622
11.7917,1619
11.7944,1621
11.7972,1638
11.8000,1646
11.8028,1654
11.8056,1658
11.8083,1660
11.8111,1652
11.8139,1654
11.8167,1645
11.8194,1649
11.8222,1658
11.8250,1658
11.8278,1654
11.8306,1652
11.8333,1668
11.8361,1680
11.8389,1686
11.8417,1676
11.8444,1671
11.8472,1668
11.8500,1662
11.8528,1689
11.8556,1721
11.8583,1803
11.8611,1919
11.8639,2054
11.8667,2221
11.8694,2428
11.8722,2666
11.8750,2896
11.8778,3004
11.8806,2996
11.8833,2870
11.8861,2625
11.8889,2281
11.8917,1870
11.8944,1475
11.8972,1171
11.9000,1006
11.9028,916
11.9056,859
11.9083,872
11.9111,949
11.9139,1059
11.9167,1207
11.9194,1355
11.9222,1496
11.9250,1614
11.9278,1687
11.9306,1723
11.9333,1737
11.9361,1747
11.9389,1741
11.9417,1737
11.9444,1744
11.9472,1759
11.9500,1773
11.9528,1782
11.9556,1790
11.9583,1795
11.9611,1794
11.9639,1787
11.9667,1790
11.9694,1797
11.9722,1814
11.9750,1808
11.9778,1796
11.9806,1786
11.9833,1790
11.9861,1788
11.9889,1821
11.9917,1820
11.9944,1828
11.9972,1827
12.0000,1827
12.0028,1807
12.0056,1816
12.0083,1823
12.0111,1826
12.0139,1834
12.0167,1835
12.0194,1818
12.0222,1823
12.0250,1810
12.0278,1834
12.0306,1853
12.0333,1854
12.0361,1868
12.0389,1867
12.0417,1863
12.0444,1871
12.0472,1863
12.0500,1865
12.0528,1863
12.0556,1860
12.0583,1860
12.0611,1867
12.0639,1852
12.0667,1869
12.0694,1880
12.0722,1883
12.0750,1866
12.0778,1861
12.0806,1852
12.0833,1839
12.0861,1875
12.0889,1849
12.0917,1854
12.0944,1852
12.0972,1839
12.1000,1830
12.1028,1834
12.1056,1840
12.1083,1833
12.1111,1833
12.1139,1830
12.1167,1836
12.1194,1842
12.1222,1836
12.1250,1841
12.1278,1834
12.1306,1812
12.1333,1795
12.1361,1788
12.1389,1768
12.1417,1767
12.1444,1764
12.1472,1739
12.1500,1708
12.1528,1685
12.1556,1687
12.1583,1689
12.1611,1705
12.1639,1702
12.1667,1666
12.1694,1646
12.1722,1643
12.1750,1639
12.1778,1633
12.1806,1628
12.1833,1623
12.1861,1632
12.1889,1613
12.1917,1607
12.1944,1604
12.1972,1582
12.2000,1580
12.2028,1588
12.2056,1606
12.2083,1620
12.2111,1603
12.2139,1611
12.2167,1613
12.2194,1604
12.2222,1612
12.2250,1614
12.2278,1621
12.2306,1612
12.2333,1611
12.2361,1603
12.2389,1622
12.2417,1626
12.2444,1633
12.2472,1644
12.2500,1635
12.2528,1623
12.2556,1613
12.2583,1608
12.2611,1624
12.2639,1630
12.2667,1633
12.2694,1613
12.2722,1605
12.2750,1596
12.2778,1601
12.2806,1615
12.2833,1613
12.2861,1613
12.2889,1598
12.2917,1590
12.2944,1593
12.2972,1587
12.3000,1581
12.3028,1570
12.3056,1594
12.3083,1595
12.3111,1591
12.3139,1585
12.3167,1598
12.3194,1607
12.3222,1597
12.3250,1606
12.3278,1592
12.3306,1583
12.3333,1575
12.3361,1553
12.3389,1560
12.3417,1584
12.3444,1612
12.3472,1608
12.3500,1595
12.3528,1586
12.3556,1578
12.3583,1572
12.3611,1586
12.3639,1607
12.3667,1610
12.3694,1607
12.3722,1623
12.3750,1600
12.3778,1595
12.3806,1599
12.3833,1598
12.3861,1593
12.3889,1602
12.3917,1608
12.3944,1615
12.3972,1609
12.4000,1605
12.4028,1601
12.4056,1594
12.4083,1592
12.4111,1610
12.4139,1607
12.4167,1617
12.4194,1631
12.4222,1633
12.4250,1613
12.4278,1618
12.4306,1625
12.4333,1617
12.4361,1628
12.4389,1634
12.4417,1629
12.4444,1654
12.4472,1653
12.4500,1652
12.4528,1657
12.4556,1650
12.4583,1656
12.4611,1644
12.4639,1640
12.4667,1637
12.4694,1647
12.4722,1648
12.4750,1656
12.4778,1654
12.4806,1630
12.4833,1636
12.4861,1644
12.4889,1660
12.4917,1659
12.4944,1660
12.4972,1662
12.5000,1653
12.5028,1641
12.5056,1645
12.5083,1643
12.5111,1640
12.5139,1645
12.5167,1652
12.5194,1661
12.5222,1666
12.5250,1673
12.5278,1670
12.5306,1665
12.5333,1655
12.5361,1643
12.5389,1636
12.5417,1639
12.5444,1640
12.5472,1639
12.5500,1644
12.5528,1638
12.5556,1649
12.5583,1659
12.5611,1682
12.5639,1682
12.5667,1679
12.5694,1659
12.5722,1654
12.5750,1679
12.5778,1686
12.5806,1685
12.5833,1699
12.5861,1695
12.5889,1703
12.5917,1706
12.5944,1710
12.5972,1699
12.6000,1695
12.6028,1688
12.6056,1695
12.6083,1675
12.6111,1684
12.6139,1693
12.6167,1717
12.6194,1723
12.6222,1734
12.6250,1754
12.6278,1783
12.6306,1787
12.6333,1802
12.6361,1819
12.6389,1833
12.6417,1831
12.6444,1829
12.6472,1822
12.6500,1838
12.6528,1823
12.6556,1857
12.6583,1866
12.6611,1886
12.6639,1900
12.6667,1896
12.6694,1890
12.6722,1878
12.6750,1849
12.6778,1801
12.6806,1762
12.6833,1748
12.6861,1746
12.6889,1744
12.6917,1741
12.6944,1743
12.6972,1722
12.7000,1700
12.7028,1670
12.7056,1649
12.7083,1641
12.7111,1653
12.7139,1661
12.7167,1652
12.7194,1648
12.7222,1641
12.7250,1660
12.7278,1669
12.7306,1664
12.7333,1670
12.7361,1666
12.7389,1666
12.7417,1666
12.7444,1678
12.7472,1690
12.7500,1688
12.7528,1675
12.7556,1662
12.7583,1677
12.7611,1665
12.7639,1684
12.7667,1684
12.7694,1681
12.7722,1661
12.7750,1646
12.7778,1644
12.7806,1655
12.7833,1693
12.7861,1775
12.7889,1872
12.7917,2001
12.7944,2146
12.7972,2346
12.8000,2596
12.8028,2846
12.8056,3003
12.8083,3047
12.8111,2958
12.8139,2712
12.8167,2347
12.8194,1935
12.8222,1534
12.8250,1229
12.8278,1051
12.8306,964
12.8333,916
12.8361,939
12.8389,1006
12.8417,1112
12.8444,1265
12.8472,1421
12.8500,1541
12.8528,1644
12.8556,1679
12.8583,1683
12.8611,1673
12.8639,1659
12.8667,1646
12.8694,1639
12.8722,1665
12.8750,1682
12.8778,1696
12.8806,1720
12.8833,1717
12.8861,1714
12.8889,1707
12.8917,1698
12.8944,1713
12.8972,1730
12.9000,1729
12.9028,1737
12.9056,1733
12.9083,1735
12.9111,1739
12.9139,1747
12.9167,1763
12.9194,1764
12.9222,1761
12.9250,1773
12.9278,1763
12.9306,1756
12.9333,1766
12.9361,1764
12.9389,1775
12.9417,1779
12.9444,1791
12.9472,1788
12.9500,1788
12.9528,1779
12.9556,1800
12.9583,1804
12.9611,1812
12.9639,1829
12.9667,1826
12.9694,1832
12.9722,1853
12.9750,1857
12.9778,1866
12.9806,1848
12.9833,1849
12.9861,1861
12.9889,1848
12.9917,1841
12.9944,1852
12.9972,1868
13.0000,1869
13.0028,1866
13.0056,1864
13.0083,1872
13.0111,1878
13.0139,1897
13.0167,1837
13.0194,1856
13.0222,1865
13.0250,1873
13.0278,1859
13.0306,1841
13.0333,1840
13.0361,1837
13.0389,1838
13.0417,1855
13.0444,1866
13.0472,1854
13.0500,1843
13.0528,1824
13.0556,1825
13.0583,1840
13.0611,1829
13.0639,1826
13.0667,1803
13.0694,1781
13.0722,1760
13.0750,1749
13.0778,1757
13.0806,1746
13.0833,1756
13.0861,1737
13.0889,1696
13.0917,1675
13.0944,1668
13.0972,1650
13.1000,1657
13.1028,1678
13.1056,1668
13.1083,1660
13.1111,1632
13.1139,1620
13.1167,1620
13.1194,1632
13.1222,1643
13.1250,1649
13.1278,1625
13.1306,1620
13.1333,1630
13.1361,1620
13.1389,1644
13.1417,1657
13.1444,1655
13.1472,1636
13.1500,1621
13.1528,1624
13.1556,1616
13.1583,1633
13.1611,1640
13.1639,1649
13.1667,1653
13.1694,1635
13.1722,1633
13.1750,1635
13.1778,1649
13.1806,1664
13.1833,1670
13.1861,1662
13.1889,1643
13.1917,1637
13.1944,1631
13.1972,1628
13.2000,1638
13.2028,1656
13.2056,1655
13.2083,1651
13.2111,1639
13.2139,1635
13.2167,1634
13.2194,1639
13.2222,1661
13.2250,1662
13.2278,1654
13.2306,1640
13.2333,1640
13.2361,1651
13.2389,1666
13.2417,1660
13.2444,1679
13.2472,1658
13.2500,1640
13.2528,1647
13.2556,1650
13.2583,1658
13.2611,1663
13.2639,1671
13.2667,1660
13.2694,1648
13.2722,1650
13.2750,1659
13.2778,1675
13.2806,1658
13.2833,1654
13.2861,1647
13.2889,1624
13.2917,1621
13.2944,1636
13.2972,1638
13.3000,1649
13.3028,1660
13.3056,1666
13.3083,1650
13.3111,1659
13.3139,1646
13.3167,1651
13.3194,1642
13.3222,1653
13.3250,1655
13.3278,1638
13.3306,1649
13.3333,1662
13.3361,1672
13.3389,1669
13.3417,1672
13.3444,1671
13.3472,1658
13.3500,1658
13.3528,1655
13.3556,1658
13.3583,1669
13.3611,1661
13.3639,1661
13.3667,1662
13.3694,1673
13.3722,1664
13.3750,1660
13.3778,1659
13.3806,1666
13.3833,1673
13.3861,1660
13.3889,1655
13.3917,1628
13.3944,1643
13.3972,1641
13.4000,1645
13.4028,1667
13.4056,1671
13.4083,1673
13.4111,1668
13.4139,1674
13.4167,1669
13.4194,1670
13.4222,1683
13.4250,1684
13.4278,1680
13.4306,1671
13.4333,1669
13.4361,1680
13.4389,1671
13.4417,1660
13.4444,1663
13.4472,1652
13.4500,1665
13.4528,1674
13.4556,1661
13.4583,1669
13.4611,1665
13.4639,1672
13.4667,1671
13.4694,1690
13.4722,1684
13.4750,1689
13.4778,1683
13.4806,1666
13.4833,1666
13.4861,1675
13.4889,1678
13.4917,1678
13.4944,1691
13.4972,1701
13.5000,1693
13.5028,1696
13.5056,1694
13.5083,1689
13.5111,1700
13.5139,1695
13.5167,1694
13.5194,1691
13.5222,1685
13.5250,1674
13.5278,1691
13.5306,1729
13.5333,1765
13.5361,1785
13.5389,1802
13.5417,1813
13.5444,1823
13.5472,1815
13.5500,1800
13.5528,1791
13.5556,1792
13.5583,1825
13.5611,1840
13.5639,1847
13.5667,1857
13.5694,1856
13.5722,1851
13.5750,1847
13.5778,1838
13.5806,1802
13.5833,1772
13.5861,1748
13.5889,1724
13.5917,1720
13.5944,1721
13.5972,1697
13.6000,1678
13.6028,1667
13.6056,1648
13.6083,1642
13.6111,1616
13.6139,1616
13.6167,1619
13.6194,1627
13.6222,1630
13.6250,1630
13.6278,1631
13.6306,1635
13.6333,1643
13.6361,1662
13.6389,1665
13.6417,1656
13.6444,1642
13.6472,1649
13.6500,1643
13.6528,1642
13.6556,1643
13.6583,1647
13.6611,1644
13.6639,1678
13.6667,1689
13.6694,1676
13.6722,1689
13.6750,1670
13.6778,1675
13.6806,1653
13.6833,1650
13.6861,1667
13.6889,1713
13.6917,1784
13.6944,1884
13.6972,2008
13.7000,2143
13.7028,2340
13.7056,2572
13.7083,2798
13.7111,2932
13.7139,2951
13.7167,2842
13.7194,2593
13.7222,2258
13.7250,1877
13.7278,1510
13.7306,1215
13.7333,1060
13.7361,986
13.7389,925
13.7417,913
13.7444,956
13.7472,1047
13.7500,1181
13.7528,1339
13.7556,1494
13.7583,1616
13.7611,1672
13.7639,1722
13.7667,1729
13.7694,1725
13.7722,1722
13.7750,1730
13.7778,1741
13.7806,1740
13.7833,1754
13.7861,1765
13.7889,1773
13.7917,1769
13.7944,1764
13.7972,1775
13.8000,1788
13.8028,1818
13.8056,1830
13.8083,1834
13.8111,1818
13.8139,1801
13.8167,1788
13.8194,1793
13.8222,1807
13.8250,1834
13.8278,1829
13.8306,1827
13.8333,1837
13.8361,1810
13.8389,1823
13.8417,1816
13.8444,1823
13.8472,1826
13.8500,1821
13.8528,1826
13.8556,1824
13.8583,1816
13.8611,1831
13.8639,1839
13.8667,1867
13.8694,1878
13.8722,1867
13.8750,1863
13.8778,1859
13.8806,1850
13.8833,1867
13.8861,1874
13.8889,1874
13.8917,1887
13.8944,1880
13.8972,1889
13.9000,1899
13.9028,1895
13.9056,1907
13.9083,1910
13.9111,1905
13.9139,1909
13.9167,1913
13.9194,1900
13.9222,1991
13.9250,1956
13.9278,1934
13.9306,1913
13.9333,1920
13.9361,1913
13.9389,1944
13.9417,1949
13.9444,1961
13.9472,1947
13.9500,1940
13.9528,1950
13.9556,1939
13.9583,1948
13.9611,1964
13.9639,1968
13.9667,1960
13.9694,1926
13.9722,1915
13.9750,1906
13.9778,1898
13.9806,1907
13.9833,1905
13.9861,1873
13.9889,1844
13.9917,1813
13.9944,1802
13.9972,1787
14.0000,1790
14.0028,1801
14.0056,1801
14.0083,1770
14.0111,1746
14.0139,1730
14.0167,1730
14.0194,1732
14.0222,1742
14.0250,1744
14.0278,1733
14.0306,1737
14.0333,1739
14.0361,1733
14.0389,1723
14.0417,1706
14.0444,1718
14.0472,1716
14.0500,1729
14.0528,1733
14.0556,1728
14.0583,1733
14.0611,1754
14.0639,1752
14.0667,1734
14.0694,1717
14.0722,1711
14.0750,1707
14.0778,1712
14.0806,1727
14.0833,1744
14.0861,1738
14.0889,1725
14.0917,1705
14.0944,1695
14.0972,1699
14.1000,1705
14.1028,1707
14.1056,1710
14.1083,1692
14.1111,1681
14.1139,1681
14.1167,1674
14.1194,1674
14.1222,1670
14.1250,1671
14.1278,1660
14.1306,1667
14.1333,1666
14.1361,1660
14.1389,1663
14.1417,1674
14.1444,1686
14.1472,1695
14.1500,1686
14.1528,1677
14.1556,1661
14.1583,1657
14.1611,1659
14.1639,1656
14.1667,1651
14.1694,1647
14.1722,1657
14.1750,1673
14.1778,1676
14.1806,1676
14.1833,1657
14.1861,1666
14.1889,1667
14.1917,1655
14.1944,1642
14.1972,1647
14.2000,1653
14.2028,1673
14.2056,1683
14.2083,1676
14.2111,1675
14.2139,1664
14.2167,1659
14.2194,1655
14.2222,1662
14.2250,1683
14.2278,1680
14.2306,1673
14.2333,1668
14.2361,1674
14.2389,1660
14.2417,1677
14.2444,1694
14.2472,1678
14.2500,1661
14.2528,1675
14.2556,1681
14.2583,1700
14.2611,1696
14.2639,1698
14.2667,1707
14.2694,1682
14.2722,1676
14.2750,1691
14.2778,1688
14.2806,1681
14.2833,1683
14.2861,1671
14.2889,1677
14.2917,1673
14.2944,1689
14.2972,1680
14.3000,1693
14.3028,1690
14.3056,1717
14.3083,1723
14.3111,1720
14.3139,1723
14.3167,1720
14.3194,1715
14.3222,1708
14.3250,1712
14.3278,1709
14.3306,1690
14.3333,1684
14.3361,1674
14.3389,1683
14.3417,1697
14.3444,1703
14.3472,1706
14.3500,1688
14.3528,1694
14.3556,1683
14.3583,1672
14.3611,1674
14.3639,1683
14.3667,1683
14.3694,1695
14.3722,1702
14.3750,1717
14.3778,1710
14.3806,1699
14.3833,1693
14.3861,1684
14.3889,1677
14.3917,1693
14.3944,1714
14.3972,1724
14.4000,1725
14.4028,1732
14.4056,1735
14.4083,1744
14.4111,1747
14.4139,1759
14.4167,1777
14.4194,1786
14.4222,1776
14.4250,1775
14.4278,1773
14.4306,1789
14.4333,1794
14.4361,1816
14.4389,1828
14.4417,1854
14.4444,1869
14.4472,1867
14.4500,1850
14.4528,1828
14.4556,1792
14.4583,1747
14.4611,1731
14.4639,1739
14.4667,1726
14.4694,1708
14.4722,1698
14.4750,1684
14.4778,1668
14.4806,1665
14.4833,1647
14.4861,1636
14.4889,1635
14.4917,1636
14.4944,1635
14.4972,1633
14.5000,1632
14.5028,1643
14.5056,1657
14.5083,1666
14.5111,1666
14.5139,1669
14.5167,1678
14.5194,1664
14.5222,1678
14.5250,1673
14.5278,1674
14.5306,1673
14.5333,1663
14.5361,1660
14.5389,1686
14.5417,1660
14.5444,1680
14.5472,1687
14.5500,1671
14.5528,1638
14.5556,1635
14.5583,1636
14.5611,1674
14.5639,1736
14.5667,1830
14.5694,1942
14.5722,2064
14.5750,2252
14.5778,2454
14.5806,2695
14.5833,2828
14.5861,2838
14.5889,2746
14.5917,2600
14.5944,2328
14.5972,2018
14.6000,1632
14.6028,1304
14.6056,1077
14.6083,985
14.6111,941
14.6139,904
14.6167,881
14.6194,918
14.6222,995
14.6250,1142
14.6278,1295
14.6306,1452
14.6333,1558
14.6361,1641
14.6389,1690
14.6417,1710
14.6444,1721
14.6472,1717
14.6500,1707
14.6528,1709
14.6556,1713
14.6583,1726
14.6611,1742
14.6639,1761
14.6667,1763
14.6694,1763
14.6722,1761
14.6750,1761
14.6778,1775
14.6806,1778
14.6833,1776
14.6861,1766
14.6889,1778
14.6917,1781
14.6944,1788
14.6972,1785
14.7000,1789
14.7028,1788
14.7056,1815
14.7083,1815
14.7111,1821
14.7139,1834
14.7167,1848
14.7194,1848
14.7222,1838
14.7250,1836
14.7278,1821
14.7306,1819
14.7333,1841
14.7361,1843
14.7389,1869
14.7417,1867
14.7444,1869
14.7472,1865
14.7500,1856
14.7528,1859
14.7556,1853
14.7583,1835
14.7611,1834
14.7639,1844
14.7667,1857
14.7694,1848
14.7722,1845
14.7750,1841
14.7778,1859
14.7806,1861
14.7833,1880
14.7861,1888
14.7889,1894
14.7917,1888
14.7944,1786
14.7972,1823
14.8000,1832
14.8028,1838
14.8056,1829
14.8083,1801
14.8111,1797
14.8139,1801
14.8167,1816
14.8194,1818
14.8222,1828
14.8250,1830
14.8278,1811
14.8306,1797
14.8333,1800
14.8361,1802
14.8389,1810
14.8417,1818
14.8444,1808
14.8472,1786
14.8500,1756
14.8528,1726
14.8556,1708
14.8583,1727
14.8611,1743
14.8639,1726
14.8667,1705
14.8694,1674
14.8722,1646
14.8750,1640
14.8778,1657
14.8806,1651
14.8833,1648
14.8861,1637
14.8889,1615
14.8917,1609
14.8944,1600
14.8972,1592
14.9000,1607
14.9028,1616
14.9056,1616
14.9083,1604
14.9111,1583
14.9139,1617
14.9167,1629
14.9194,1622
14.9222,1625
14.9250,1630
14.9278,1617
14.9306,1592
14.9333,1610
14.9361,1609
14.9389,1614
14.9417,1641
14.9444,1642
14.9472,1634
14.9500,1630
14.9528,1628
14.9556,1619
14.9583,1615
14.9611,1622
14.9639,1639
14.9667,1628
14.9694,1613
14.9722,1615
14.9750,1622
14.9778,1650
14.9806,1652
14.9833,1641
14.9861,1640
14.9889,1628
14.9917,1619
14.9944,1619
14.9972,1645
15.0000,1649
15.0028,1656
15.0056,1636
15.0083,1630
15.0111,1619
15.0139,1623
15.0167,1601
15.0194,1625
15.0222,1628
15.0250,1634
15.0278,1627
15.0306,1616
15.0333,1631
15.0361,1631
15.0389,1614
15.0417,1627
15.0444,1630
15.0472,1618
15.0500,1620
15.0528,1618
15.0556,1630
15.0583,1624
15.0611,1622
15.0639,1622
15.0667,1617
15.0694,1606
15.0722,1587
15.0750,1595
15.0778,1592
15.0806,1589
15.0833,1607
15.0861,1625
15.0889,1621
15.0917,1628
15.0944,1629
15.0972,1621
15.1000,1626
15.1028,1631
15.1056,1627
15.1083,1621
15.1111,1610
15.1139,1626
15.1167,1630
15.1194,1637
15.1222,1644
15.1250,1642
15.1278,1624
15.1306,1627
15.1333,1630
15.1361,1657
15.1389,1668
15.1417,1685
15.1444,1696
15.1472,1683
15.1500,1675
15.1528,1661
15.1556,1639
15.1583,1665
15.1611,1656
15.1639,1670
15.1667,1668
15.1694,1658
15.1722,1681
15.1750,1668
15.1778,1674
15.1806,1668
15.1833,1685
15.1861,1693
15.1889,1680
15.1917,1683
15.1944,1680
15.1972,1686
15.2000,1695
15.2028,1698
15.2056,1699
15.2083,1707
15.2111,1706
15.2139,1727
15.2167,1730
15.2194,1739
15.2222,1753
15.2250,1765
15.2278,1765
15.2306,1767
15.2333,1785
15.2361,1759
15.2389,1750
15.2417,1761
15.2444,1799
15.2472,1828
15.2500,1855
15.2528,1869
15.2556,1863
15.2583,1859
15.2611,1840
15.2639,1821
15.2667,1785
15.2694,1751
15.2722,1735
15.2750,1726
15.2778,1721
15.2806,1729
15.2833,1715
15.2861,1680
15.2889,1657
15.2917,1639
15.2944,1627
15.2972,1619
15.3000,1631
15.3028,1627
15.3056,1643
15.3083,1645
15.3111,1635
15.3139,1658
15.3167,1664
15.3194,1659
15.3222,1652
15.3250,1637
15.3278,1645
15.3306,1625
15.3333,1628
15.3361,1644
15.3389,1640
15.3417,1654
15.3444,1656
15.3472,1671
15.3500,1690
15.3528,1683
15.3556,1676
15.3583,1668
15.3611,1659
15.3639,1638
15.3667,1627
15.3694,1627
15.3722,1643
15.3750,1700
15.3778,1777
15.3806,1896
15.3833,2025
15.3861,2169
15.3889,2355
15.3917,2570
15.3944,2792
15.3972,2883
15.4000,2839
15.4028,2721
15.4056,2534
15.4083,2272
15.4111,1919
15.4139,1544
15.4167,1239
15.4194,1046
15.4222,969
15.4250,943
15.4278,907
15.4306,890
15.4333,940
15.4361,1045
15.4389,1187
15.4417,1341
15.4444,1500
15.4472,1608
15.4500,1686
15.4528,1735
15.4556,1741
15.4583,1743
15.4611,1726
15.4639,1729
15.4667,1753
15.4694,1790
15.4722,1797
15.4750,1792
15.4778,1792
15.4806,1776
15.4833,1773
15.4861,1799
15.4889,1803
15.4917,1827
15.4944,1830
15.4972,1830
15.5000,1818
15.5028,1789
15.5056,1799
15.5083,1803
15.5111,1810
15.5139,1836
15.5167,1839
15.5194,1847
15.5222,1842
15.5250,1826
15.5278,1822
15.5306,1832
15.5333,1837
15.5361,1866
15.5389,1849
15.5417,1840
15.5444,1817
15.5472,1816
15.5500,1843
15.5528,1859
15.5556,1861
15.5583,1873
15.5611,1863
15.5639,1867
15.5667,1874
15.5694,1887
15.5722,1893
15.5750,1891
15.5778,1882
15.5806,1882
15.5833,1877
15.5861,1898
15.5889,1898
15.5917,1914
15.5944,1927
15.5972,1931
15.6000,1914
15.6028,1914
15.6056,1926
15.6083,1828
15.6111,1847
15.6139,1871
15.6167,1874
15.6194,1875
15.6222,1890
15.6250,1889
15.6278,1869
15.6306,1841
15.6333,1848
15.6361,1849
15.6389,1842
15.6417,1856
15.6444,1852
15.6472,1850
15.6500,1836
15.6528,1852
15.6556,1844
15.6583,1841
15.6611,1855
15.6639,1853
15.6667,1840
15.6694,1811
15.6722,1781
15.6750,1748
15.6778,1753
15.6806,1750
15.6833,1747
15.6861,1724
15.6889,1721
15.6917,1720
15.6944,1721
15.6972,1723
15.7000,1715
15.7028,1713
15.7056,1688
15.7083,1671
15.7111,1688
15.7139,1682
15.7167,1692
15.7194,1704
15.7222,1730
15.7250,1720
15.7278,1720
15.7306,1707
15.7333,1718
15.7361,1721
15.7389,1724
15.7417,1726
15.7444,1728
15.7472,1727
15.7500,1702
15.7528,1697
15.7556,1700
15.7583,1703
15.7611,1707
15.7639,1725
15.7667,1701
15.7694,1698
15.7722,1703
15.7750,1700
15.7778,1696
15.7806,1693
15.7833,1694
15.7861,1689
15.7889,1673
15.7917,1668
15.7944,1674
15.7972,1677
15.8000,1688
15.8028,1694
15.8056,1695
15.8083,1671
15.8111,1666
15.8139,1676
15.8167,1673
15.8194,1676
15.8222,1689
15.8250,1688
15.8278,1679
15.8306,1681
15.8333,1672
15.8361,1682
15.8389,1675
15.8417,1680
15.8444,1688
15.8472,1672
15.8500,1665
15.8528,1665
15.8556,1661
15.8583,1676
15.8611,1673
15.8639,1690
15.8667,1673
15.8694,1665
15.8722,1664
15.8750,1671
15.8778,1670
15.8806,1684
15.8833,1663
15.8861,1665
15.8889,1675
15.8917,1681
15.8944,1687
15.8972,1684
15.9000,1699
15.9028,1698
15.9056,1696
15.9083,1683
15.9111,1692
15.9139,1679
15.9167,1682
15.9194,1669
15.9222,1672
15.9250,1670
15.9278,1684
15.9306,1685
15.9333,1698
15.9361,1709
15.9389,1724
15.9417,1716
15.9444,1706
15.9472,1695
15.9500,1693
15.9528,1692
15.9556,1686
15.9583,1698
15.9611,1708
15.9639,1701
15.9667,1711
15.9694,1698
15.9722,1690
15.9750,1698
15.9778,1687
15.9806,1685
15.9833,1689
15.9861,1681
15.9889,1662
15.9917,1681
15.9944,1679
15.9972,1682
16.0000,1688
16.0028,1673
16.0056,1668
16.0083,1667
16.0111,1665
16.0139,1670
16.0167,1666
16.0194,1677
16.0222,1685
16.0250,1683
16.0278,1678
16.0306,1677
16.0333,1680
16.0361,1696
16.0389,1683
16.0417,1701
16.0444,1693
16.0472,1700
16.0500,1698
16.0528,1695
16.0556,1711
16.0583,1725
16.0611,1740
16.0639,1749
16.0667,1765
16.0694,1779
16.0722,1798
16.0750,1799
16.0778,1798
16.0806,1788
16.0833,1788
16.0861,1784
16.0889,1776
16.0917,1797
16.0944,1832
16.0972,1853
16.1000,1880
16.1028,1893
16.1056,1891
16.1083,1871
16.1111,1826
16.1139,1781
16.1167,1746
16.1194,1717
16.1222,1710
16.1250,1709
16.1278,1695
16.1306,1672
16.1333,1647
16.1361,1640
16.1389,1622
16.1417,1607
16.1444,1629
16.1472,1614
16.1500,1615
16.1528,1619
16.1556,1621
16.1583,1627
16.1611,1623
16.1639,1622
16.1667,1622
16.1694,1620
16.1722,1612
16.1750,1635
16.1778,1621
16.1806,1625
16.1833,1629
16.1861,1622
16.1889,1622
16.1917,1636
16.1944,1634
16.1972,1643
16.2000,1657
16.2028,1655
16.2056,1647
16.2083,1641
16.2111,1630
16.2139,1627
16.2167,1626
16.2194,1646
16.2222,1708
16.2250,1801
16.2278,1927
16.2306,2057
16.2333,2232
16.2361,2447
16.2389,2677
16.2417,2889
16.2444,2935
16.2472,2885
16.2500,2725
16.2528,2452
16.2556,2094
16.2583,1698
16.2611,1323
16.2639,1077
16.2667,954
16.2694,885
16.2722,856
16.2750,860
16.2778,900
16.2806,1016
16.2833,1154
16.2861,1321
16.2889,1468
16.2917,1586
16.2944,1670
16.2972,1690
16.3000,1694
16.3028,1683
16.3056,1673
16.3083,1671
16.3111,1698
16.3139,1722
16.3167,1742
16.3194,1745
16.3222,1742
16.3250,1740
16.3278,1739
16.3306,1742
16.3333,1743
16.3361,1741
16.3389,1746
16.3417,1759
16.3444,1760
16.3472,1776
16.3500,1783
16.3528,1795
16.3556,1799
16.3583,1814
16.3611,1828
16.3639,1826
16.3667,1829
16.3694,1813
16.3722,1834
16.3750,1847
16.3778,1848
16.3806,1844
16.3833,1842
16.3861,1846
16.3889,1857
16.3917,1882
16.3944,1884
16.3972,1892
16.4000,1900
16.4028,1892
16.4056,1899
16.4083,1915
16.4111,1917
16.4139,1937
16.4167,1935
16.4194,1936
16.4222,1923
16.4250,1929
16.4278,1917
16.4306,1932
16.4333,1941
16.4361,1947
16.4389,1936
16.4417,1937
16.4444,1943
16.4472,1945
16.4500,1943
16.4528,1876
16.4556,1924
16.4583,1941
16.4611,1941
16.4639,1936
16.4667,1910
16.4694,1892
16.4722,1872
16.4750,1888
16.4778,1914
16.4806,1929
16.4833,1935
16.4861,1920
16.4889,1906
16.4917,1885
16.4944,1879
16.4972,1897
16.5000,1886
16.5028,1890
16.5056,1862
16.5083,1844
16.5111,1819
16.5139,1798
16.5167,1788
16.5194,1781
16.5222,1787
16.5250,1756
16.5278,1726
16.5306,1717
16.5333,1706
16.5361,1715
16.5389,1719
16.5417,1725
16.5444,1719
16.5472,1691
16.5500,1686
16.5528,1684
16.5556,1689
16.5583,1690
16.5611,1693
16.5639,1678
16.5667,1663
16.5694,1651
16.5722,1651
16.5750,1666
16.5778,1678
16.5806,1679
16.5833,1667
16.5861,1673
16.5889,1660
16.5917,1674
16.5944,1685
16.5972,1687
16.6000,1699
16.6028,1700
16.6056,1661
16.6083,1657
16.6111,1653
16.6139,1653
16.6167,1652
16.6194,1667
16.6222,1670
16.6250,1675
16.6278,1663
16.6306,1670
16.6333,1681
16.6361,1682
16.6389,1683
16.6417,1688
16.6444,1685
16.6472,1684
16.6500,1668
16.6528,1679
16.6556,1664
16.6583,1671
16.6611,1677
16.6639,1656
16.6667,1653
16.6694,1649
16.6722,1657
16.6750,1660
16.6778,1654
16.6806,1665
16.6833,1665
16.6861,1647
16.6889,1635
16.6917,1641
16.6944,1642
16.6972,1636
16.7000,1641
16.7028,1660
16.7056,1645
16.7083,1629
16.7111,1622
16.7139,1639
16.7167,1639
16.7194,1648
16.7222,1637
16.7250,1636
16.7278,1620
16.7306,1608
16.7333,1626
16.7361,1620
16.7389,1623
16.7417,1636
16.7444,1643
16.7472,1639
16.7500,1647
16.7528,1641
16.7556,1640
16.7583,1633
16.7611,1654
16.7639,1653
16.7667,1652
16.7694,1648
16.7722,1646
16.7750,1638
16.7778,1639
16.7806,1655
16.7833,1665
16.7861,1664
16.7889,1656
16.7917,1649
16.7944,1654
16.7972,1648
16.8000,1653
16.8028,1645
16.8056,1643
16.8083,1640
16.8111,1652
16.8139,1656
16.8167,1662
16.8194,1655
16.8222,1660
16.8250,1663
16.8278,1641
16.8306,1648
16.8333,1642
16.8361,1637
16.8389,1629
16.8417,1638
16.8444,1639
16.8472,1651
16.8500,1647
16.8528,1648
16.8556,1639
16.8583,1633
16.8611,1648
16.8639,1643
16.8667,1657
16.8694,1664
16.8722,1668
16.8750,1663
16.8778,1665
16.8806,1664
16.8833,1664
16.8861,1652
16.8889,1643
16.8917,1640
16.8944,1654
16.8972,1655
16.9000,1671
16.9028,1680
16.9056,1670
16.9083,1676
16.9111,1667
16.9139,1659
16.9167,1653
16.9194,1651
16.9222,1654
16.9250,1654
16.9278,1666
16.9306,1666
16.9333,1662
16.9361,1648
16.9389,1641
16.9417,1656
16.9444,1663
16.9472,1655
16.9500,1648
16.9528,1666
16.9556,1666
16.9583,1667
16.9611,1666
16.9639,1663
16.9667,1674
16.9694,1668
16.9722,1670
16.9750,1671
16.9778,1675
16.9806,1675
16.9833,1670
16.9861,1677
16.9889,1660
16.9917,1675
16.9944,1676
16.9972,1676
17.0000,1680
17.0028,1695
17.0056,1684
17.0083,1704
17.0111,1691
17.0139,1697
17.0167,1704
17.0194,1722
17.0222,1744
17.0250,1771
17.0278,1771
17.0306,1770
17.0333,1772
17.0361,1766
17.0389,1764
17.0417,1774
17.0444,1794
17.0472,1803
17.0500,1822
17.0528,1837
17.0556,1842
17.0583,1837
17.0611,1831
17.0639,1817
17.0667,1792
17.0694,1764
17.0722,1748
17.0750,1737
17.0778,1733
17.0806,1736
17.0833,1714
17.0861,1682
17.0889,1679
17.0917,1659
17.0944,1634
17.0972,1612
17.1000,1613
17.1028,1613
17.1056,1609
17.1083,1620
17.1111,1620
17.1139,1632
17.1167,1638
17.1194,1615
17.1222,1616
17.1250,1639
17.1278,1634
17.1306,1632
17.1333,1634
17.1361,1622
17.1389,1622
17.1417,1630
17.1444,1627
17.1472,1621
17.1500,1631
17.1528,1641
17.1556,1637
17.1583,1644
17.1611,1633
17.1639,1626
17.1667,1607
17.1694,1587
17.1722,1604
17.1750,1619
17.1778,1659
17.1806,1732
17.1833,1853
17.1861,1989
17.1889,2138
17.1917,2336
17.1944,2596
17.1972,2834
17.2000,2983
17.2028,3019
17.2056,2898
17.2083,2645
17.2111,2306
17.2139,1916
17.2167,1499
17.2194,1197
17.2222,1034
17.2250,932
17.2278,879
17.2306,906
17.2333,999
17.2361,1130
17.2389,1251
17.2417,1390
17.2444,1509
17.2472,1605
17.2500,1660
17.2528,1689
17.2556,1691
17.2583,1689
17.2611,1684
17.2639,1686
17.2667,1687
17.2694,1702
17.2722,1717
17.2750,1744
17.2778,1728
17.2806,1726
17.2833,1728
17.2861,1719
17.2889,1741
17.2917,1750
17.2944,1750
17.2972,1753
17.3000,1744
17.3028,1758
17.3056,1762
17.3083,1767
17.3111,1776
17.3139,1780
17.3167,1792
17.3194,1773
17.3222,1775
17.3250,1771
17.3278,1784
17.3306,1796
17.3333,1803
17.3361,1815
17.3389,1814
17.3417,1822
17.3444,1825
17.3472,1832
17.3500,1831
17.3528,1832
17.3556,1831
17.3583,1817
17.3611,1820
17.3639,1824
17.3667,1825
17.3694,1827
17.3722,1849
17.3750,1854
17.3778,1861
17.3806,1860
17.3833,1856
17.3861,1856
17.3889,1862
17.3917,1861
17.3944,1872
17.3972,1867
17.4000,1868
17.4028,1869
17.4056,1866
17.4083,1866
17.4111,1793
17.4139,1842
17.4167,1853
17.4194,1857
17.4222,1844
17.4250,1818
17.4278,1818
17.4306,1822
17.4333,1823
17.4361,1840
17.4389,1845
17.4417,1840
17.4444,1818
17.4472,1822
17.4500,1818
17.4528,1817
17.4556,1834
17.4583,1825
17.4611,1827
17.4639,1796
17.4667,1784
17.4694,1769
17.4722,1766
17.4750,1759
17.4778,1743
17.4806,1731
17.4833,1706
17.4861,1680
17.4889,1673
17.4917,1672
17.4944,1664
17.4972,1660
17.5000,1660
17.5028,1659
17.5056,1626
17.5083,1613
17.5111,1612
17.5139,1605
17.5167,1610
17.5194,1627
17.5222,1637
17.5250,1624
17.5278,1605
17.5306,1608
17.5333,1609
17.5361,1626
17.5389,1617
17.5417,1630
17.5444,1620
17.5472,1614
17.5500,1609
17.5528,1614
17.5556,1634
17.5583,1635
17.5611,1647
17.5639,1641
17.5667,1628
17.5694,1629
17.5722,1627
17.5750,1636
17.5778,1637
17.5806,1639
17.5833,1631
17.5861,1624
17.5889,1616
17.5917,1618
17.5944,1619
17.5972,1617
17.6000,1627
17.6028,1642
17.6056,1638
17.6083,1623
17.6111,1621
17.6139,1624
17.6167,1625
17.6194,1629
17.6222,1629
17.6250,1625
17.6278,1620
17.6306,1621
17.6333,1621
17.6361,1622
17.6389,1621
17.6417,1626
17.6444,1615
17.6472,1615
17.6500,1604
17.6528,1627
17.6556,1632
17.6583,1629
17.6611,1631
17.6639,1622
17.6667,1617
17.6694,1613
17.6722,1623
17.6750,1610
17.6778,1611
17.6806,1610
17.6833,1611
17.6861,1609
17.6889,1604
17.6917,1603
17.6944,1615
17.6972,1612
17.7000,1621
17.7028,1614
17.7056,1614
17.7083,1603
17.7111,1613
17.7139,1625
17.7167,1624
17.7194,1625
17.7222,1620
17.7250,1622
17.7278,1626
17.7306,1635
17.7333,1644
17.7361,1647
17.7389,1639
17.7417,1644
17.7444,1641
17.7472,1638
17.7500,1633
17.7528,1650
17.7556,1649
17.7583,1644
17.7611,1641
17.7639,1638
17.7667,1637
17.7694,1634
17.7722,1633
17.7750,1637
17.7778,1637
17.7806,1648
17.7833,1657
17.7861,1673
17.7889,1657
17.7917,1654
17.7944,1656
17.7972,1652
17.8000,1662
17.8028,1671
17.8056,1671
17.8083,1661
17.8111,1664
17.8139,1672
17.8167,1671
17.8194,1670
17.8222,1669
17.8250,1673
17.8278,1665
17.8306,1665
17.8333,1672
17.8361,1673
17.8389,1667
17.8417,1683
17.8444,1687
17.8472,1677
17.8500,1680
17.8528,1679
17.8556,1669
17.8583,1660
17.8611,1664
17.8639,1680
17.8667,1684
17.8694,1683
17.8722,1684
17.8750,1684
17.8778,1687
17.8806,1680
17.8833,1677
17.8861,1661
17.8889,1661
17.8917,1660
17.8944,1659
17.8972,1667
17.9000,1684
17.9028,1698
17.9056,1688
17.9083,1689
17.9111,1677
17.9139,1674
17.9167,1678
17.9194,1659
17.9222,1679
17.9250,1667
17.9278,1672
17.9306,1673
17.9333,1695
17.9361,1684
17.9389,1685
17.9417,1682
17.9444,1680
17.9472,1667
17.9500,1664
17.9528,1673
17.9556,1680
17.9583,1680
17.9611,1677
17.9639,1682
17.9667,1681
17.9694,1687
17.9722,1702
17.9750,1701
17.9778,1707
17.9806,1729
17.9833,1749
17.9861,1770
17.9889,1776
17.9917,1787
17.9944,1783
17.9972,1782
18.0000,1791
18.0028,1798
18.0056,1780
18.0083,1809
18.0111,1831
18.0139,1850
18.0167,1851
18.0194,1864
18.0222,1860
18.0250,1841
18.0278,1802
18.0306,1780
18.0333,1744
18.0361,1710
18.0389,1727
18.0417,1714
18.0444,1707
18.0472,1706
18.0500,1684
18.0528,1677
18.0556,1649
18.0583,1608
18.0611,1615
18.0639,1606
18.0667,1624
18.0694,1625
18.0722,1630
18.0750,1637
18.0778,1636
18.0806,1636
18.0833,1626
18.0861,1616
18.0889,1619
18.0917,1627
18.0944,1628
18.0972,1641
18.1000,1640
18.1028,1655
18.1056,1639
18.1083,1638
18.1111,1643
18.1139,1636
18.1167,1641
18.1194,1649
18.1222,1649
18.1250,1644
18.1278,1641
18.1306,1639
18.1333,1621
18.1361,1621
18.1389,1647
18.1417,1707
18.1444,1789
18.1472,1919
18.1500,2054
18.1528,2254
18.1556,2498
18.1583,2745
18.1611,2914
18.1639,2983
18.1667,2935
18.1694,2713
18.1722,2397
18.1750,2010
18.1778,1612
18.1806,1302
18.1833,1100
18.1861,997
18.1889,943
18.1917,932
18.1944,988
18.1972,1075
18.2000,1197
18.2028,1344
18.2056,1466
18.2083,1583
18.2111,1640
18.2139,1677
18.2167,1693
18.2194,1686
18.2222,1695
18.2250,1684
18.2278,1674
18.2306,1683
18.2333,1697
18.2361,1711
18.2389,1709
18.2417,1714
18.2444,1711
18.2472,1708
18.2500,1715
18.2528,1734
18.2556,1747
18.2583,1753
18.2611,1746
18.2639,1732
18.2667,1745
18.2694,1742
18.2722,1757
18.2750,1757
18.2778,1759
18.2806,1760
18.2833,1778
18.2861,1777
18.2889,1776
18.2917,1784
18.2944,1788
18.2972,1791
18.3000,1800
18.3028,1792
18.3056,1789
18.3083,1807
18.3111,1826
18.3139,1813
18.3167,1826
18.3194,1820
18.3222,1823
18.3250,1813
18.3278,1821
18.3306,1832
18.3333,1840
18.3361,1850
18.3389,1840
18.3417,1836
18.3444,1842
18.3472,1840
18.3500,1845
18.3528,1845
18.3556,1843
18.3583,1848
18.3611,1857
18.3639,1872
18.3667,1862
18.3694,1852
18.3722,1796
18.3750,1834
18.3778,1827
18.3806,1845
18.3833,1837
18.3861,1838
18.3889,1835
18.3917,1836
18.3944,1835
18.3972,1863
18.4000,1864
18.4028,1852
18.4056,1832
18.4083,1824
18.4111,1811
18.4139,1823
18.4167,1820
18.4194,1843
18.4222,1834
18.4250,1808
18.4278,1791
18.4306,1774
18.4333,1770
18.4361,1759
18.4389,1761
18.4417,1742
18.4444,1714
18.4472,1692
18.4500,1669
18.4528,1659
18.4556,1663
18.4583,1659
18.4611,1657
18.4639,1639
18.4667,1606
18.4694,1601
18.4722,1622
18.4750,1650
18.4778,1648
18.4806,1667
18.4833,1653
18.4861,1629
18.4889,1618
18.4917,1634
18.4944,1648
18.4972,1654
18.5000,1649
18.5028,1653
18.5056,1634
18.5083,1648
18.5111,1656
18.5139,1658
18.5167,1679
18.5194,1684
18.5222,1676
18.5250,1670
18.5278,1641
18.5306,1641
18.5333,1649
18.5361,1656
18.5389,1659
18.5417,1669
18.5444,1643
18.5472,1651
18.5500,1646
18.5528,1641
18.5556,1650
18.5583,1662
18.5611,1661
18.5639,1664
18.5667,1656
18.5694,1642
18.5722,1642
18.5750,1650
18.5778,1647
18.5806,1660
18.5833,1657
18.5861,1651
18.5889,1654
18.5917,1648
18.5944,1647
18.5972,1654
18.6000,1670
18.6028,1667
18.6056,1667
18.6083,1646
18.6111,1635
18.6139,1638
18.6167,1646
18.6194,1654
18.6222,1668
18.6250,1650
18.6278,1657
18.6306,1663
18.6333,1668
18.6361,1675
18.6389,1672
18.6417,1670
18.6444,1651
18.6472,1656
18.6500,1640
18.6528,1652
18.6556,1659
18.6583,1656
18.6611,1668
18.6639,1661
18.6667,1674
18.6694,1670
18.6722,1668
18.6750,1677
18.6778,1665
18.6806,1677
18.6833,1671
18.6861,1652
18.6889,1655
18.6917,1663
18.6944,1657
18.6972,1674
18.7000,1663
18.7028,1663
18.7056,1651
18.7083,1646
18.7111,1669
18.7139,1663
18.7167,1675
18.7194,1677
18.7222,1673
18.7250,1671
18.7278,1688
18.7306,1694
18.7333,1691
18.7361,1682
18.7389,1671
18.7417,1678
18.7444,1663
18.7472,1662
18.7500,1672
18.7528,1681
18.7556,1683
18.7583,1702
18.7611,1695
18.7639,1701
18.7667,1693
18.7694,1696
18.7722,1692
18.7750,1686
18.7778,1692
18.7806,1693
18.7833,1694
18.7861,1696
18.7889,1697
18.7917,1699
18.7944,1703
18.7972,1704
18.8000,1706
18.8028,1711
18.8056,1705
18.8083,1702
18.8111,1716
18.8139,1719
18.8167,1705
18.8194,1701
18.8222,1688
18.8250,1702
18.8278,1694
18.8306,1708
18.8333,1724
18.8361,1725
18.8389,1710
18.8417,1701
18.8444,1694
18.8472,1676
18.8500,1695
18.8528,1701
18.8556,1700
18.8583,1716
18.8611,1717
18.8639,1714
18.8667,1692
18.8694,1691
18.8722,1703
18.8750,1696
18.8778,1698
18.8806,1709
18.8833,1705
18.8861,1695
18.8889,1707
18.8917,1706
18.8944,1702
18.8972,1706
18.9000,1698
18.9028,1691
18.9056,1703
18.9083,1721
18.9111,1730
18.9139,1738
18.9167,1740
18.9194,1767
18.9222,1773
18.9250,1775
18.9278,1773
18.9306,1785
18.9333,1794
18.9361,1801
18.9389,1804
18.9417,1828
18.9444,1841
18.9472,1854
18.9500,1862
18.9528,1873
18.9556,1859
18.9583,1855
18.9611,1857
18.9639,1823
18.9667,1788
18.9694,1753
18.9722,1745
18.9750,1740
18.9778,1737
18.9806,1730
18.9833,1720
18.9861,1692
18.9889,1684
18.9917,1674
18.9944,1655
18.9972,1664
19.0000,1666
19.0028,1667
19.0056,1677
19.0083,1670
19.0111,1679
19.0139,1677
19.0167,1681
19.0194,1704
19.0222,1694
19.0250,1693
19.0278,1687
19.0306,1679
19.0333,1688
19.0361,1680
19.0389,1678
19.0417,1693
19.0444,1679
19.0472,1677
19.0500,1678
19.0528,1690
19.0556,1703
19.0583,1699
19.0611,1697
19.0639,1693
19.0667,1679
19.0694,1673
19.0722,1682
19.0750,1721
19.0778,1786
19.0806,1889
19.0833,2024
19.0861,2169
19.0889,2374
19.0917,2619
19.0944,2808
19.0972,2864
19.1000,2817
19.1028,2700
19.1056,2465
19.1083,2159
19.1111,1792
19.1139,1444
19.1167,1189
19.1194,1083
19.1222,1022
19.1250,977
19.1278,935
19.1306,945
19.1333,1013
19.1361,1124
19.1389,1266
19.1417,1416
19.1444,1560
19.1472,1641
19.1500,1717
19.1528,1730
19.1556,1740
19.1583,1742
19.1611,1733
19.1639,1729
19.1667,1732
19.1694,1750
19.1722,1776
19.1750,1782
19.1778,1775
19.1806,1770
19.1833,1779
19.1861,1776
19.1889,1796
19.1917,1806
19.1944,1811
19.1972,1812
19.2000,1817
19.2028,1823
19.2056,1823
19.2083,1832
19.2111,1834
19.2139,1825
19.2167,1802
19.2194,1815
19.2222,1825
19.2250,1823
19.2278,1832
19.2306,1855
19.2333,1851
19.2361,1848
19.2389,1844
19.2417,1849
19.2444,1834
19.2472,1835
19.2500,1838
19.2528,1854
19.2556,1850
19.2583,1845
19.2611,1854
19.2639,1856
19.2667,1858
19.2694,1866
19.2722,1875
19.2750,1872
19.2778,1857
19.2806,1866
19.2833,1872
19.2861,1871
19.2889,1867
19.2917,1880
19.2944,1874
19.2972,1874
19.3000,1861
19.3028,1845
19.3056,1855
19.3083,1746
19.3111,1804
19.3139,1815
19.3167,1807
19.3194,1811
19.3222,1805
19.3250,1786
19.3278,1802
19.3306,1796
19.3333,1795
19.3361,1805
19.3389,1805
19.3417,1801
19.3444,1778
19.3472,1767
19.3500,1765
19.3528,1772
19.3556,1772
19.3583,1779
19.3611,1774
19.3639,1771
19.3667,1760
19.3694,1744
19.3722,1737
19.3750,1730
19.3778,1719
19.3806,1701
19.3833,1684
19.3861,1652
19.3889,1630
19.3917,1625
19.3944,1634
19.3972,1627
19.4000,1634
19.4028,1630
19.4056,1610
19.4083,1605
19.4111,1602
19.4139,1597
19.4167,1605
19.4194,1596
19.4222,1588
19.4250,1578
19.4278,1583
19.4306,1586
19.4333,1601
19.4361,1595
19.4389,1598
19.4417,1588
19.4444,1582
19.4472,1580
19.4500,1599
19.4528,1595
19.4556,1613
19.4583,1616
19.4611,1611
19.4639,1612
19.4667,1609
19.4694,1621
19.4722,1615
19.4750,1606
19.4778,1604
19.4806,1598
19.4833,1603
19.4861,1596
19.4889,1584
19.4917,1594
19.4944,1602
19.4972,1613
19.5000,1630
19.5028,1612
19.5056,1596
19.5083,1605
19.5111,1584
19.5139,1597
19.5167,1598
19.5194,1598
19.5222,1593
19.5250,1597
19.5278,1593
19.5306,1598
19.5333,1597
19.5361,1600
19.5389,1608
19.5417,1606
19.5444,1591
19.5472,1584
19.5500,1563
19.5528,1566
19.5556,1570
19.5583,1580
19.5611,1583
19.5639,1585
19.5667,1591
19.5694,1597
19.5722,1604
19.5750,1606
19.5778,1595
19.5806,1602
19.5833,1603
19.5861,1585
19.5889,1592
19.5917,1589
19.5944,1585
19.5972,1594
19.6000,1612
19.6028,1609
19.6056,1603
19.6083,1609
19.6111,1597
19.6139,1609
19.6167,1610
19.6194,1604
19.6222,1602
19.6250,1597
19.6278,1603
19.6306,1624
19.6333,1635
19.6361,1637
19.6389,1635
19.6417,1635
19.6444,1615
19.6472,1609
19.6500,1615
19.6528,1628
19.6556,1624
19.6583,1617
19.6611,1620
19.6639,1615
19.6667,1626
19.6694,1630
19.6722,1645
19.6750,1648
19.6778,1647
19.6806,1649
19.6833,1632
19.6861,1625
19.6889,1616
19.6917,1635
19.6944,1632
19.6972,1647
19.7000,1633
19.7028,1644
19.7056,1644
19.7083,1645
19.7111,1646
19.7139,1632
19.7167,1650
19.7194,1654
19.7222,1657
19.7250,1655
19.7278,1657
19.7306,1660
19.7333,1665
19.7361,1653
19.7389,1656
19.7417,1666
19.7444,1649
19.7472,1644
19.7500,1647
19.7528,1656
19.7556,1656
19.7583,1656
19.7611,1676
19.7639,1670
19.7667,1678
19.7694,1699
19.7722,1707
19.7750,1710
19.7778,1722
19.7806,1744
19.7833,1738
19.7861,1738
19.7889,1748
19.7917,1741
19.7944,1756
19.7972,1764
19.8000,1787
19.8028,1818
19.8056,1831
19.8083,1841
19.8111,1859
19.8139,1849
19.8167,1837
19.8194,1826
19.8222,1782
19.8250,1740
19.8278,1710
19.8306,1707
19.8333,1707
19.8361,1694
19.8389,1682
19.8417,1666
19.8444,1652
19.8472,1641
19.8500,1627
19.8528,1611
19.8556,1602
19.8583,1607
19.8611,1626
19.8639,1631
19.8667,1649
19.8694,1647
19.8722,1648
19.8750,1627
19.8778,1642
19.8806,1635
19.8833,1642
19.8861,1640
19.8889,1662
19.8917,1660
19.8944,1654
19.8972,1657
19.9000,1665
19.9028,1658
19.9056,1643
19.9083,1654
19.9111,1656
19.9139,1664
19.9167,1663
19.9194,1639
19.9222,1616
19.9250,1609
19.9278,1620
19.9306,1667
19.9333,1734
19.9361,1839
19.9389,1972
19.9417,2098
19.9444,2277
19.9472,2516
19.9500,2743
19.9528,2861
19.9556,2834
19.9583,2757
19.9611,2595
19.9639,2320
19.9667,1968
19.9694,1596
19.9722,1282
19.9750,1097
19.9778,1015
19.9806,985
19.9833,952
19.9861,937
19.9889,976
19.9917,1093
19.9944,1221
19.9972,1358
20.0000,1501
20.0028,1615
20.0056,1689
20.0083,1722
20.0111,1730
20.0139,1743
20.0167,1752
20.0194,1755
20.0222,1758
20.0250,1771
20.0278,1797
20.0306,1807
20.0333,1812
20.0361,1799
20.0389,1803
20.0417,1804
20.0444,1786
20.0472,1800
20.0500,1811
20.0528,1810
20.0556,1808
20.0583,1837
20.0611,1836
20.0639,1840
20.0667,1835
20.0694,1837
20.0722,1837
20.0750,1832
20.0778,1837
20.0806,1840
20.0833,1852
20.0861,1851
20.0889,1855
20.0917,1861
20.0944,1857
20.0972,1858
20.1000,1854
20.1028,1861
20.1056,1851
20.1083,1876
20.1111,1879
20.1139,1881
20.1167,1877
20.1194,1860
20.1222,1848
20.1250,1860
20.1278,1885
20.1306,1892
20.1333,1899
20.1361,1886
20.1389,1877
20.1417,1887
20.1444,1875
20.1472,1898
20.1500,1888
20.1528,1896
20.1556,1869
20.1583,1858
20.1611,1877
20.1639,1828
20.1667,1835
20.1694,1844
20.1722,1862
20.1750,1875
20.1778,1873
20.1806,1855
20.1833,1836
20.1861,1819
20.1889,1818
20.1917,1818
20.1944,1826
20.1972,1837
20.2000,1849
20.2028,1842
20.2056,1837
20.2083,1820
20.2111,1829
20.2139,1815
20.2167,1827
20.2194,1828
20.2222,1803
20.2250,1769
20.2278,1754
20.2306,1749
20.2333,1747
20.2361,1720
20.2389,1703
20.2417,1688
20.2444,1674
20.2472,1658
20.2500,1650
20.2528,1652
20.2556,1654
20.2583,1640
20.2611,1645
20.2639,1634
20.2667,1618
20.2694,1609
20.2722,1595
20.2750,1604
20.2778,1626
20.2806,1625
20.2833,1624
20.2861,1620
20.2889,1619
20.2917,1620
20.2944,1615
20.2972,1615
20.3000,1621
20.3028,1597
20.3056,1588
20.3083,1599
20.3111,1586
20.3139,1585
20.3167,1616
20.3194,1630
20.3222,1627
20.3250,1605
20.3278,1625
20.3306,1607
20.3333,1608
20.3361,1617
20.3389,1631
20.3417,1630
20.3444,1616
20.3472,1615
20.3500,1616
20.3528,1611
20.3556,1618
20.3583,1620
20.3611,1627
20.3639,1618
20.3667,1612
20.3694,1602
20.3722,1598
20.3750,1605
20.3778,1624
20.3806,1622
20.3833,1618
20.3861,1625
20.3889,1627
20.3917,1622
20.3944,1600
20.3972,1606
20.4000,1612
20.4028,1609
20.4056,1601
20.4083,1601
20.4111,1625
20.4139,1615
20.4167,1613
20.4194,1620
20.4222,1615
20.4250,1606
20.4278,1616
20.4306,1619
20.4333,1624
20.4361,1630
20.4389,1645
20.4417,1640
20.4444,1619
20.4472,1628
20.4500,1629
20.4528,1633
20.4556,1642
20.4583,1655
20.4611,1639
20.4639,1648
20.4667,1634
20.4694,1635
20.4722,1647
20.4750,1649
20.4778,1648
20.4806,1655
20.4833,1653
20.4861,1660
20.4889,1652
20.4917,1653
20.4944,1655
20.4972,1648
20.5000,1656
20.5028,1657
20.5056,1642
20.5083,1640
20.5111,1640
20.5139,1653
20.5167,1645
20.5194,1676
20.5222,1665
20.5250,1647
20.5278,1631
20.5306,1638
20.5333,1643
20.5361,1637
20.5389,1656
20.5417,1668
20.5444,1658
20.5472,1681
20.5500,1663
20.5528,1667
20.5556,1673
20.5583,1676
20.5611,1666
20.5639,1654
20.5667,1654
20.5694,1651
20.5722,1657
20.5750,1647
20.5778,1647
20.5806,1671
20.5833,1672
20.5861,1668
20.5889,1675
20.5917,1666
20.5944,1667
20.5972,1675
20.6000,1671
20.6028,1661
20.6056,1652
20.6083,1658
20.6111,1667
20.6139,1675
20.6167,1686
20.6194,1698
20.6222,1703
20.6250,1723
20.6278,1725
20.6306,1740
20.6333,1758
20.6361,1757
20.6389,1779
20.6417,1784
20.6444,1786
20.6472,1790
20.6500,1797
20.6528,1795
20.6556,1819
20.6583,1846
20.6611,1867
20.6639,1868
20.6667,1859
20.6694,1877
20.6722,1876
20.6750,1846
20.6778,1794
20.6806,1769
20.6833,1749
20.6861,1739
20.6889,1728
20.6917,1711
20.6944,1694
20.6972,1681
20.7000,1684
20.7028,1658
20.7056,1632
20.7083,1632
20.7111,1625
20.7139,1634
20.7167,1620
20.7194,1633
20.7222,1642
20.7250,1648
20.7278,1660
20.7306,1651
20.7333,1653
20.7361,1634
20.7389,1649
20.7417,1643
20.7444,1645
20.7472,1645
20.7500,1655
20.7528,1651
20.7556,1651
20.7583,1669
20.7611,1659
20.7639,1663
20.7667,1664
20.7694,1650
20.7722,1645
20.7750,1631
20.7778,1624
20.7806,1629
20.7833,1648
20.7861,1696
20.7889,1766
20.7917,1885
20.7944,2009
20.7972,2155
20.8000,2337
20.8028,2585
20.8056,2816
20.8083,2964
20.8111,2978
20.8139,2868
20.8167,2654
20.8194,2357
20.8222,1981
20.8250,1590
20.8278,1272
20.8306,1109
20.8333,1010
20.8361,954
20.8389,919
20.8417,960
20.8444,1039
20.8472,1178
20.8500,1329
20.8528,1471
20.8556,1567
20.8583,1659
20.8611,1700
20.8639,1725
20.8667,1712
20.8694,1719
20.8722,1709
20.8750,1710
20.8778,1713
20.8806,1738
20.8833,1755
20.8861,1763
20.8889,1762
20.8917,1756
20.8944,1767
20.8972,1776
20.9000,1793
20.9028,1780
20.9056,1791
20.9083,1790
20.9111,1797
20.9139,1796
20.9167,1794
20.9194,1813
20.9222,1810
20.9250,1805
20.9278,1823
20.9306,1821
20.9333,1814
20.9361,1809
20.9389,1817
20.9417,1820
20.9444,1821
20.9472,1839
20.9500,1823
20.9528,1819
20.9556,1816
20.9583,1813
20.9611,1816
20.9639,1824
20.9667,1837
20.9694,1842
20.9722,1842
20.9750,1856
20.9778,1858
20.9806,1867
20.9833,1864
20.9861,1864
20.9889,1873
20.9917,1867
20.9944,1857
20.9972,1863
21.0000,1878
21.0028,1899
21.0056,1894
21.0083,1888
21.0111,1877
21.0139,1889
21.0167,1874
21.0194,1918
21.0222,1872
21.0250,1849
21.0278,1816
21.0306,1823
21.0333,1832
21.0361,1844
21.0389,1861
21.0417,1855
21.0444,1842
21.0472,1828
21.0500,1826
21.0528,1824
21.0556,1830
21.0583,1849
21.0611,1851
21.0639,1841
21.0667,1834
21.0694,1817
21.0722,1804
21.0750,1818
21.0778,1801
21.0806,1805
21.0833,1762
21.0861,1737
21.0889,1715
21.0917,1708
21.0944,1713
21.0972,1710
21.1000,1707
21.1028,1684
21.1056,1675
21.1083,1666
21.1111,1663
21.1139,1662
21.1167,1670
21.1194,1671
21.1222,1664
21.1250,1657
21.1278,1636
21.1306,1611
21.1333,1604
21.1361,1615
21.1389,1633
21.1417,1642
21.1444,1648
21.1472,1651
21.1500,1653
21.1528,1665
21.1556,1666
21.1583,1661
21.1611,1669
21.1639,1653
21.1667,1645
21.1694,1641
21.1722,1631
21.1750,1637
21.1778,1648
21.1806,1664
21.1833,1667
21.1861,1665
21.1889,1655
21.1917,1653
21.1944,1643
21.1972,1642
21.2000,1649
21.2028,1639
21.2056,1636
21.2083,1630
21.2111,1636
21.2139,1647
21.2167,1654
21.2194,1639
21.2222,1623
21.2250,1604
21.2278,1601
21.2306,1608
21.2333,1620
21.2361,1623
21.2389,1642
21.2417,1635
21.2444,1630
21.2472,1637
21.2500,1623
21.2528,1626
21.2556,1631
21.2583,1640
21.2611,1632
21.2639,1624
21.2667,1617
21.2694,1610
21.2722,1609
21.2750,1612
21.2778,1625
21.2806,1627
21.2833,1628
21.2861,1627
21.2889,1622
21.2917,1631
21.2944,1632
21.2972,1639
21.3000,1621
21.3028,1614
21.3056,1622
21.3083,1638
21.3111,1638
21.3139,1641
21.3167,1640
21.3194,1637
21.3222,1635
21.3250,1631
21.3278,1620
21.3306,1629
21.3333,1648
21.3361,1644
21.3389,1659
21.3417,1648
21.3444,1647
21.3472,1636
21.3500,1632
21.3528,1625
21.3556,1626
21.3583,1636
21.3611,1654
21.3639,1656
21.3667,1653
21.3694,1660
21.3722,1666
21.3750,1665
21.3778,1662
21.3806,1656
21.3833,1647
21.3861,1659
21.3889,1649
21.3917,1649
21.3944,1656
21.3972,1666
21.4000,1675
21.4028,1659
21.4056,1659
21.4083,1665
21.4111,1670
21.4139,1685
21.4167,1686
21.4194,1701
21.4222,1693
21.4250,1674
21.4278,1681
21.4306,1677
21.4333,1681
21.4361,1695
21.4389,1704
21.4417,1695
21.4444,1685
21.4472,1693
21.4500,1695
21.4528,1687
21.4556,1695
21.4583,1685
21.4611,1695
21.4639,1686
21.4667,1680
21.4694,1686
21.4722,1686
21.4750,1685
21.4778,1696
21.4806,1708
21.4833,1699
21.4861,1705
21.4889,1709
21.4917,1718
21.4944,1743
21.4972,1772
21.5000,1794
21.5028,1800
21.5056,1808
21.5083,1816
21.5111,1820
21.5139,1815
21.5167,1813
21.5194,1810
21.5222,1834
21.5250,1859
21.5278,1868
21.5306,1871
21.5333,1880
21.5361,1871
21.5389,1872
21.5417,1867
21.5444,1811
21.5472,1780
21.5500,1744
21.5528,1726
21.5556,1728
21.5583,1717
21.5611,1698
21.5639,1696
21.5667,1679
21.5694,1664
21.5722,1653
21.5750,1635
21.5778,1640
21.5806,1633
21.5833,1639
21.5861,1637
21.5889,1650
21.5917,1654
21.5944,1654
21.5972,1660
21.6000,1667
21.6028,1665
21.6056,1652
21.6083,1666
21.6111,1677
21.6139,1668
21.6167,1675
21.6194,1683
21.6222,1684
21.6250,1664
21.6278,1676
21.6306,1672
21.6333,1667
21.6361,1665
21.6389,1669
21.6417,1660
21.6444,1651
21.6472,1656
21.6500,1654
21.6528,1676
21.6556,1733
21.6583,1813
21.6611,1918
21.6639,2047
21.6667,2222
21.6694,2458
21.6722,2723
21.6750,2932
21.6778,3037
21.6806,3008
21.6833,2855
21.6861,2566
21.6889,2200
21.6917,1802
21.6944,1431
21.6972,1208
21.7000,1077
21.7028,1014
21.7056,969
21.7083,1002
21.7111,1085
21.7139,1196
21.7167,1326
21.7194,1463
21.7222,1584
21.7250,1642
21.7278,1678
21.7306,1693
21.7333,1703
21.7361,1691
21.7389,1688
21.7417,1681
21.7444,1703
21.7472,1724
21.7500,1721
21.7528,1722
21.7556,1720
21.7583,1720
21.7611,1716
21.7639,1720
21.7667,1748
21.7694,1753
21.7722,1751
21.7750,1757
21.7778,1749
21.7806,1763
21.7833,1755
21.7861,1760
21.7889,1760
21.7917,1748
21.7944,1731
21.7972,1737
21.8000,1748
21.8028,1751
21.8056,1769
21.8083,1795
21.8111,1793
21.8139,1778
21.8167,1782
21.8194,1785
21.8222,1784
21.8250,1793
21.8278,1793
21.8306,1795
21.8333,1795
21.8361,1789
21.8389,1803
21.8417,1804
21.8444,1813
21.8472,1827
21.8500,1824
21.8528,1815
21.8556,1823
21.8583,1831
21.8611,1834
21.8639,1840
21.8667,1847
21.8694,1863
21.8722,1872
21.8750,1861
21.8778,1862
21.8806,1853
21.8833,1856
21.8861,1784
21.8889,1837
21.8917,1842
21.8944,1845
21.8972,1859
21.9000,1845
21.9028,1819
21.9056,1823
21.9083,1839
21.9111,1846
21.9139,1855
21.9167,1851
21.9194,1831
21.9222,1813
21.9250,1810
21.9278,1806
21.9306,1822
21.9333,1832
21.9361,1837
21.9389,1830
21.9417,1814
21.9444,1797
21.9472,1767
21.9500,1755
21.9528,1749
21.9556,1745
21.9583,1729
21.9611,1727
21.9639,1712
21.9667,1695
21.9694,1710
21.9722,1709
21.9750,1697
21.9778,1689
21.9806,1662
21.9833,1654
21.9861,1637
21.9889,1645
21.9917,1653
21.9944,1648
21.9972,1664
22.0000,1662
22.0028,1646
22.0056,1645
22.0083,1639
22.0111,1645
22.0139,1657
22.0167,1657
22.0194,1645
22.0222,1632
22.0250,1622
22.0278,1618
22.0306,1634
22.0333,1632
22.0361,1651
22.0389,1659
22.0417,1656
22.0444,1651
22.0472,1652
22.0500,1662
22.0528,1645
22.0556,1650
22.0583,1646
22.0611,1647
22.0639,1630
22.0667,1612
22.0694,1626
22.0722,1634
22.0750,1644
22.0778,1650
22.0806,1633
22.0833,1624
22.0861,1619
22.0889,1632
22.0917,1642
22.0944,1650
22.0972,1643
22.1000,1631
22.1028,1618
22.1056,1617
22.1083,1644
22.1111,1651
22.1139,1657
22.1167,1650
22.1194,1641
22.1222,1632
22.1250,1635
22.1278,1631
22.1306,1628
22.1333,1626
22.1361,1640
22.1389,1638
22.1417,1634
22.1444,1642
22.1472,1635
22.1500,1628
22.1528,1630
22.1556,1632
22.1583,1644
22.1611,1641
22.1639,1641
22.1667,1637
22.1694,1644
22.1722,1643
22.1750,1654
22.1778,1665
22.1806,1663
22.1833,1636
22.1861,1639
22.1889,1623
22.1917,1621
22.1944,1620
22.1972,1622
22.2000,1631
22.2028,1621
22.2056,1620
22.2083,1621
22.2111,1642
22.2139,1649
22.2167,1667
22.2194,1664
22.2222,1631
22.2250,1637
22.2278,1644
22.2306,1638
22.2333,1652
22.2361,1640
22.2389,1641
22.2417,1621
22.2444,1622
22.2472,1638
22.2500,1638
22.2528,1639
22.2556,1641
22.2583,1636
22.2611,1641
22.2639,1632
22.2667,1643
22.2694,1645
22.2722,1640
22.2750,1639
22.2778,1646
22.2806,1633
22.2833,1625
22.2861,1606
22.2889,1621
22.2917,1614
22.2944,1621
22.2972,1620
22.3000,1611
22.3028,1625
22.3056,1638
22.3083,1644
22.3111,1650
22.3139,1651
22.3167,1645
22.3194,1633
22.3222,1654
22.3250,1637
22.3278,1655
22.3306,1654
22.3333,1657
22.3361,1664
22.3389,1687
22.3417,1694
22.3444,1683
22.3472,1686
22.3500,1682
22.3528,1683
22.3556,1698
22.3583,1710
22.3611,1709
22.3639,1698
22.3667,1701
22.3694,1688
22.3722,1677
22.3750,1686
22.3778,1686
22.3806,1685
22.3833,1679
22.3861,1690
22.3889,1695
22.3917,1704
22.3944,1707
22.3972,1700
22.4000,1688
22.4028,1705
22.4056,1709
22.4083,1737
22.4111,1732
22.4139,1750
22.4167,1779
22.4194,1799
22.4222,1808
22.4250,1799
22.4278,1787
22.4306,1764
22.4333,1786
22.4361,1807
22.4389,1838
22.4417,1858
22.4444,1879
22.4472,1883
22.4500,1890
22.4528,1901
22.4556,1872
22.4583,1849
22.4611,1804
22.4639,1772
22.4667,1754
22.4694,1758
22.4722,1750
22.4750,1735
22.4778,1722
22.4806,1712
22.4833,1695
22.4861,1673
22.4889,1656
22.4917,1655
22.4944,1640
22.4972,1660
22.5000,1655
22.5028,1670
22.5056,1686
22.5083,1681
22.5111,1687
22.5139,1678
22.5167,1670
22.5194,1682
22.5222,1681
22.5250,1684
22.5278,1691
22.5306,1687
22.5333,1676
22.5361,1680
22.5389,1695
22.5417,1707
22.5444,1699
22.5472,1694
22.5500,1682
22.5528,1670
22.5556,1650
22.5583,1651
22.5611,1635
22.5639,1629
22.5667,1674
22.5694,1735
22.5722,1828
22.5750,1941
22.5778,2074
22.5806,2248
22.5833,2475
22.5861,2713
22.5889,2858
22.5917,2895
22.5944,2838
22.5972,2679
22.6000,2395
22.6028,2057
22.6056,1677
22.6083,1343
22.6111,1139
22.6139,1045
22.6167,965
22.6194,920
22.6222,924
22.6250,972
22.6278,1084
22.6306,1239
22.6333,1372
22.6361,1514
22.6389,1608
22.6417,1684
22.6444,1714
22.6472,1706
22.6500,1718
22.6528,1703
22.6556,1701
22.6583,1709
22.6611,1713
22.6639,1735
22.6667,1740
22.6694,1746
22.6722,1749
22.6750,1750
22.6778,1758
22.6806,1755
22.6833,1771
22.6861,1771
22.6889,1756
22.6917,1751
22.6944,1734
22.6972,1742
22.7000,1762
22.7028,1769
22.7056,1780
22.7083,1781
22.7111,1785
22.7139,1778
22.7167,1773
22.7194,1781
22.7222,1786
22.7250,1791
22.7278,1803
22.7306,1801
22.7333,1817
22.7361,1820
22.7389,1830
22.7417,1824
22.7444,1811
22.7472,1817
22.7500,1814
22.7528,1803
22.7556,1812
22.7583,1814
22.7611,1826
22.7639,1846
22.7667,1864
22.7694,1847
22.7722,1848
22.7750,1840
22.7778,1836
22.7806,1849
22.7833,1848
22.7861,1848
22.7889,1850
22.7917,1856
22.7944,1845
22.7972,1846
22.8000,1855
22.8028,1836
22.8056,1836
22.8083,1821
22.8111,1829
22.8139,1827
22.8167,1837
22.8194,1824
22.8222,1816
22.8250,1834
22.8278,1839
22.8306,1840
22.8333,1858
22.8361,1872
22.8389,1862
22.8417,1846
22.8444,1820
22.8472,1831
22.8500,1835
22.8528,1850
22.8556,1835
22.8583,1835
22.8611,1813
22.8639,1767
22.8667,1765
22.8694,1750
22.8722,1748
22.8750,1730
22.8778,1726
22.8806,1705
22.8833,1679
22.8861,1665
22.8889,1659
22.8917,1658
22.8944,1669
22.8972,1673
22.9000,1671
22.9028,1656
22.9056,1649
22.9083,1661
22.9111,1642
22.9139,1642
22.9167,1634
22.9194,1629
22.9222,1616
22.9250,1614
22.9278,1614
22.9306,1641
22.9333,1657
22.9361,1664
22.9389,1672
22.9417,1656
22.9444,1637
22.9472,1625
22.9500,1624
22.9528,1628
22.9556,1634
22.9583,1651
22.9611,1645
22.9639,1647
22.9667,1645
22.9694,1655
22.9722,1645
22.9750,1647
22.9778,1653
22.9806,1648
22.9833,1649
22.9861,1662
22.9889,1652
22.9917,1663
22.9944,1660
22.9972,1654
23.0000,1650
23.0028,1652
23.0056,1638
23.0083,1643
23.0111,1640
23.0139,1652
23.0167,1656
23.0194,1661
23.0222,1655
23.0250,1651
23.0278,1635
23.0306,1624
23.0333,1641
23.0361,1645
23.0389,1656
23.0417,1650
23.0444,1640
23.0472,1662
23.0500,1658
23.0528,1653
23.0556,1651
23.0583,1648
23.0611,1645
23.0639,1624
23.0667,1625
23.0694,1637
23.0722,1645
23.0750,1657
23.0778,1669
23.0806,1647
23.0833,1650
23.0861,1643
23.0889,1630
23.0917,1642
23.0944,1637
23.0972,1640
23.1000,1642
23.1028,1645
23.1056,1644
23.1083,1655
23.1111,1649
23.1139,1666
23.1167,1670
23.1194,1666
23.1222,1663
23.1250,1647
23.1278,1657
23.1306,1664
23.1333,1668
23.1361,1664
23.1389,1665
23.1417,1658
23.1444,1638
23.1472,1647
23.1500,1642
23.1528,1653
23.1556,1660
23.1583,1659
23.1611,1662
23.1639,1643
23.1667,1639
23.1694,1625
23.1722,1615
23.1750,1625
23.1778,1632
23.1806,1637
23.1833,1613
23.1861,1631
23.1889,1637
23.1917,1641
23.1944,1660
23.1972,1685
23.2000,1673
23.2028,1674
23.2056,1654
23.2083,1654
23.2111,1650
23.2139,1642
23.2167,1655
23.2194,1653
23.2222,1671
23.2250,1663
23.2278,1651
23.2306,1663
23.2333,1643
23.2361,1643
23.2389,1657
23.2417,1673
23.2444,1677
23.2472,1674
23.2500,1658
23.2528,1659
23.2556,1652
23.2583,1651
23.2611,1661
23.2639,1654
23.2667,1670
23.2694,1683
23.2722,1692
23.2750,1708
23.2778,1727
23.2806,1720
23.2833,1717
23.2861,1710
23.2889,1720
23.2917,1734
23.2944,1750
23.2972,1769
23.3000,1778
23.3028,1793
23.3056,1822
23.3083,1834
23.3111,1833
23.3139,1833
23.3167,1837
23.3194,1830
23.3222,1825
23.3250,1801
23.3278,1783
23.3306,1757
23.3333,1744
23.3361,1750
23.3389,1743
23.3417,1729
23.3444,1693
23.3472,1666
23.3500,1643
23.3528,1647
23.3556,1639
23.3583,1651
23.3611,1646
23.3639,1656
23.3667,1664
23.3694,1652
23.3722,1656
23.3750,1668
23.3778,1664
23.3806,1655
23.3833,1657
23.3861,1673
23.3889,1670
23.3917,1683
23.3944,1682
23.3972,1677
23.4000,1677
23.4028,1674
23.4056,1675
23.4083,1695
23.4111,1681
23.4139,1687
23.4167,1697
23.4194,1700
23.4222,1687
23.4250,1686
23.4278,1677
23.4306,1676
23.4333,1700
23.4361,1755
23.4389,1853
23.4417,1940
23.4444,2083
23.4472,2251
23.4500,2474
23.4528,2710
23.4556,2863
23.4583,2886
23.4611,2792
23.4639,2654
23.4667,2429
23.4694,2123
23.4722,1748
23.4750,1432
23.4778,1213
23.4806,1118
23.4833,1064
23.4861,1036
23.4889,986
23.4917,997
23.4944,1076
23.4972,1211
23.5000,1356
23.5028,1509
23.5056,1651
23.5083,1728
23.5111,1778
23.5139,1788
23.5167,1813
23.5194,1812
23.5222,1810
23.5250,1824
23.5278,1834
23.5306,1833
23.5333,1832
23.5361,1835
23.5389,1840
23.5417,1844
23.5444,1854
23.5472,1865
23.5500,1874
23.5528,1892
23.5556,1900
23.5583,1898
23.5611,1909
23.5639,1899
23.5667,1886
23.5694,1895
23.5722,1907
23.5750,1901
23.5778,1902
23.5806,1896
23.5833,1892
23.5861,1904
23.5889,1900
23.5917,1904
23.5944,1916
23.5972,1910
23.6000,1909
23.6028,1918
23.6056,1923
23.6083,1939
23.6111,1927
23.6139,1921
23.6167,1905
23.6194,1889
23.6222,1876
23.6250,1896
23.6278,1902
23.6306,1906
23.6333,1916
23.6361,1906
23.6389,1906
23.6417,1924
23.6444,1928
23.6472,1934
23.6500,1923
23.6528,1917
23.6556,1917
23.6583,1917
23.6611,1908
23.6639,1917
23.6667,1862
23.6694,1901
23.6722,1916
23.6750,1919
23.6778,1926
23.6806,1901
23.6833,1879
23.6861,1881
23.6889,1898
23.6917,1937
23.6944,1933
23.6972,1933
23.7000,1917
23.7028,1906
23.7056,1892
23.7083,1901
23.7111,1908
23.7139,1928
23.7167,1924
23.7194,1910
23.7222,1886
23.7250,1870
23.7278,1861
23.7306,1862
23.7333,1853
23.7361,1839
23.7389,1821
23.7417,1783
23.7444,1771
23.7472,1752
23.7500,1744
23.7528,1764
23.7556,1775
23.7583,1782
23.7611,1772
23.7639,1741
23.7667,1728
23.7694,1719
23.7722,1722
23.7750,1742
23.7778,1731
23.7806,1704
23.7833,1702
23.7861,1688
23.7889,1714
23.7917,1719
23.7944,1720
23.7972,1720
23.8000,1711
23.8028,1695
23.8056,1679
23.8083,1678
23.8111,1678
23.8139,1686
23.8167,1692
23.8194,1690
23.8222,1670
23.8250,1684
23.8278,1675
23.8306,1698
23.8333,1700
23.8361,1711
23.8389,1697
23.8417,1683
23.8444,1665
23.8472,1657
23.8500,1680
23.8528,1684
23.8556,1689
23.8583,1703
23.8611,1697
23.8639,1678
23.8667,1670
23.8694,1687
23.8722,1682
23.8750,1661
23.8778,1662
23.8806,1638
23.8833,1637
23.8861,1649
23.8889,1670
23.8917,1683
23.8944,1680
23.8972,1664
23.9000,1646
23.9028,1629
23.9056,1631
23.9083,1636
23.9111,1631
23.9139,1631
23.9167,1649
23.9194,1641
23.9222,1649
23.9250,1656
23.9278,1652
23.9306,1658
23.9333,1657
23.9361,1657
23.9389,1656
23.9417,1649
23.9444,1641
23.9472,1645
23.9500,1638
23.9528,1638
23.9556,1657
23.9583,1646
23.9611,1639
23.9639,1617
23.9667,1603
23.9694,1616
23.9722,1622
23.9750,1632
23.9778,1633
23.9806,1651
23.9833,1642
23.9861,1643
23.9889,1656
23.9917,1657
23.9944,1653
23.9972,1661
24.0000,1650
24.0028,1637
24.0056,1634
24.0083,1637
24.0111,1635
24.0139,1634
24.0167,1652
24.0194,1660
24.0222,1656
24.0250,1659
24.0278,1653
24.0306,1652
24.0333,1656
24.0361,1665
24.0389,1646
24.0417,1645
24.0444,1633
24.0472,1654
24.0500,1646
24.0528,1649
24.0556,1667
24.0583,1664
24.0611,1658
24.0639,1634
24.0667,1636
24.0694,1635
24.0722,1642
24.0750,1657
24.0778,1666
24.0806,1669
24.0833,1677
24.0861,1703
24.0889,1725
24.0917,1741
24.0944,1750
24.0972,1751
24.1000,1733
24.1028,1717
24.1056,1715
24.1083,1719
24.1111,1741
24.1139,1764
24.1167,1801
24.1194,1832
24.1222,1829
24.1250,1830
24.1278,1826
24.1306,1803
24.1333,1777
24.1361,1728
24.1389,1705
24.1417,1695
24.1444,1694
24.1472,1686
24.1500,1683
24.1528,1643
24.1556,1640
24.1583,1616
24.1611,1610
24.1639,1610
24.1667,1606
24.1694,1587
24.1722,1580
24.1750,1597
24.1778,1609
24.1806,1609
24.1833,1610
24.1861,1617
24.1889,1636
24.1917,1618
24.1944,1615
24.1972,1614
24.2000,1610
24.2028,1603
24.2056,1604
24.2083,1609
24.2111,1625
24.2139,1615
24.2167,1628
24.2194,1627
24.2222,1627
24.2250,1645
24.2278,1637
24.2306,1629
24.2333,1615
24.2361,1594
24.2389,1589
24.2417,1606
24.2444,1669
24.2472,1747
24.2500,1864
24.2528,1986
24.2556,2154
24.2583,2383
24.2611,2621
24.2639,2799
24.2667,2858
24.2694,2796
24.2722,2659
24.2750,2449
24.2778,2134
24.2806,1765
24.2833,1419
24.2861,1169
24.2889,1033
24.2917,968
24.2944,909
24.2972,888
24.3000,885
24.3028,948
24.3056,1083
24.3083,1231
24.3111,1378
24.3139,1506
24.3167,1600
24.3194,1635
24.3222,1670
24.3250,1685
24.3278,1681
24.3306,1682
24.3333,1687
24.3361,1701
24.3389,1732
24.3417,1742
24.3444,1752
24.3472,1744
24.3500,1755
24.3528,1746
24.3556,1745
24.3583,1783
24.3611,1771
24.3639,1774
24.3667,1778
24.3694,1763
24.3722,1770
24.3750,1771
24.3778,1787
24.3806,1789
24.3833,1794
24.3861,1807
24.3889,1800
24.3917,1795
24.3944,1787
24.3972,1809
24.4000,1817
24.4028,1816
24.4056,1826
24.4083,1818
24.4111,1818
24.4139,1819
24.4167,1814
24.4194,1815
24.4222,1825
24.4250,1827
24.4278,1830
24.4306,1832
24.4333,1847
24.4361,1865
24.4389,1873
24.4417,1868
24.4444,1866
24.4472,1877
24.4500,1878
24.4528,1879
24.4556,1903
24.4583,1917
24.4611,1921
24.4639,1922
24.4667,1913
24.4694,1902
24.4722,1888
24.4750,1899
24.4778,1865
24.4806,1844
24.4833,1818
24.4861,1827
24.4889,1822
24.4917,1835
24.4944,1856
24.4972,1852
24.5000,1829
24.5028,1818
24.5056,1810
24.5083,1813
24.5111,1825
24.5139,1840
24.5167,1840
24.5194,1831
24.5222,1817
24.5250,1795
24.5278,1773
24.5306,1788
24.5333,1791
24.5361,1787
24.5389,1767
24.5417,1752
24.5444,1714
24.5472,1702
24.5500,1708
24.5528,1683
24.5556,1690
24.5583,1660
24.5611,1644
24.5639,1627
24.5667,1629
24.5694,1625
24.5722,1627
24.5750,1639
24.5778,1640
24.5806,1630
24.5833,1613
24.5861,1612
24.5889,1596
24.5917,1600
24.5944,1601
24.5972,1597
24.6000,1601
24.6028,1593
24.6056,1585
24.6083,1599
24.6111,1611
24.6139,1629
24.6167,1614
24.6194,1609
24.6222,1602
24.6250,1591
24.6278,1587
24.6306,1588
24.6333,1609
24.6361,1617
24.6389,1615
24.6417,1597
24.6444,1598
24.6472,1599
24.6500,1595
24.6528,1605
24.6556,1608
24.6583,1605
24.6611,1591
24.6639,1579
24.6667,1570
24.6694,1571
24.6722,1581
24.6750,1605
24.6778,1605
24.6806,1590
24.6833,1592
24.6861,1593
24.6889,1597
24.6917,1593
24.6944,1600
24.6972,1589
24.7000,1569
24.7028,1556
24.7056,1572
24.7083,1583
24.7111,1577
24.7139,1577
24.7167,1578
24.7194,1579
24.7222,1560
24.7250,1571
24.7278,1573
24.7306,1579
24.7333,1583
24.7361,1579
24.7389,1591
24.7417,1580
24.7444,1579
24.7472,1586
24.7500,1591
24.7528,1588
24.7556,1594
24.7583,1579
24.7611,1579
24.7639,1588
24.7667,1604
24.7694,1600
24.7722,1609
24.7750,1603
24.7778,1599
24.7806,1599
24.7833,1596
24.7861,1599
24.7889,1603
24.7917,1609
24.7944,1614
24.7972,1619
24.8000,1616
24.8028,1623
24.8056,1616
24.8083,1616
24.8111,1616
24.8139,1611
24.8167,1627
24.8194,1620
24.8222,1608
24.8250,1618
24.8278,1604
24.8306,1609
24.8333,1623
24.8361,1621
24.8389,1605
24.8417,1606
24.8444,1612
24.8472,1618
24.8500,1618
24.8528,1625
24.8556,1636
24.8583,1648
24.8611,1638
24.8639,1640
24.8667,1658
24.8694,1649
24.8722,1654
24.8750,1659
24.8778,1656
24.8806,1641
24.8833,1632
24.8861,1628
24.8889,1628
24.8917,1626
24.8944,1652
24.8972,1660
24.9000,1651
24.9028,1665
24.9056,1660
24.9083,1657
24.9111,1656
24.9139,1668
24.9167,1663
24.9194,1665
24.9222,1652
24.9250,1641
24.9278,1651
24.9306,1662
24.9333,1701
24.9361,1732
24.9389,1764
24.9417,1771
24.9444,1785
24.9472,1792
24.9500,1786
24.9528,1751
24.9556,1766
24.9583,1756
24.9611,1786
24.9639,1820
24.9667,1834
24.9694,1858
24.9722,1864
24.9750,1847
24.9778,1835
24.9806,1816
24.9833,1791
24.9861,1750
24.9889,1714
24.9917,1707
24.9944,1690
24.9972,1686
25.0000,1690
25.0028,1676
25.0056,1671
25.0083,1637
25.0111,1620
25.0139,1599
25.0167,1609
25.0194,1635
25.0222,1622
25.0250,1628
25.0278,1636
25.0306,1634
25.0333,1647
25.0361,1656
25.0389,1635
25.0417,1635
25.0444,1632
25.0472,1638
25.0500,1650
25.0528,1673
25.0556,1668
25.0583,1679
25.0611,1681
25.0639,1681
25.0667,1704
25.0694,1714
25.0722,1714
25.0750,1714
25.0778,1706
25.0806,1701
25.0833,1680
25.0861,1669
25.0889,1682
25.0917,1692
25.0944,1751
25.0972,1839
25.1000,1947
25.1028,2090
25.1056,2256
25.1083,2458
25.1111,2722
25.1139,2937
25.1167,3052
25.1194,3054
25.1222,2901
25.1250,2639
25.1278,2279
25.1306,1889
25.1333,1500
25.1361,1242
25.1389,1077
25.1417,992
25.1444,951
25.1472,985
25.1500,1050
25.1528,1182
25.1556,1319
25.1583,1468
25.1611,1587
25.1639,1689
25.1667,1741
25.1694,1769
25.1722,1780
25.1750,1761
25.1778,1753
25.1806,1748
25.1833,1752
25.1861,1780
25.1889,1792
25.1917,1809
25.1944,1822
25.1972,1835
25.2000,1827
25.2028,1815
25.2056,1820
25.2083,1829
25.2111,1838
25.2139,1853
25.2167,1850
25.2194,1856
25.2222,1851
25.2250,1851
25.2278,1861
25.2306,1865
25.2333,1856
25.2361,1849
25.2389,1850
25.2417,1856
25.2444,1863
25.2472,1856
25.2500,1863
25.2528,1844
25.2556,1857
25.2583,1853
25.2611,1853
25.2639,1859
25.2667,1869
25.2694,1882
25.2722,1886
25.2750,1883
25.2778,1883
25.2806,1884
25.2833,1890
25.2861,1887
25.2889,1885
25.2917,1877
25.2944,1877
25.2972,1888
25.3000,1894
25.3028,1886
25.3056,1909
25.3083,1918
25.3111,1905
25.3139,1897
25.3167,1886
25.3194,1898
25.3222,1898
25.3250,1841
25.3278,1890
25.3306,1912
25.3333,1912
25.3361,1915
25.3389,1898
25.3417,1873
25.3444,1862
25.3472,1858
25.3500,1884
25.3528,1893
25.3556,1890
25.3583,1867
25.3611,1850
25.3639,1844
25.3667,1843
25.3694,1855
25.3722,1855
25.3750,1856
25.3778,1825
25.3806,1816
25.3833,1795
25.3861,1785
25.3889,1779
25.3917,1781
25.3944,1773
25.3972,1743
25.4000,1705
25.4028,1680
25.4056,1645
25.4083,1655
25.4111,1672
25.4139,1677
25.4167,1672
25.4194,1653
25.4222,1641
25.4250,1637
25.4278,1631
25.4306,1649
25.4333,1639
25.4361,1649
25.4389,1623
25.4417,1615
25.4444,1619
25.4472,1628
25.4500,1629
25.4528,1635
25.4556,1644
25.4583,1630
25.4611,1621
25.4639,1630
25.4667,1639
25.4694,1645
25.4722,1644
25.4750,1627
25.4778,1609
25.4806,1583
25.4833,1586
25.4861,1604
25.4889,1624
25.4917,1639
25.4944,1621
25.4972,1625
25.5000,1610
25.5028,1615
25.5056,1634
25.5083,1637
25.5111,1645
25.5139,1655
25.5167,1647
25.5194,1624
25.5222,1628
25.5250,1630
25.5278,1637
25.5306,1654
25.5333,1667
25.5361,1667
25.5389,1655
25.5417,1641
25.5444,1653
25.5472,1658
25.5500,1661
25.5528,1664
25.5556,1679
25.5583,1685
25.5611,1692
25.5639,1670
25.5667,1674
25.5694,1676
25.5722,1672
25.5750,1684
25.5778,1686
25.5806,1683
25.5833,1678
25.5861,1695
25.5889,1684
25.5917,1692
25.5944,1697
25.5972,1687
25.6000,1683
25.6028,1688
25.6056,1689
25.6083,1704
25.6111,1706
25.6139,1716
25.6167,1705
25.6194,1691
25.6222,1699
25.6250,1697
25.6278,1702
25.6306,1703
25.6333,1698
25.6361,1697
25.6389,1693
25.6417,1694
25.6444,1691
25.6472,1700
25.6500,1722
25.6528,1738
25.6556,1730
25.6583,1713
25.6611,1692
25.6639,1697
25.6667,1688
25.6694,1689
25.6722,1699
25.6750,1697
25.6778,1712
25.6806,1699
25.6833,1711
25.6861,1704
25.6889,1705
25.6917,1707
25.6944,1722
25.6972,1709
25.7000,1713
25.7028,1707
25.7056,1710
25.7083,1705
25.7111,1698
25.7139,1715
25.7167,1713
25.7194,1705
25.7222,1706
25.7250,1711
25.7278,1704
25.7306,1710
25.7333,1725
25.7361,1715
25.7389,1722
25.7417,1726
25.7444,1739
25.7472,1741
25.7500,1746
25.7528,1739
25.7556,1752
25.7583,1736
25.7611,1741
25.7639,1751
25.7667,1735
25.7694,1727
25.7722,1731
25.7750,1732
25.7778,1732
25.7806,1740
25.7833,1736
25.7861,1738
25.7889,1739
25.7917,1745
25.7944,1735
25.7972,1721
25.8000,1718
25.8028,1695
25.8056,1686
25.8083,1673
25.8111,1681
25.8139,1693
25.8167,1715
25.8194,1702
25.8222,1718
25.8250,1709
25.8278,1714
25.8306,1713
25.8333,1714
25.8361,1726
25.8389,1723
25.8417,1726
25.8444,1754
25.8472,1779
25.8500,1801
25.8528,1814
25.8556,1821
25.8583,1811
25.8611,1817
25.8639,1823
25.8667,1831
25.8694,1827
25.8722,1839
25.8750,1868
25.8778,1861
25.8806,1880
25.8833,1901
25.8861,1913
25.8889,1912
25.8917,1884
25.8944,1871
25.8972,1815
25.9000,1775
25.9028,1754
25.9056,1733
25.9083,1731
25.9111,1727
25.9139,1731
25.9167,1716
25.9194,1698
25.9222,1678
25.9250,1652
25.9278,1655
25.9306,1655
25.9333,1655
25.9361,1663
25.9389,1656
25.9417,1675
25.9444,1668
25.9472,1662
25.9500,1665
25.9528,1655
25.9556,1652
25.9583,1650
25.9611,1665
25.9639,1664
25.9667,1680
25.9694,1673
25.9722,1664
25.9750,1655
25.9778,1635
25.9806,1653
25.9833,1654
25.9861,1656
25.9889,1661
25.9917,1652
25.9944,1653
25.9972,1651
26.0000,1623
26.0028,1619
26.0056,1622
26.0083,1680
26.0111,1782
26.0139,1917
26.0167,2060
26.0194,2255
26.0222,2489
26.0250,2743
26.0278,2928
26.0306,3014
26.0333,2959
26.0361,2782
26.0389,2476
26.0417,2121
26.0444,1746
26.0472,1397
26.0500,1168
26.0528,1034
26.0556,961
26.0583,958
26.0611,1009
26.0639,1096
26.0667,1210
26.0694,1347
26.0722,1493
26.0750,1609
26.0778,1669
26.0806,1708
26.0833,1712
26.0861,1711
26.0889,1701
26.0917,1704
26.0944,1700
26.0972,1709
26.1000,1722
26.1028,1729
26.1056,1743
26.1083,1742
26.1111,1747
26.1139,1763
26.1167,1762
26.1194,1765
26.1222,1775
26.1250,1776
26.1278,1771
26.1306,1771
26.1333,1746
26.1361,1765
26.1389,1764
26.1417,1775
26.1444,1797
26.1472,1798
26.1500,1793
26.1528,1795
26.1556,1816
26.1583,1818
26.1611,1816
26.1639,1809
26.1667,1803
26.1694,1793
26.1722,1797
26.1750,1804
26.1778,1815
26.1806,1823
26.1833,1834
26.1861,1833
26.1889,1835
26.1917,1834
26.1944,1834
26.1972,1839
26.2000,1833
26.2028,1846
26.2056,1851
26.2083,1870
26.2111,1858
26.2139,1838
26.2167,1853
26.2194,1865
26.2222,1884
26.2250,1888
26.2278,1895
26.2306,1889
26.2333,1893
26.2361,1900
26.2389,1851
26.2417,1848
26.2444,1859
26.2472,1872
26.2500,1881
26.2528,1891
26.2556,1887
26.2583,1872
26.2611,1865
26.2639,1876
26.2667,1877
26.2694,1879
26.2722,1894
26.2750,1893
26.2778,1894
26.2806,1880
26.2833,1859
26.2861,1854
26.2889,1834
26.2917,1822
26.2944,1829
26.2972,1823
26.3000,1800
26.3028,1771
26.3056,1768
26.3083,1748
26.3111,1739
26.3139,1724
26.3167,1713
26.3194,1687
26.3222,1664
26.3250,1657
26.3278,1665
26.3306,1669
26.3333,1671
26.3361,1669
26.3389,1644
26.3417,1627
26.3444,1615
26.3472,1612
26.3500,1595
26.3528,1606
26.3556,1605
26.3583,1600
26.3611,1608
26.3639,1611
26.3667,1614
26.3694,1620
26.3722,1641
26.3750,1651
26.3778,1628
26.3806,1610
26.3833,1595
26.3861,1608
26.3889,1626
26.3917,1644
26.3944,1648
26.3972,1650
26.4000,1636
26.4028,1628
26.4056,1641
26.4083,1641
26.4111,1641
26.4139,1630
26.4167,1631
26.4194,1624
26.4222,1621
26.4250,1635
26.4278,1630
26.4306,1649
