Tiempo(s),Valor_ADC
0.0028,1516
0.0056,1514
0.0083,1506
0.0111,1508
0.0139,1517
0.0167,1525
0.0194,1544
0.0222,1545
0.0250,1552
0.0278,1545
0.0306,1543
0.0333,1547
0.0361,1548
0.0389,1570
0.0417,1568
0.0444,1566
0.0472,1564
0.0500,1553
0.0528,1557
0.0556,1559
0.0583,1564
0.0611,1588
0.0639,1574
0.0667,1563
0.0694,1562
0.0722,1546
0.0750,1549
0.0778,1552
0.0806,1559
0.0833,1558
0.0861,1547
0.0889,1541
0.0917,1532
0.0944,1527
0.0972,1531
0.1000,1527
0.1028,1530
0.1056,1525
0.1083,1511
0.1111,1512
0.1139,1510
0.1167,1517
0.1194,1517
0.1222,1519
0.1250,1512
0.1278,1508
0.1306,1506
0.1333,1502
0.1361,1511
0.1389,1516
0.1417,1517
0.1444,1523
0.1472,1519
0.1500,1517
0.1528,1516
0.1556,1526
0.1583,1526
0.1611,1534
0.1639,1532
0.1667,1526
0.1694,1525
0.1722,1522
0.1750,1528
0.1778,1535
0.1806,1545
0.1833,1548
0.1861,1542
0.1889,1541
0.1917,1539
0.1944,1544
0.1972,1549
0.2000,1554
0.2028,1551
0.2056,1544
0.2083,1528
0.2111,1508
0.2139,1494
0.2167,1480
0.2194,1488
0.2222,1500
0.2250,1532
0.2278,1564
0.2306,1600
0.2333,1646
0.2361,1694
0.2389,1729
0.2417,1732
0.2444,1734
0.2472,1748
0.2500,1770
0.2528,1796
0.2556,1824
0.2583,1856
0.2611,1872
0.2639,1897
0.2667,1889
0.2694,1883
0.2722,1850
0.2750,1841
0.2778,1809
0.2806,1779
0.2833,1747
0.2861,1705
0.2889,1655
0.2917,1614
0.2944,1580
0.2972,1556
0.3000,1557
0.3028,1557
0.3056,1557
0.3083,1553
0.3111,1556
0.3139,1556
0.3167,1557
0.3194,1550
0.3222,1543
0.3250,1545
0.3278,1541
0.3306,1542
0.3333,1542
0.3361,1541
0.3389,1542
0.3417,1545
0.3444,1540
0.3472,1542
0.3500,1544
0.3528,1542
0.3556,1545
0.3583,1554
0.3611,1549
0.3639,1546
0.3667,1536
0.3694,1499
0.3722,1449
0.3750,1407
0.3778,1380
0.3806,1406
0.3833,1469
0.3861,1582
0.3889,1750
0.3917,1930
0.3944,2117
0.3972,2288
0.4000,2434
0.4028,2597
0.4056,2763
0.4083,2945
0.4111,3037
0.4139,2867
0.4167,2462
0.4194,1979
0.4222,1512
0.4250,1147
0.4278,909
0.4306,811
0.4333,828
0.4361,935
0.4389,1092
0.4417,1256
0.4444,1384
0.4472,1464
0.4500,1510
0.4528,1529
0.4556,1544
0.4583,1566
0.4611,1584
0.4639,1582
0.4667,1571
0.4694,1560
0.4722,1557
0.4750,1568
0.4778,1583
0.4806,1610
0.4833,1615
0.4861,1617
0.4889,1619
0.4917,1607
0.4944,1612
0.4972,1621
0.5000,1635
0.5028,1645
0.5056,1649
0.5083,1639
0.5111,1627
0.5139,1636
0.5167,1640
0.5194,1654
0.5222,1675
0.5250,1679
0.5278,1678
0.5306,1672
0.5333,1662
0.5361,1681
0.5389,1688
0.5417,1704
0.5444,1717
0.5472,1712
0.5500,1714
0.5528,1709
0.5556,1737
0.5583,1745
0.5611,1769
0.5639,1788
0.5667,1774
0.5694,1772
0.5722,1771
0.5750,1784
0.5778,1810
0.5806,1820
0.5833,1835
0.5861,1836
0.5889,1826
0.5917,1836
0.5944,1847
0.5972,1866
0.6000,1885
0.6028,1898
0.6056,1899
0.6083,1907
0.6111,1897
0.6139,1904
0.6167,1698
0.6194,1701
0.6222,1702
0.6250,1685
0.6278,1655
0.6306,1627
0.6333,1612
0.6361,1610
0.6389,1612
0.6417,1610
0.6444,1605
0.6472,1595
0.6500,1592
0.6528,1580
0.6556,1583
0.6583,1589
0.6611,1600
0.6639,1603
0.6667,1593
0.6694,1584
0.6722,1577
0.6750,1591
0.6778,1597
0.6806,1609
0.6833,1617
0.6861,1608
0.6889,1593
0.6917,1598
0.6944,1604
0.6972,1621
0.7000,1629
0.7028,1632
0.7056,1626
0.7083,1625
0.7111,1630
0.7139,1625
0.7167,1648
0.7194,1642
0.7222,1647
0.7250,1655
0.7278,1651
0.7306,1632
0.7333,1634
0.7361,1647
0.7389,1657
0.7417,1663
0.7444,1659
0.7472,1658
0.7500,1657
0.7528,1651
0.7556,1656
0.7583,1662
0.7611,1670
0.7639,1664
0.7667,1658
0.7694,1659
0.7722,1652
0.7750,1654
0.7778,1662
0.7806,1658
0.7833,1664
0.7861,1659
0.7889,1658
0.7917,1642
0.7944,1644
0.7972,1653
0.8000,1659
0.8028,1662
0.8056,1651
0.8083,1640
0.8111,1635
0.8139,1629
0.8167,1641
0.8194,1639
0.8222,1645
0.8250,1633
0.8278,1638
0.8306,1638
0.8333,1636
0.8361,1643
0.8389,1646
0.8417,1653
0.8444,1655
0.8472,1649
0.8500,1640
0.8528,1637
0.8556,1640
0.8583,1638
0.8611,1653
0.8639,1648
0.8667,1645
0.8694,1641
0.8722,1641
0.8750,1648
0.8778,1652
0.8806,1657
0.8833,1652
0.8861,1647
0.8889,1638
0.8917,1633
0.8944,1640
0.8972,1640
0.9000,1652
0.9028,1652
0.9056,1656
0.9083,1652
0.9111,1647
0.9139,1648
0.9167,1648
0.9194,1653
0.9222,1658
0.9250,1658
0.9278,1648
0.9306,1655
0.9333,1655
0.9361,1657
0.9389,1658
0.9417,1655
0.9444,1650
0.9472,1637
0.9500,1638
0.9528,1644
0.9556,1645
0.9583,1652
0.9611,1653
0.9639,1652
0.9667,1646
0.9694,1639
0.9722,1643
0.9750,1638
0.9778,1643
0.9806,1652
0.9833,1655
0.9861,1682
0.9889,1691
0.9917,1727
0.9944,1753
0.9972,1781
1.0000,1805
1.0028,1802
1.0056,1788
1.0083,1771
1.0111,1773
1.0139,1793
1.0167,1837
1.0194,1876
1.0222,1898
1.0250,1916
1.0278,1908
1.0306,1890
1.0333,1874
1.0361,1834
1.0389,1807
1.0417,1773
1.0444,1746
1.0472,1714
1.0500,1690
1.0528,1651
1.0556,1614
1.0583,1595
1.0611,1593
1.0639,1587
1.0667,1594
1.0694,1600
1.0722,1603
1.0750,1608
1.0778,1603
1.0806,1610
1.0833,1607
1.0861,1593
1.0889,1591
1.0917,1589
1.0944,1601
1.0972,1599
1.1000,1594
1.1028,1597
1.1056,1598
1.1083,1607
1.1111,1617
1.1139,1614
1.1167,1619
1.1194,1617
1.1222,1609
1.1250,1595
1.1278,1566
1.1306,1511
1.1333,1465
1.1361,1447
1.1389,1481
1.1417,1557
1.1444,1691
1.1472,1865
1.1500,2053
1.1528,2240
1.1556,2406
1.1583,2570
1.1611,2727
1.1639,2903
1.1667,3078
1.1694,3096
1.1722,2847
1.1750,2408
1.1778,1921
1.1806,1487
1.1833,1163
1.1861,976
1.1889,915
1.1917,960
1.1944,1080
1.1972,1231
1.2000,1375
1.2028,1483
1.2056,1557
1.2083,1584
1.2111,1599
1.2139,1614
1.2167,1630
1.2194,1654
1.2222,1656
1.2250,1641
1.2278,1627
1.2306,1631
1.2333,1631
1.2361,1655
1.2389,1673
1.2417,1673
1.2444,1670
1.2472,1667
1.2500,1651
1.2528,1660
1.2556,1671
1.2583,1689
1.2611,1691
1.2639,1680
1.2667,1676
1.2694,1664
1.2722,1681
1.2750,1689
1.2778,1703
1.2806,1722
1.2833,1723
1.2861,1715
1.2889,1710
1.2917,1723
1.2944,1730
1.2972,1746
1.3000,1757
1.3028,1759
1.3056,1748
1.3083,1747
1.3111,1746
1.3139,1758
1.3167,1774
1.3194,1787
1.3222,1785
1.3250,1791
1.3278,1787
1.3306,1794
1.3333,1803
1.3361,1819
1.3389,1835
1.3417,1836
1.3444,1838
1.3472,1841
1.3500,1845
1.3528,1853
1.3556,1867
1.3583,1884
1.3611,1893
1.3639,1893
1.3667,1901
1.3694,1897
1.3722,1902
1.3750,1660
1.3778,1672
1.3806,1661
1.3833,1636
1.3861,1610
1.3889,1592
1.3917,1585
1.3944,1582
1.3972,1586
1.4000,1593
1.4028,1585
1.4056,1556
1.4083,1552
1.4111,1553
1.4139,1557
1.4167,1567
1.4194,1575
1.4222,1563
1.4250,1551
1.4278,1539
1.4306,1537
1.4333,1556
1.4361,1574
1.4389,1584
1.4417,1590
1.4444,1581
1.4472,1578
1.4500,1573
1.4528,1574
1.4556,1588
1.4583,1592
1.4611,1599
1.4639,1595
1.4667,1594
1.4694,1587
1.4722,1602
1.4750,1610
1.4778,1625
1.4806,1631
1.4833,1630
1.4861,1627
1.4889,1622
1.4917,1625
1.4944,1637
1.4972,1640
1.5000,1653
1.5028,1648
1.5056,1643
1.5083,1640
1.5111,1634
1.5139,1645
1.5167,1653
1.5194,1654
1.5222,1655
1.5250,1645
1.5278,1641
1.5306,1638
1.5333,1640
1.5361,1648
1.5389,1660
1.5417,1657
1.5444,1655
1.5472,1646
1.5500,1638
1.5528,1637
1.5556,1652
1.5583,1654
1.5611,1649
1.5639,1641
1.5667,1625
1.5694,1622
1.5722,1624
1.5750,1629
1.5778,1643
1.5806,1636
1.5833,1637
1.5861,1639
1.5889,1638
1.5917,1629
1.5944,1638
1.5972,1640
1.6000,1644
1.6028,1639
1.6056,1629
1.6083,1637
1.6111,1637
1.6139,1634
1.6167,1644
1.6194,1647
1.6222,1648
1.6250,1642
1.6278,1635
1.6306,1638
1.6333,1639
1.6361,1635
1.6389,1649
1.6417,1642
1.6444,1650
1.6472,1630
1.6500,1636
1.6528,1631
1.6556,1627
1.6583,1637
1.6611,1643
1.6639,1633
1.6667,1631
1.6694,1642
1.6722,1629
1.6750,1648
1.6778,1651
1.6806,1652
1.6833,1654
1.6861,1651
1.6889,1649
1.6917,1645
1.6944,1652
1.6972,1655
1.7000,1668
1.7028,1669
1.7056,1665
1.7083,1657
1.7111,1661
1.7139,1664
1.7167,1661
1.7194,1670
1.7222,1657
1.7250,1657
1.7278,1656
1.7306,1659
1.7333,1661
1.7361,1674
1.7389,1672
1.7417,1673
1.7444,1665
1.7472,1668
1.7500,1662
1.7528,1664
1.7556,1667
1.7583,1672
1.7611,1675
1.7639,1676
1.7667,1664
1.7694,1668
1.7722,1667
1.7750,1663
1.7778,1667
1.7806,1668
1.7833,1666
1.7861,1665
1.7889,1668
1.7917,1667
1.7944,1660
1.7972,1665
1.8000,1673
1.8028,1667
1.8056,1664
1.8083,1671
1.8111,1673
1.8139,1691
1.8167,1720
1.8194,1754
1.8222,1782
1.8250,1797
1.8278,1811
1.8306,1806
1.8333,1802
1.8361,1789
1.8389,1799
1.8417,1828
1.8444,1864
1.8472,1893
1.8500,1917
1.8528,1932
1.8556,1939
1.8583,1930
1.8611,1894
1.8639,1868
1.8667,1830
1.8694,1788
1.8722,1764
1.8750,1738
1.8778,1704
1.8806,1666
1.8833,1640
1.8861,1617
1.8889,1614
1.8917,1620
1.8944,1618
1.8972,1621
1.9000,1628
1.9028,1625
1.9056,1624
1.9083,1624
1.9111,1624
1.9139,1627
1.9167,1629
1.9194,1627
1.9222,1625
1.9250,1623
1.9278,1618
1.9306,1621
1.9333,1635
1.9361,1634
1.9389,1640
1.9417,1640
1.9444,1649
1.9472,1644
1.9500,1636
1.9528,1615
1.9556,1582
1.9583,1527
1.9611,1492
1.9639,1482
1.9667,1529
1.9694,1621
1.9722,1763
1.9750,1938
1.9778,2125
1.9806,2307
1.9833,2464
1.9861,2614
1.9889,2779
1.9917,2952
1.9944,3105
1.9972,3043
2.0000,2728
2.0028,2267
2.0056,1803
2.0083,1395
2.0111,1127
2.0139,983
2.0167,953
2.0194,1018
2.0222,1131
2.0250,1286
2.0278,1413
2.0306,1512
2.0333,1561
2.0361,1592
2.0389,1608
2.0417,1625
2.0444,1642
2.0472,1660
2.0500,1658
2.0528,1648
2.0556,1652
2.0583,1646
2.0611,1662
2.0639,1677
2.0667,1696
2.0694,1697
2.0722,1695
2.0750,1686
2.0778,1691
2.0806,1702
2.0833,1721
2.0861,1723
2.0889,1727
2.0917,1722
2.0944,1720
2.0972,1715
2.1000,1728
2.1028,1746
2.1056,1749
2.1083,1748
2.1111,1751
2.1139,1750
2.1167,1757
2.1194,1758
2.1222,1772
2.1250,1792
2.1278,1794
2.1306,1797
2.1333,1786
2.1361,1785
2.1389,1788
2.1417,1804
2.1444,1815
2.1472,1822
2.1500,1837
2.1528,1819
2.1556,1830
2.1583,1828
2.1611,1846
2.1639,1858
2.1667,1884
2.1694,1885
2.1722,1877
2.1750,1888
2.1778,1900
2.1806,1907
2.1833,1930
2.1861,1941
2.1889,1944
2.1917,1947
2.1944,1952
2.1972,1955
2.2000,1745
2.2028,1755
2.2056,1740
2.2083,1718
2.2111,1693
2.2139,1678
2.2167,1659
2.2194,1653
2.2222,1651
2.2250,1649
2.2278,1631
2.2306,1626
2.2333,1610
2.2361,1599
2.2389,1602
2.2417,1610
2.2444,1612
2.2472,1612
2.2500,1611
2.2528,1594
2.2556,1599
2.2583,1602
2.2611,1605
2.2639,1622
2.2667,1617
2.2694,1624
2.2722,1617
2.2750,1608
2.2778,1610
2.2806,1615
2.2833,1616
2.2861,1632
2.2889,1628
2.2917,1626
2.2944,1623
2.2972,1633
2.3000,1632
2.3028,1648
2.3056,1647
2.3083,1646
2.3111,1640
2.3139,1643
2.3167,1647
2.3194,1658
2.3222,1665
2.3250,1672
2.3278,1669
2.3306,1668
2.3333,1664
2.3361,1673
2.3389,1671
2.3417,1674
2.3444,1683
2.3472,1684
2.3500,1682
2.3528,1678
2.3556,1674
2.3583,1669
2.3611,1681
2.3639,1682
2.3667,1685
2.3694,1676
2.3722,1665
2.3750,1650
2.3778,1659
2.3806,1658
2.3833,1668
2.3861,1672
2.3889,1676
2.3917,1674
2.3944,1664
2.3972,1663
2.4000,1661
2.4028,1667
2.4056,1667
2.4083,1666
2.4111,1671
2.4139,1651
2.4167,1653
2.4194,1652
2.4222,1657
2.4250,1660
2.4278,1658
2.4306,1655
2.4333,1648
2.4361,1652
2.4389,1657
2.4417,1664
2.4444,1664
2.4472,1658
2.4500,1657
2.4528,1650
2.4556,1646
2.4583,1651
2.4611,1659
2.4639,1668
2.4667,1658
2.4694,1656
2.4722,1654
2.4750,1653
2.4778,1651
2.4806,1649
2.4833,1657
2.4861,1654
2.4889,1661
2.4917,1651
2.4944,1650
2.4972,1651
2.5000,1663
2.5028,1658
2.5056,1661
2.5083,1658
2.5111,1658
2.5139,1645
2.5167,1648
2.5194,1656
2.5222,1664
2.5250,1663
2.5278,1660
2.5306,1656
2.5333,1653
2.5361,1657
2.5389,1655
2.5417,1665
2.5444,1677
2.5472,1673
2.5500,1673
2.5528,1668
2.5556,1670
2.5583,1659
2.5611,1671
2.5639,1668
2.5667,1668
2.5694,1672
2.5722,1670
2.5750,1663
2.5778,1670
2.5806,1671
2.5833,1671
2.5861,1676
2.5889,1672
2.5917,1671
2.5944,1672
2.5972,1669
2.6000,1674
2.6028,1679
2.6056,1673
2.6083,1681
2.6111,1672
2.6139,1671
2.6167,1672
2.6194,1675
2.6222,1680
2.6250,1682
2.6278,1681
2.6306,1679
2.6333,1670
2.6361,1662
2.6389,1667
2.6417,1663
2.6444,1672
2.6472,1672
2.6500,1659
2.6528,1664
2.6556,1656
2.6583,1661
2.6611,1662
2.6639,1668
2.6667,1673
2.6694,1677
2.6722,1670
2.6750,1671
2.6778,1672
2.6806,1687
2.6833,1718
2.6861,1737
2.6889,1763
2.6917,1793
2.6944,1802
2.6972,1799
2.7000,1798
2.7028,1800
2.7056,1799
2.7083,1813
2.7111,1842
2.7139,1875
2.7167,1902
2.7194,1930
2.7222,1927
2.7250,1935
2.7278,1917
2.7306,1894
2.7333,1851
2.7361,1822
2.7389,1785
2.7417,1753
2.7444,1719
2.7472,1678
2.7500,1648
2.7528,1617
2.7556,1602
2.7583,1600
2.7611,1598
2.7639,1590
2.7667,1594
2.7694,1604
2.7722,1595
2.7750,1599
2.7778,1604
2.7806,1592
2.7833,1591
2.7861,1586
2.7889,1588
2.7917,1593
2.7944,1591
2.7972,1592
2.8000,1592
2.8028,1596
2.8056,1599
2.8083,1593
2.8111,1598
2.8139,1596
2.8167,1593
2.8194,1593
2.8222,1574
2.8250,1547
2.8278,1490
2.8306,1451
2.8333,1437
2.8361,1468
2.8389,1542
2.8417,1682
2.8444,1855
2.8472,2042
2.8500,2218
2.8528,2377
2.8556,2533
2.8583,2697
2.8611,2866
2.8639,3034
2.8667,3032
2.8694,2770
2.8722,2337
2.8750,1874
2.8778,1455
2.8806,1148
2.8833,968
2.8861,914
2.8889,944
2.8917,1057
2.8944,1198
2.8972,1330
2.9000,1425
2.9028,1484
2.9056,1521
2.9083,1538
2.9111,1560
2.9139,1576
2.9167,1586
2.9194,1586
2.9222,1580
2.9250,1562
2.9278,1565
2.9306,1570
2.9333,1595
2.9361,1607
2.9389,1611
2.9417,1613
2.9444,1610
2.9472,1605
2.9500,1614
2.9528,1633
2.9556,1632
2.9583,1641
2.9611,1637
2.9639,1626
2.9667,1620
2.9694,1616
2.9722,1641
2.9750,1648
2.9778,1658
2.9806,1655
2.9833,1647
2.9861,1646
2.9889,1644
2.9917,1655
2.9944,1676
2.9972,1678
3.0000,1681
3.0028,1682
3.0056,1675
3.0083,1675
3.0111,1684
3.0139,1708
3.0167,1722
3.0194,1724
3.0222,1720
3.0250,1723
3.0278,1734
3.0306,1744
3.0333,1759
3.0361,1770
3.0389,1789
3.0417,1790
3.0444,1791
3.0472,1798
3.0500,1815
3.0528,1833
3.0556,1847
3.0583,1858
3.0611,1854
3.0639,1861
3.0667,1854
3.0694,1864
3.0722,1646
3.0750,1645
3.0778,1637
3.0806,1602
3.0833,1574
3.0861,1562
3.0889,1548
3.0917,1545
3.0944,1538
3.0972,1539
3.1000,1532
3.1028,1514
3.1056,1507
3.1083,1503
3.1111,1505
3.1139,1511
3.1167,1517
3.1194,1522
3.1222,1508
3.1250,1502
3.1278,1488
3.1306,1502
3.1333,1515
3.1361,1531
3.1389,1524
3.1417,1524
3.1444,1514
3.1472,1517
3.1500,1525
3.1528,1530
3.1556,1530
3.1583,1532
3.1611,1529
3.1639,1522
3.1667,1521
3.1694,1540
3.1722,1535
3.1750,1550
3.1778,1553
3.1806,1551
3.1833,1540
3.1861,1543
3.1889,1543
3.1917,1556
3.1944,1566
3.1972,1573
3.2000,1564
3.2028,1565
3.2056,1557
3.2083,1566
3.2111,1561
3.2139,1563
3.2167,1578
3.2194,1578
3.2222,1576
3.2250,1575
3.2278,1572
3.2306,1577
3.2333,1577
3.2361,1585
3.2389,1584
3.2417,1586
3.2444,1573
3.2472,1576
3.2500,1576
3.2528,1578
3.2556,1584
3.2583,1582
3.2611,1580
3.2639,1574
3.2667,1572
3.2694,1568
3.2722,1571
3.2750,1580
3.2778,1590
3.2806,1573
3.2833,1573
3.2861,1567
3.2889,1566
3.2917,1576
3.2944,1577
3.2972,1588
3.3000,1579
3.3028,1573
3.3056,1567
3.3083,1561
3.3111,1569
3.3139,1577
3.3167,1581
3.3194,1590
3.3222,1582
3.3250,1586
3.3278,1577
3.3306,1570
3.3333,1568
3.3361,1573
3.3389,1577
3.3417,1570
3.3444,1571
3.3472,1565
3.3500,1573
3.3528,1583
3.3556,1581
3.3583,1588
3.3611,1579
3.3639,1584
3.3667,1580
3.3694,1587
3.3722,1587
3.3750,1589
3.3778,1596
3.3806,1586
3.3833,1589
3.3861,1581
3.3889,1587
3.3917,1600
3.3944,1596
3.3972,1597
3.4000,1605
3.4028,1591
3.4056,1592
3.4083,1598
3.4111,1600
3.4139,1611
3.4167,1614
3.4194,1611
3.4222,1608
3.4250,1604
3.4278,1603
3.4306,1609
3.4333,1611
3.4361,1615
3.4389,1612
3.4417,1619
3.4444,1620
3.4472,1619
3.4500,1624
3.4528,1626
3.4556,1621
3.4583,1622
3.4611,1622
3.4639,1611
3.4667,1610
3.4694,1618
3.4722,1616
3.4750,1613
3.4778,1623
3.4806,1619
3.4833,1620
3.4861,1624
3.4889,1627
3.4917,1625
3.4944,1627
3.4972,1626
3.5000,1620
3.5028,1623
3.5056,1625
3.5083,1626
3.5111,1628
3.5139,1629
3.5167,1633
3.5194,1629
3.5222,1623
3.5250,1624
3.5278,1628
3.5306,1621
3.5333,1623
3.5361,1633
3.5389,1634
3.5417,1636
3.5444,1633
3.5472,1629
3.5500,1637
3.5528,1633
3.5556,1634
3.5583,1638
3.5611,1631
3.5639,1639
3.5667,1643
3.5694,1649
3.5722,1670
3.5750,1699
3.5778,1723
3.5806,1744
3.5833,1760
3.5861,1770
3.5889,1777
3.5917,1780
3.5944,1794
3.5972,1802
3.6000,1829
3.6028,1848
3.6056,1883
3.6083,1916
3.6111,1943
3.6139,1954
3.6167,1948
3.6194,1932
3.6222,1901
3.6250,1878
3.6278,1834
3.6306,1799
3.6333,1762
3.6361,1717
3.6389,1681
3.6417,1648
3.6444,1634
3.6472,1611
3.6500,1613
3.6528,1610
3.6556,1616
3.6583,1619
3.6611,1611
3.6639,1612
3.6667,1613
3.6694,1605
3.6722,1602
3.6750,1603
3.6778,1606
3.6806,1610
3.6833,1603
3.6861,1604
3.6889,1603
3.6917,1599
3.6944,1606
3.6972,1611
3.7000,1614
3.7028,1620
3.7056,1618
3.7083,1611
3.7111,1611
3.7139,1601
3.7167,1582
3.7194,1536
3.7222,1478
3.7250,1454
3.7278,1463
3.7306,1513
3.7333,1630
3.7361,1795
3.7389,1980
3.7417,2164
3.7444,2344
3.7472,2487
3.7500,2654
3.7528,2805
3.7556,2992
3.7583,3097
3.7611,2963
3.7639,2599
3.7667,2135
3.7694,1684
3.7722,1327
3.7750,1086
3.7778,959
3.7806,947
3.7833,1023
3.7861,1142
3.7889,1272
3.7917,1394
3.7944,1483
3.7972,1526
3.8000,1553
3.8028,1566
3.8056,1590
3.8083,1605
3.8111,1618
3.8139,1617
3.8167,1608
3.8194,1605
3.8222,1615
3.8250,1631
3.8278,1639
3.8306,1650
3.8333,1650
3.8361,1647
3.8389,1645
3.8417,1647
3.8444,1659
3.8472,1681
3.8500,1686
3.8528,1690
3.8556,1688
3.8583,1683
3.8611,1676
3.8639,1688
3.8667,1705
3.8694,1719
3.8722,1721
3.8750,1717
3.8778,1715
3.8806,1715
3.8833,1714
3.8861,1738
3.8889,1757
3.8917,1771
3.8944,1762
3.8972,1762
3.9000,1762
3.9028,1775
3.9056,1789
3.9083,1801
3.9111,1816
3.9139,1812
3.9167,1809
3.9194,1820
3.9222,1823
3.9250,1841
3.9278,1858
3.9306,1870
3.9333,1880
3.9361,1877
3.9389,1871
3.9417,1876
3.9444,1888
3.9472,1917
3.9500,1931
3.9528,1939
3.9556,1943
3.9583,1949
3.9611,1958
3.9639,1745
3.9667,1757
3.9694,1743
3.9722,1721
3.9750,1692
3.9778,1663
3.9806,1651
3.9833,1635
3.9861,1645
3.9889,1635
3.9917,1632
3.9944,1618
3.9972,1607
4.0000,1605
4.0028,1600
4.0056,1602
4.0083,1614
4.0111,1605
4.0139,1604
4.0167,1593
4.0194,1592
4.0222,1598
4.0250,1607
4.0278,1618
4.0306,1620
4.0333,1619
4.0361,1618
4.0389,1616
4.0417,1618
4.0444,1616
4.0472,1612
4.0500,1626
4.0528,1629
4.0556,1619
4.0583,1622
4.0611,1629
4.0639,1647
4.0667,1647
4.0694,1654
4.0722,1654
4.0750,1646
4.0778,1638
4.0806,1642
4.0833,1645
4.0861,1649
4.0889,1663
4.0917,1669
4.0944,1662
4.0972,1656
4.1000,1658
4.1028,1674
4.1056,1677
4.1083,1685
4.1111,1682
4.1139,1684
4.1167,1675
4.1194,1671
4.1222,1672
4.1250,1682
4.1278,1684
4.1306,1691
4.1333,1691
4.1361,1679
4.1389,1673
4.1417,1672
4.1444,1684
4.1472,1687
4.1500,1681
4.1528,1688
4.1556,1681
4.1583,1678
4.1611,1680
4.1639,1693
4.1667,1689
4.1694,1685
4.1722,1681
4.1750,1674
4.1778,1669
4.1806,1666
4.1833,1676
4.1861,1682
4.1889,1693
4.1917,1693
4.1944,1681
4.1972,1678
4.2000,1674
4.2028,1671
4.2056,1670
4.2083,1676
4.2111,1670
4.2139,1672
4.2167,1669
4.2194,1675
4.2222,1670
4.2250,1675
4.2278,1672
4.2306,1676
4.2333,1674
4.2361,1677
4.2389,1668
4.2417,1670
4.2444,1672
4.2472,1674
4.2500,1680
4.2528,1680
4.2556,1692
4.2583,1682
4.2611,1688
4.2639,1680
4.2667,1683
4.2694,1689
4.2722,1684
4.2750,1684
4.2778,1679
4.2806,1682
4.2833,1681
4.2861,1689
4.2889,1690
4.2917,1696
4.2944,1694
4.2972,1687
4.3000,1690
4.3028,1689
4.3056,1692
4.3083,1697
4.3111,1699
4.3139,1705
4.3167,1685
4.3194,1688
4.3222,1692
4.3250,1691
4.3278,1693
4.3306,1692
4.3333,1685
4.3361,1695
4.3389,1686
4.3417,1688
4.3444,1690
4.3472,1704
4.3500,1698
4.3528,1696
4.3556,1697
4.3583,1696
4.3611,1688
4.3639,1700
4.3667,1699
4.3694,1698
4.3722,1698
4.3750,1700
4.3778,1695
4.3806,1696
4.3833,1691
4.3861,1703
4.3889,1696
4.3917,1694
4.3944,1694
4.3972,1694
4.4000,1688
4.4028,1700
4.4056,1700
4.4083,1701
4.4111,1705
4.4139,1705
4.4167,1706
4.4194,1710
4.4222,1712
4.4250,1710
4.4278,1709
4.4306,1718
4.4333,1718
4.4361,1706
4.4389,1717
4.4417,1708
4.4444,1723
4.4472,1714
4.4500,1721
4.4528,1728
4.4556,1720
4.4583,1719
4.4611,1730
4.4639,1738
4.4667,1742
4.4694,1767
4.4722,1793
4.4750,1813
4.4778,1828
4.4806,1852
4.4833,1849
4.4861,1857
4.4889,1859
4.4917,1865
4.4944,1897
4.4972,1924
4.5000,1946
4.5028,1960
4.5056,1989
4.5083,2011
4.5111,2008
4.5139,1999
4.5167,1981
4.5194,1955
4.5222,1931
4.5250,1894
4.5278,1860
4.5306,1807
4.5333,1765
4.5361,1722
4.5389,1694
4.5417,1687
4.5444,1682
4.5472,1683
4.5500,1684
4.5528,1677
4.5556,1668
4.5583,1673
4.5611,1662
4.5639,1661
4.5667,1655
4.5694,1666
4.5722,1661
4.5750,1664
4.5778,1661
4.5806,1659
4.5833,1663
4.5861,1657
4.5889,1659
4.5917,1659
4.5944,1665
4.5972,1665
4.6000,1661
4.6028,1663
4.6056,1662
4.6083,1664
4.6111,1649
4.6139,1618
4.6167,1563
4.6194,1518
4.6222,1492
4.6250,1524
4.6278,1597
4.6306,1719
4.6333,1892
4.6361,2073
4.6389,2258
4.6417,2442
4.6444,2591
4.6472,2748
4.6500,2914
4.6528,3080
4.6556,3116
4.6583,2902
4.6611,2503
4.6639,2039
4.6667,1609
4.6694,1278
4.6722,1075
4.6750,989
4.6778,998
4.6806,1086
4.6833,1221
4.6861,1350
4.6889,1458
4.6917,1521
4.6944,1556
4.6972,1580
4.7000,1596
4.7028,1621
4.7056,1635
4.7083,1641
4.7111,1632
4.7139,1628
4.7167,1616
4.7194,1629
4.7222,1649
4.7250,1671
4.7278,1689
4.7306,1681
4.7333,1675
4.7361,1671
4.7389,1676
4.7417,1677
4.7444,1692
4.7472,1700
4.7500,1698
4.7528,1695
4.7556,1697
4.7583,1695
4.7611,1711
4.7639,1723
4.7667,1737
4.7694,1735
4.7722,1719
4.7750,1720
4.7778,1720
4.7806,1730
4.7833,1747
4.7861,1757
4.7889,1761
4.7917,1762
4.7944,1761
4.7972,1759
4.8000,1767
4.8028,1786
4.8056,1798
4.8083,1803
4.8111,1797
4.8139,1803
4.8167,1807
4.8194,1819
4.8222,1827
4.8250,1847
4.8278,1855
4.8306,1865
4.8333,1860
4.8361,1871
4.8389,1876
4.8417,1892
4.8444,1910
4.8472,1928
4.8500,1928
4.8528,1936
4.8556,1936
4.8583,1947
4.8611,1726
4.8639,1735
4.8667,1726
4.8694,1705
4.8722,1669
4.8750,1653
4.8778,1632
4.8806,1634
4.8833,1632
4.8861,1631
4.8889,1615
4.8917,1602
4.8944,1590
4.8972,1580
4.9000,1582
4.9028,1591
4.9056,1595
4.9083,1597
4.9111,1583
4.9139,1568
4.9167,1574
4.9194,1578
4.9222,1584
4.9250,1598
4.9278,1604
4.9306,1595
4.9333,1590
4.9361,1590
4.9389,1591
4.9417,1603
4.9444,1615
4.9472,1612
4.9500,1613
4.9528,1612
4.9556,1604
4.9583,1611
4.9611,1621
4.9639,1630
4.9667,1634
4.9694,1637
4.9722,1613
4.9750,1625
4.9778,1629
4.9806,1628
4.9833,1627
4.9861,1639
4.9889,1640
4.9917,1630
4.9944,1629
4.9972,1621
5.0000,1637
5.0028,1649
5.0056,1647
5.0083,1646
5.0111,1650
5.0139,1648
5.0167,1646
5.0194,1655
5.0222,1663
5.0250,1664
5.0278,1658
5.0306,1657
5.0333,1651
5.0361,1648
5.0389,1647
5.0417,1650
5.0444,1668
5.0472,1659
5.0500,1655
5.0528,1654
5.0556,1650
5.0583,1650
5.0611,1658
5.0639,1646
5.0667,1659
5.0694,1652
5.0722,1657
5.0750,1644
5.0778,1637
5.0806,1636
5.0833,1640
5.0861,1642
5.0889,1644
5.0917,1638
5.0944,1641
5.0972,1638
5.1000,1636
5.1028,1644
5.1056,1653
5.1083,1644
5.1111,1635
5.1139,1633
5.1167,1634
5.1194,1635
5.1222,1647
5.1250,1650
5.1278,1651
5.1306,1648
5.1333,1635
5.1361,1644
5.1389,1648
5.1417,1648
5.1444,1664
5.1472,1658
5.1500,1653
5.1528,1646
5.1556,1649
5.1583,1650
5.1611,1654
5.1639,1649
5.1667,1656
5.1694,1659
5.1722,1653
5.1750,1651
5.1778,1652
5.1806,1653
5.1833,1655
5.1861,1652
5.1889,1663
5.1917,1667
5.1944,1669
5.1972,1668
5.2000,1673
5.2028,1669
5.2056,1677
5.2083,1670
5.2111,1665
5.2139,1661
5.2167,1657
5.2194,1663
5.2222,1658
5.2250,1662
5.2278,1675
5.2306,1681
5.2333,1674
5.2361,1673
5.2389,1674
5.2417,1673
5.2444,1680
5.2472,1676
5.2500,1671
5.2528,1678
5.2556,1672
5.2583,1671
5.2611,1673
5.2639,1674
5.2667,1686
5.2694,1687
5.2722,1678
5.2750,1680
5.2778,1671
5.2806,1676
5.2833,1673
5.2861,1683
5.2889,1681
5.2917,1672
5.2944,1675
5.2972,1683
5.3000,1680
5.3028,1687
5.3056,1689
5.3083,1689
5.3111,1686
5.3139,1682
5.3167,1677
5.3194,1688
5.3222,1688
5.3250,1682
5.3278,1683
5.3306,1681
5.3333,1687
5.3361,1687
5.3389,1688
5.3417,1693
5.3444,1709
5.3472,1735
5.3500,1764
5.3528,1780
5.3556,1806
5.3583,1811
5.3611,1816
5.3639,1803
5.3667,1811
5.3694,1834
5.3722,1869
5.3750,1899
5.3778,1940
5.3806,1955
5.3833,1979
5.3861,2000
5.3889,1989
5.3917,1982
5.3944,1961
5.3972,1933
5.4000,1908
5.4028,1872
5.4056,1820
5.4083,1763
5.4111,1702
5.4139,1671
5.4167,1647
5.4194,1637
5.4222,1635
5.4250,1639
5.4278,1629
5.4306,1624
5.4333,1622
5.4361,1616
5.4389,1622
5.4417,1621
5.4444,1625
5.4472,1621
5.4500,1619
5.4528,1610
5.4556,1619
5.4583,1616
5.4611,1615
5.4639,1624
5.4667,1612
5.4694,1618
5.4722,1618
5.4750,1614
5.4778,1605
5.4806,1617
5.4833,1614
5.4861,1609
5.4889,1594
5.4917,1556
5.4944,1496
5.4972,1457
5.5000,1454
5.5028,1495
5.5056,1586
5.5083,1731
5.5111,1913
5.5139,2095
5.5167,2284
5.5194,2449
5.5222,2613
5.5250,2776
5.5278,2948
5.5306,3087
5.5333,3020
5.5361,2706
5.5389,2261
5.5417,1812
5.5444,1426
5.5472,1141
5.5500,986
5.5528,945
5.5556,1004
5.5583,1116
5.5611,1254
5.5639,1376
5.5667,1459
5.5694,1515
5.5722,1544
5.5750,1563
5.5778,1587
5.5806,1610
5.5833,1615
5.5861,1610
5.5889,1609
5.5917,1600
5.5944,1609
5.5972,1616
5.6000,1629
5.6028,1645
5.6056,1646
5.6083,1641
5.6111,1644
5.6139,1645
5.6167,1655
5.6194,1663
5.6222,1679
5.6250,1683
5.6278,1682
5.6306,1663
5.6333,1671
5.6361,1675
5.6389,1681
5.6417,1706
5.6444,1707
5.6472,1707
5.6500,1700
5.6528,1699
5.6556,1695
5.6583,1713
5.6611,1734
5.6639,1744
5.6667,1745
5.6694,1739
5.6722,1737
5.6750,1737
5.6778,1755
5.6806,1768
5.6833,1785
5.6861,1787
5.6889,1792
5.6917,1786
5.6944,1799
5.6972,1801
5.7000,1816
5.7028,1835
5.7056,1840
5.7083,1839
5.7111,1842
5.7139,1850
5.7167,1862
5.7194,1885
5.7222,1907
5.7250,1918
5.7278,1923
5.7306,1918
5.7333,1926
5.7361,1726
5.7389,1738
5.7417,1722
5.7444,1701
5.7472,1670
5.7500,1649
5.7528,1626
5.7556,1622
5.7583,1616
5.7611,1607
5.7639,1610
5.7667,1602
5.7694,1578
5.7722,1571
5.7750,1565
5.7778,1566
5.7806,1579
5.7833,1570
5.7861,1565
5.7889,1553
5.7917,1551
5.7944,1555
5.7972,1566
5.8000,1571
5.8028,1580
5.8056,1580
5.8083,1569
5.8111,1577
5.8139,1572
5.8167,1579
5.8194,1586
5.8222,1594
5.8250,1595
5.8278,1591
5.8306,1587
5.8333,1592
5.8361,1594
5.8389,1606
5.8417,1602
5.8444,1597
5.8472,1595
5.8500,1591
5.8528,1589
5.8556,1597
5.8583,1599
5.8611,1616
5.8639,1614
5.8667,1619
5.8694,1621
5.8722,1613
5.8750,1622
5.8778,1616
5.8806,1619
5.8833,1625
5.8861,1619
5.8889,1612
5.8917,1618
5.8944,1616
5.8972,1624
5.9000,1627
5.9028,1633
5.9056,1628
5.9083,1618
5.9111,1623
5.9139,1621
5.9167,1616
5.9194,1622
5.9222,1630
5.9250,1621
5.9278,1614
5.9306,1611
5.9333,1607
5.9361,1606
5.9389,1615
5.9417,1624
5.9444,1615
5.9472,1613
5.9500,1604
5.9528,1596
5.9556,1604
5.9583,1608
5.9611,1602
5.9639,1611
5.9667,1610
5.9694,1604
5.9722,1604
5.9750,1609
5.9778,1608
5.9806,1617
5.9833,1622
5.9861,1617
5.9889,1613
5.9917,1611
5.9944,1615
5.9972,1619
6.0000,1615
6.0028,1614
6.0056,1613
6.0083,1611
6.0111,1609
6.0139,1602
6.0167,1609
6.0194,1615
6.0222,1612
6.0250,1620
6.0278,1603
6.0306,1601
6.0333,1603
6.0361,1610
6.0389,1609
6.0417,1609
6.0444,1607
6.0472,1603
6.0500,1605
6.0528,1603
6.0556,1602
6.0583,1608
6.0611,1617
6.0639,1620
6.0667,1621
6.0694,1613
6.0722,1616
6.0750,1610
6.0778,1614
6.0806,1625
6.0833,1616
6.0861,1626
6.0889,1618
6.0917,1620
6.0944,1619
6.0972,1624
6.1000,1620
6.1028,1622
6.1056,1614
6.1083,1615
6.1111,1613
6.1139,1616
6.1167,1617
6.1194,1621
6.1222,1628
6.1250,1630
6.1278,1632
6.1306,1632
6.1333,1628
6.1361,1625
6.1389,1623
6.1417,1628
6.1444,1624
6.1472,1632
6.1500,1631
6.1528,1633
6.1556,1638
6.1583,1632
6.1611,1638
6.1639,1636
6.1667,1640
6.1694,1634
6.1722,1639
6.1750,1631
6.1778,1638
6.1806,1640
6.1833,1643
6.1861,1641
6.1889,1642
6.1917,1641
6.1944,1637
6.1972,1646
6.2000,1656
6.2028,1664
6.2056,1686
6.2083,1705
6.2111,1728
6.2139,1748
6.2167,1766
6.2194,1762
6.2222,1761
6.2250,1782
6.2278,1809
6.2306,1849
6.2333,1877
6.2361,1900
6.2389,1934
6.2417,1957
6.2444,1969
6.2472,1973
6.2500,1968
6.2528,1944
6.2556,1915
6.2583,1889
6.2611,1846
6.2639,1793
6.2667,1729
6.2694,1665
6.2722,1631
6.2750,1605
6.2778,1593
6.2806,1602
6.2833,1601
6.2861,1597
6.2889,1590
6.2917,1584
6.2944,1586
6.2972,1582
6.3000,1584
6.3028,1579
6.3056,1576
6.3083,1578
6.3111,1571
6.3139,1574
6.3167,1579
6.3194,1575
6.3222,1579
6.3250,1580
6.3278,1584
6.3306,1583
6.3333,1586
6.3361,1591
6.3389,1583
6.3417,1583
6.3444,1582
6.3472,1563
6.3500,1519
6.3528,1472
6.3556,1439
6.3583,1439
6.3611,1496
6.3639,1596
6.3667,1738
6.3694,1917
6.3722,2094
6.3750,2272
6.3778,2423
6.3806,2566
6.3833,2721
6.3861,2892
6.3889,3009
6.3917,2924
6.3944,2614
6.3972,2193
6.4000,1794
6.4028,1438
6.4056,1178
6.4083,1019
6.4111,962
6.4139,1010
6.4167,1094
6.4194,1210
6.4222,1325
6.4250,1416
6.4278,1476
6.4306,1511
6.4333,1528
6.4361,1558
6.4389,1576
6.4417,1590
6.4444,1600
6.4472,1585
6.4500,1577
6.4528,1590
6.4556,1602
6.4583,1608
6.4611,1619
6.4639,1624
6.4667,1626
6.4694,1621
6.4722,1621
6.4750,1642
6.4778,1659
6.4806,1671
6.4833,1681
6.4861,1669
6.4889,1665
6.4917,1668
6.4944,1672
6.4972,1690
6.5000,1697
6.5028,1703
6.5056,1697
6.5083,1701
6.5111,1704
6.5139,1709
6.5167,1722
6.5194,1741
6.5222,1748
6.5250,1746
6.5278,1738
6.5306,1745
6.5333,1747
6.5361,1769
6.5389,1784
6.5417,1795
6.5444,1798
6.5472,1798
6.5500,1796
6.5528,1805
6.5556,1819
6.5583,1831
6.5611,1843
6.5639,1850
6.5667,1857
6.5694,1855
6.5722,1866
6.5750,1881
6.5778,1909
6.5806,1913
6.5833,1934
6.5861,1936
6.5889,1933
6.5917,1938
6.5944,1735
6.5972,1742
6.6000,1733
6.6028,1708
6.6056,1686
6.6083,1663
6.6111,1647
6.6139,1637
6.6167,1629
6.6194,1631
6.6222,1622
6.6250,1613
6.6278,1593
6.6306,1592
6.6333,1587
6.6361,1590
6.6389,1592
6.6417,1597
6.6444,1591
6.6472,1579
6.6500,1580
6.6528,1585
6.6556,1597
6.6583,1611
6.6611,1611
6.6639,1619
6.6667,1607
6.6694,1599
6.6722,1607
6.6750,1608
6.6778,1619
6.6806,1632
6.6833,1625
6.6861,1625
6.6889,1615
6.6917,1621
6.6944,1624
6.6972,1634
6.7000,1634
6.7028,1629
6.7056,1631
6.7083,1616
6.7111,1623
6.7139,1631
6.7167,1630
6.7194,1646
6.7222,1640
6.7250,1635
6.7278,1634
6.7306,1626
6.7333,1630
6.7361,1646
6.7389,1644
6.7417,1650
6.7444,1645
6.7472,1645
6.7500,1641
6.7528,1653
6.7556,1660
6.7583,1669
6.7611,1656
6.7639,1661
6.7667,1653
6.7694,1650
6.7722,1651
6.7750,1663
6.7778,1657
6.7806,1650
6.7833,1643
6.7861,1644
6.7889,1634
6.7917,1637
6.7944,1639
6.7972,1643
6.8000,1646
6.8028,1642
6.8056,1634
6.8083,1643
6.8111,1633
6.8139,1632
6.8167,1647
6.8194,1650
6.8222,1640
6.8250,1631
6.8278,1628
6.8306,1626
6.8333,1635
6.8361,1640
6.8389,1644
6.8417,1648
6.8444,1639
6.8472,1640
6.8500,1644
6.8528,1641
6.8556,1644
6.8583,1658
6.8611,1651
6.8639,1651
6.8667,1644
6.8694,1642
6.8722,1640
6.8750,1646
6.8778,1654
6.8806,1654
6.8833,1658
6.8861,1647
6.8889,1655
6.8917,1642
6.8944,1651
6.8972,1666
6.9000,1661
6.9028,1655
6.9056,1656
6.9083,1657
6.9111,1657
6.9139,1654
6.9167,1657
6.9194,1653
6.9222,1654
6.9250,1651
6.9278,1643
6.9306,1644
6.9333,1653
6.9361,1663
6.9389,1662
6.9417,1668
6.9444,1661
6.9472,1655
6.9500,1656
6.9528,1654
6.9556,1657
6.9583,1656
6.9611,1664
6.9639,1659
6.9667,1667
6.9694,1657
6.9722,1654
6.9750,1663
6.9778,1658
6.9806,1669
6.9833,1662
6.9861,1661
6.9889,1665
6.9917,1659
6.9944,1654
6.9972,1665
7.0000,1660
7.0028,1662
7.0056,1658
7.0083,1657
7.0111,1658
7.0139,1663
7.0167,1663
7.0194,1668
7.0222,1674
7.0250,1664
7.0278,1670
7.0306,1663
7.0333,1669
7.0361,1675
7.0389,1686
7.0417,1679
7.0444,1706
7.0472,1727
7.0500,1751
7.0528,1773
7.0556,1800
7.0583,1802
7.0611,1805
7.0639,1809
7.0667,1828
7.0694,1864
7.0722,1893
7.0750,1924
7.0778,1957
7.0806,1980
7.0833,2002
7.0861,2014
7.0889,2016
7.0917,1998
7.0944,1973
7.0972,1953
7.1000,1920
7.1028,1880
7.1056,1826
7.1083,1769
7.1111,1720
7.1139,1676
7.1167,1656
7.1194,1636
7.1222,1633
7.1250,1636
7.1278,1639
7.1306,1633
7.1333,1627
7.1361,1626
7.1389,1623
7.1417,1620
7.1444,1616
7.1472,1623
7.1500,1612
7.1528,1618
7.1556,1610
7.1583,1620
7.1611,1619
7.1639,1625
7.1667,1622
7.1694,1625
7.1722,1623
7.1750,1626
7.1778,1637
7.1806,1632
7.1833,1630
7.1861,1626
7.1889,1600
7.1917,1547
7.1944,1501
7.1972,1461
7.2000,1476
7.2028,1529
7.2056,1631
7.2083,1789
7.2111,1985
7.2139,2175
7.2167,2357
7.2194,2517
7.2222,2678
7.2250,2842
7.2278,3016
7.2306,3120
7.2333,2997
7.2361,2638
7.2389,2181
7.2417,1726
7.2444,1343
7.2472,1090
7.2500,960
7.2528,945
7.2556,1015
7.2583,1143
7.2611,1288
7.2639,1405
7.2667,1492
7.2694,1542
7.2722,1569
7.2750,1587
7.2778,1606
7.2806,1630
7.2833,1632
7.2861,1636
7.2889,1619
7.2917,1619
7.2944,1616
7.2972,1644
7.3000,1650
7.3028,1662
7.3056,1668
7.3083,1655
7.3111,1657
7.3139,1662
7.3167,1668
7.3194,1691
7.3222,1699
7.3250,1698
7.3278,1691
7.3306,1685
7.3333,1686
7.3361,1695
7.3389,1706
7.3417,1712
7.3444,1713
7.3472,1717
7.3500,1709
7.3528,1713
7.3556,1727
7.3583,1749
7.3611,1760
7.3639,1763
7.3667,1770
7.3694,1759
7.3722,1770
7.3750,1768
7.3778,1772
7.3806,1793
7.3833,1798
7.3861,1813
7.3889,1815
7.3917,1817
7.3944,1834
7.3972,1844
7.4000,1854
7.4028,1860
7.4056,1863
7.4083,1859
7.4111,1861
7.4139,1872
7.4167,1896
7.4194,1906
7.4222,1937
7.4250,1943
7.4278,1947
7.4306,1943
7.4333,1959
7.4361,1742
7.4389,1748
7.4417,1733
7.4444,1715
7.4472,1685
7.4500,1654
7.4528,1630
7.4556,1623
7.4583,1620
7.4611,1616
7.4639,1601
7.4667,1589
7.4694,1574
7.4722,1566
7.4750,1564
7.4778,1582
7.4806,1583
7.4833,1580
7.4861,1575
7.4889,1564
7.4917,1566
7.4944,1576
7.4972,1586
7.5000,1592
7.5028,1592
7.5056,1590
7.5083,1595
7.5111,1577
7.5139,1585
7.5167,1595
7.5194,1602
7.5222,1605
7.5250,1598
7.5278,1595
7.5306,1601
7.5333,1596
7.5361,1613
7.5389,1613
7.5417,1632
7.5444,1625
7.5472,1614
7.5500,1612
7.5528,1610
7.5556,1618
7.5583,1630
7.5611,1626
7.5639,1628
7.5667,1632
7.5694,1623
7.5722,1627
7.5750,1629
7.5778,1641
7.5806,1644
7.5833,1647
7.5861,1641
7.5889,1631
7.5917,1636
7.5944,1635
7.5972,1646
7.6000,1661
7.6028,1664
7.6056,1662
7.6083,1644
7.6111,1645
7.6139,1641
7.6167,1648
7.6194,1657
7.6222,1656
7.6250,1650
7.6278,1652
7.6306,1643
7.6333,1646
7.6361,1644
7.6389,1645
7.6417,1655
7.6444,1651
7.6472,1644
7.6500,1641
7.6528,1636
7.6556,1645
7.6583,1651
7.6611,1647
7.6639,1649
7.6667,1646
7.6694,1640
7.6722,1643
7.6750,1641
7.6778,1644
7.6806,1655
7.6833,1653
7.6861,1636
7.6889,1633
7.6917,1639
7.6944,1636
7.6972,1646
7.7000,1645
7.7028,1650
7.7056,1641
7.7083,1638
7.7111,1637
7.7139,1648
7.7167,1655
7.7194,1661
7.7222,1648
7.7250,1647
7.7278,1648
7.7306,1643
7.7333,1639
7.7361,1640
7.7389,1645
7.7417,1651
7.7444,1648
7.7472,1644
7.7500,1639
7.7528,1643
7.7556,1648
7.7583,1641
7.7611,1643
7.7639,1654
7.7667,1653
7.7694,1657
7.7722,1652
7.7750,1653
7.7778,1642
7.7806,1657
7.7833,1646
7.7861,1651
7.7889,1647
7.7917,1650
7.7944,1660
7.7972,1666
7.8000,1682
7.8028,1675
7.8056,1678
7.8083,1667
7.8111,1667
7.8139,1658
7.8167,1657
7.8194,1662
7.8222,1659
7.8250,1656
7.8278,1656
7.8306,1653
7.8333,1654
7.8361,1661
7.8389,1667
7.8417,1672
7.8444,1664
7.8472,1665
7.8500,1660
7.8528,1662
7.8556,1671
7.8583,1675
7.8611,1690
7.8639,1698
7.8667,1720
7.8694,1742
7.8722,1769
7.8750,1781
7.8778,1786
7.8806,1797
7.8833,1794
7.8861,1802
7.8889,1833
7.8917,1872
7.8944,1912
7.8972,1943
7.9000,1981
7.9028,2004
7.9056,2010
7.9083,2010
7.9111,2000
7.9139,1980
7.9167,1955
7.9194,1938
7.9222,1899
7.9250,1859
7.9278,1799
7.9306,1745
7.9333,1690
7.9361,1652
7.9389,1630
7.9417,1630
7.9444,1641
7.9472,1637
7.9500,1632
7.9528,1628
7.9556,1630
7.9583,1623
7.9611,1623
7.9639,1624
7.9667,1624
7.9694,1622
7.9722,1627
7.9750,1628
7.9778,1622
7.9806,1612
7.9833,1613
7.9861,1612
7.9889,1604
7.9917,1608
7.9944,1616
7.9972,1616
8.0000,1624
8.0028,1617
8.0056,1617
8.0083,1606
8.0111,1583
8.0139,1521
8.0167,1477
8.0194,1461
8.0222,1489
8.0250,1562
8.0278,1687
8.0306,1860
8.0333,2053
8.0361,2239
8.0389,2398
8.0417,2539
8.0444,2694
8.0472,2856
8.0500,3010
8.0528,3055
8.0556,2836
8.0583,2473
8.0611,2034
8.0639,1631
8.0667,1309
8.0694,1095
8.0722,990
8.0750,992
8.0778,1074
8.0806,1202
8.0833,1331
8.0861,1434
8.0889,1509
8.0917,1538
8.0944,1567
8.0972,1582
8.1000,1604
8.1028,1617
8.1056,1628
8.1083,1623
8.1111,1613
8.1139,1623
8.1167,1639
8.1194,1651
8.1222,1662
8.1250,1662
8.1278,1659
8.1306,1655
8.1333,1657
8.1361,1664
8.1389,1673
8.1417,1686
8.1444,1694
8.1472,1693
8.1500,1683
8.1528,1680
8.1556,1691
8.1583,1701
8.1611,1709
8.1639,1718
8.1667,1718
8.1694,1705
8.1722,1706
8.1750,1708
8.1778,1719
8.1806,1741
8.1833,1753
8.1861,1755
8.1889,1751
8.1917,1751
8.1944,1761
8.1972,1764
8.2000,1762
8.2028,1776
8.2056,1791
8.2083,1793
8.2111,1798
8.2139,1795
8.2167,1809
8.2194,1817
8.2222,1825
8.2250,1833
8.2278,1836
8.2306,1830
8.2333,1846
8.2361,1851
8.2389,1868
8.2417,1888
8.2444,1911
8.2472,1921
8.2500,1924
8.2528,1925
8.2556,1934
8.2583,1750
8.2611,1770
8.2639,1739
8.2667,1716
8.2694,1683
8.2722,1675
8.2750,1668
8.2778,1653
8.2806,1662
8.2833,1659
8.2861,1647
8.2889,1628
8.2917,1614
8.2944,1614
8.2972,1618
8.3000,1621
8.3028,1621
8.3056,1622
8.3083,1616
8.3111,1610
8.3139,1610
8.3167,1611
8.3194,1620
8.3222,1626
8.3250,1628
8.3278,1610
8.3306,1603
8.3333,1599
8.3361,1595
8.3389,1615
8.3417,1629
8.3444,1629
8.3472,1635
8.3500,1629
8.3528,1621
8.3556,1624
8.3583,1630
8.3611,1641
8.3639,1649
8.3667,1648
8.3694,1641
8.3722,1636
8.3750,1639
8.3778,1645
8.3806,1651
8.3833,1659
8.3861,1660
8.3889,1674
8.3917,1663
8.3944,1664
8.3972,1670
8.4000,1674
8.4028,1678
8.4056,1670
8.4083,1663
8.4111,1661
8.4139,1665
8.4167,1672
8.4194,1685
8.4222,1686
8.4250,1693
8.4278,1686
8.4306,1675
8.4333,1668
8.4361,1665
8.4389,1679
8.4417,1688
8.4444,1684
8.4472,1682
8.4500,1683
8.4528,1683
8.4556,1675
8.4583,1669
8.4611,1676
8.4639,1677
8.4667,1675
8.4694,1677
8.4722,1672
8.4750,1683
8.4778,1686
8.4806,1691
8.4833,1681
8.4861,1679
8.4889,1670
8.4917,1672
8.4944,1676
8.4972,1680
8.5000,1690
8.5028,1682
8.5056,1669
8.5083,1664
8.5111,1668
8.5139,1661
8.5167,1673
8.5194,1676
8.5222,1669
8.5250,1669
8.5278,1665
8.5306,1664
8.5333,1665
8.5361,1668
8.5389,1673
8.5417,1683
8.5444,1682
8.5472,1680
8.5500,1672
8.5528,1670
8.5556,1670
8.5583,1676
8.5611,1674
8.5639,1670
8.5667,1677
8.5694,1680
8.5722,1677
8.5750,1680
8.5778,1685
8.5806,1688
8.5833,1692
8.5861,1701
8.5889,1699
8.5917,1695
8.5944,1690
8.5972,1689
8.6000,1694
8.6028,1700
8.6056,1707
8.6083,1711
8.6111,1708
8.6139,1699
8.6167,1696
8.6194,1705
8.6222,1697
8.6250,1701
8.6278,1698
8.6306,1701
8.6333,1701
8.6361,1708
8.6389,1710
8.6417,1723
8.6444,1723
8.6472,1727
8.6500,1724
8.6528,1723
8.6556,1708
8.6583,1710
8.6611,1703
8.6639,1712
8.6667,1715
8.6694,1718
8.6722,1715
8.6750,1719
8.6778,1717
8.6806,1720
8.6833,1716
8.6861,1703
8.6889,1697
8.6917,1710
8.6944,1721
8.6972,1748
8.7000,1769
8.7028,1794
8.7056,1808
8.7083,1824
8.7111,1832
8.7139,1835
8.7167,1840
8.7194,1861
8.7222,1890
8.7250,1932
8.7278,1963
8.7306,1979
8.7333,2010
8.7361,2026
8.7389,2053
8.7417,2060
8.7444,2047
8.7472,2015
8.7500,1997
8.7528,1970
8.7556,1935
8.7583,1891
8.7611,1844
8.7639,1785
8.7667,1735
8.7694,1694
8.7722,1677
8.7750,1676
8.7778,1672
8.7806,1673
8.7833,1677
8.7861,1670
8.7889,1664
8.7917,1669
8.7944,1670
8.7972,1675
8.8000,1665
8.8028,1659
8.8056,1648
8.8083,1656
8.8111,1650
8.8139,1652
8.8167,1648
8.8194,1654
8.8222,1658
8.8250,1662
8.8278,1666
8.8306,1664
8.8333,1660
8.8361,1663
8.8389,1660
8.8417,1654
8.8444,1635
8.8472,1601
8.8500,1561
8.8528,1545
8.8556,1573
8.8583,1620
8.8611,1722
8.8639,1873
8.8667,2047
8.8694,2233
8.8722,2388
8.8750,2507
8.8778,2636
8.8806,2764
8.8833,2911
8.8861,2989
8.8889,2883
8.8917,2601
8.8944,2253
8.8972,1919
8.9000,1635
8.9028,1400
8.9056,1208
8.9083,1103
8.9111,1086
8.9139,1140
8.9167,1236
8.9194,1333
8.9222,1417
8.9250,1491
8.9278,1544
8.9306,1583
8.9333,1611
8.9361,1638
8.9389,1654
8.9417,1659
8.9444,1668
8.9472,1671
8.9500,1677
8.9528,1675
8.9556,1683
8.9583,1690
8.9611,1690
8.9639,1698
8.9667,1696
8.9694,1702
8.9722,1708
8.9750,1724
8.9778,1733
8.9806,1742
8.9833,1726
8.9861,1723
8.9889,1728
8.9917,1737
8.9944,1750
8.9972,1746
9.0000,1760
9.0028,1769
9.0056,1754
9.0083,1762
9.0111,1777
9.0139,1784
9.0167,1792
9.0194,1796
9.0222,1789
9.0250,1785
9.0278,1789
9.0306,1788
9.0333,1804
9.0361,1819
9.0389,1816
9.0417,1819
9.0444,1818
9.0472,1817
9.0500,1834
9.0528,1849
9.0556,1856
9.0583,1864
9.0611,1867
9.0639,1861
9.0667,1875
9.0694,1873
9.0722,1885
9.0750,1901
9.0778,1902
9.0806,1922
9.0833,1919
9.0861,1930
9.0889,1934
9.0917,1775
9.0944,1775
9.0972,1762
9.1000,1746
9.1028,1735
9.1056,1704
9.1083,1692
9.1111,1673
9.1139,1655
9.1167,1656
9.1194,1654
9.1222,1644
9.1250,1630
9.1278,1617
9.1306,1610
9.1333,1619
9.1361,1638
9.1389,1630
9.1417,1609
9.1444,1588
9.1472,1585
9.1500,1584
9.1528,1601
9.1556,1616
9.1583,1616
9.1611,1620
9.1639,1610
9.1667,1604
9.1694,1597
9.1722,1592
9.1750,1604
9.1778,1607
9.1806,1607
9.1833,1599
9.1861,1591
9.1889,1595
9.1917,1598
9.1944,1604
9.1972,1603
9.2000,1607
9.2028,1606
9.2056,1597
9.2083,1596
9.2111,1598
9.2139,1608
9.2167,1603
9.2194,1607
9.2222,1612
9.2250,1599
9.2278,1597
9.2306,1598
9.2333,1603
9.2361,1610
9.2389,1611
9.2417,1597
9.2444,1592
9.2472,1588
9.2500,1592
9.2528,1608
9.2556,1612
9.2583,1613
9.2611,1602
9.2639,1597
9.2667,1590
9.2694,1597
9.2722,1590
9.2750,1590
9.2778,1589
9.2806,1571
9.2833,1582
9.2861,1567
9.2889,1569
9.2917,1579
9.2944,1579
9.2972,1574
9.3000,1572
9.3028,1558
9.3056,1554
9.3083,1544
9.3111,1551
9.3139,1556
9.3167,1556
9.3194,1557
9.3222,1557
9.3250,1544
9.3278,1541
9.3306,1532
9.3333,1536
9.3361,1533
9.3389,1527
9.3417,1527
9.3444,1519
9.3472,1513
9.3500,1516
9.3528,1514
9.3556,1515
9.3583,1522
9.3611,1516
9.3639,1514
9.3667,1512
9.3694,1503
9.3722,1513
9.3750,1502
9.3778,1503
9.3806,1503
9.3833,1492
9.3861,1488
9.3889,1486
9.3917,1487
9.3944,1485
9.3972,1481
9.4000,1479
9.4028,1474
9.4056,1468
9.4083,1474
9.4111,1472
9.4139,1472
9.4167,1470
9.4194,1466
9.4222,1466
9.4250,1464
9.4278,1451
9.4306,1440
9.4333,1436
9.4361,1440
9.4389,1437
9.4417,1436
9.4444,1437
9.4472,1442
9.4500,1440
9.4528,1432
9.4556,1433
9.4583,1417
9.4611,1412
9.4639,1405
9.4667,1418
9.4694,1422
9.4722,1415
9.4750,1402
9.4778,1397
9.4806,1387
9.4833,1391
9.4861,1384
9.4889,1390
9.4917,1384
9.4944,1390
9.4972,1384
9.5000,1375
9.5028,1377
9.5056,1368
9.5083,1379
9.5111,1371
9.5139,1374
9.5167,1373
9.5194,1369
9.5222,1359
9.5250,1357
9.5278,1354
9.5306,1351
9.5333,1342
9.5361,1347
9.5389,1344
9.5417,1351
9.5444,1359
9.5472,1374
9.5500,1388
9.5528,1407
9.5556,1419
9.5583,1433
9.5611,1431
9.5639,1432
9.5667,1434
9.5694,1469
9.5722,1498
9.5750,1528
9.5778,1543
9.5806,1573
9.5833,1596
9.5861,1603
9.5889,1619
9.5917,1607
9.5944,1592
9.5972,1569
9.6000,1539
9.6028,1493
9.6056,1441
9.6083,1383
9.6111,1330
9.6139,1277
9.6167,1245
9.6194,1213
9.6222,1209
9.6250,1202
9.6278,1207
9.6306,1203
9.6333,1203
9.6361,1199
9.6389,1189
9.6417,1177
9.6444,1168
9.6472,1165
9.6500,1162
9.6528,1163
9.6556,1158
9.6583,1158
9.6611,1155
9.6639,1158
9.6667,1149
9.6694,1143
9.6722,1153
9.6750,1159
9.6778,1152
9.6806,1160
9.6833,1160
9.6861,1147
9.6889,1143
9.6917,1117
9.6944,1067
9.6972,1025
9.7000,995
9.7028,1016
9.7056,1073
9.7083,1177
9.7111,1338
9.7139,1516
9.7167,1694
9.7194,1850
9.7222,1975
9.7250,2095
9.7278,2235
9.7306,2389
9.7333,2512
9.7361,2433
9.7389,2147
9.7417,1768
9.7444,1395
9.7472,1059
9.7500,789
9.7528,593
9.7556,492
9.7583,501
9.7611,569
9.7639,685
9.7667,799
9.7694,888
9.7722,958
9.7750,1004
9.7778,1037
9.7806,1051
9.7833,1067
9.7861,1093
9.7889,1097
9.7917,1095
9.7944,1098
9.7972,1101
9.8000,1106
9.8028,1113
9.8056,1121
9.8083,1120
9.8111,1117
9.8139,1116
9.8167,1115
9.8194,1130
9.8222,1145
9.8250,1163
9.8278,1167
9.8306,1157
9.8333,1170
9.8361,1166
9.8389,1177
9.8417,1198
9.8444,1203
9.8472,1206
9.8500,1202
9.8528,1199
9.8556,1197
9.8583,1205
9.8611,1226
9.8639,1241
9.8667,1258
9.8694,1257
9.8722,1257
9.8750,1265
9.8778,1271
9.8806,1278
9.8833,1290
9.8861,1304
9.8889,1301
9.8917,1315
9.8944,1315
9.8972,1329
9.9000,1338
9.9028,1350
9.9056,1368
9.9083,1366
9.9111,1381
9.9139,1382
9.9167,1390
9.9194,1407
9.9222,1427
9.9250,1448
9.9278,1459
9.9306,1465
9.9333,1472
9.9361,1477
9.9389,1408
9.9417,1409
9.9444,1395
9.9472,1377
9.9500,1352
9.9528,1330
9.9556,1313
9.9583,1305
9.9611,1315
9.9639,1320
9.9667,1316
9.9694,1297
9.9722,1298
9.9750,1290
9.9778,1287
9.9806,1289
9.9833,1294
9.9861,1300
9.9889,1303
9.9917,1302
9.9944,1297
9.9972,1301
10.0000,1308
10.0028,1321
10.0056,1325
10.0083,1336
10.0111,1339
10.0139,1341
10.0167,1342
10.0194,1351
10.0222,1348
10.0250,1365
10.0278,1371
10.0306,1373
10.0333,1384
10.0361,1386
10.0389,1393
10.0417,1401
10.0444,1414
10.0472,1409
10.0500,1413
10.0528,1424
10.0556,1422
10.0583,1437
10.0611,1450
10.0639,1468
10.0667,1465
10.0694,1466
10.0722,1474
10.0750,1476
10.0778,1485
10.0806,1489
10.0833,1508
10.0861,1513
10.0889,1514
10.0917,1517
10.0944,1523
10.0972,1519
10.1000,1529
10.1028,1543
10.1056,1557
10.1083,1557
10.1111,1559
10.1139,1558
10.1167,1571
10.1194,1573
10.1222,1576
10.1250,1593
10.1278,1592
10.1306,1582
10.1333,1587
10.1361,1592
10.1389,1599
10.1417,1609
10.1444,1616
10.1472,1615
10.1500,1619
10.1528,1612
10.1556,1623
10.1583,1624
10.1611,1632
10.1639,1644
10.1667,1644
10.1694,1642
10.1722,1644
10.1750,1651
10.1778,1654
10.1806,1659
10.1833,1668
10.1861,1670
10.1889,1669
10.1917,1680
10.1944,1675
10.1972,1681
10.2000,1684
10.2028,1690
10.2056,1707
10.2083,1704
10.2111,1709
10.2139,1716
10.2167,1709
10.2194,1715
10.2222,1732
10.2250,1739
10.2278,1733
10.2306,1733
10.2333,1738
10.2361,1757
10.2389,1756
10.2417,1767
10.2444,1762
10.2472,1770
10.2500,1766
10.2528,1773
10.2556,1775
10.2583,1778
10.2611,1784
10.2639,1803
10.2667,1801
10.2694,1797
10.2722,1804
10.2750,1801
10.2778,1810
10.2806,1817
10.2833,1823
10.2861,1825
10.2889,1825
10.2917,1827
10.2944,1823
10.2972,1834
10.3000,1839
10.3028,1844
10.3056,1851
10.3083,1846
10.3111,1853
10.3139,1855
10.3167,1864
10.3194,1872
10.3222,1873
10.3250,1882
10.3278,1878
10.3306,1875
10.3333,1880
10.3361,1886
10.3389,1890
10.3417,1901
10.3444,1911
10.3472,1912
10.3500,1902
10.3528,1909
10.3556,1907
10.3583,1919
10.3611,1919
10.3639,1922
10.3667,1927
10.3694,1932
10.3722,1934
10.3750,1934
10.3778,1947
10.3806,1942
10.3833,1947
10.3861,1944
10.3889,1955
10.3917,1975
10.3944,2011
10.3972,2034
10.4000,2060
10.4028,2075
10.4056,2092
10.4083,2092
10.4111,2103
10.4139,2126
10.4167,2151
10.4194,2203
10.4222,2235
10.4250,2263
10.4278,2279
10.4306,2299
10.4333,2296
10.4361,2295
10.4389,2286
10.4417,2265
10.4444,2252
10.4472,2236
10.4500,2206
10.4528,2163
10.4556,2104
10.4583,2045
10.4611,1996
10.4639,1967
10.4667,1950
10.4694,1956
10.4722,1951
10.4750,1956
10.4778,1958
10.4806,1956
10.4833,1945
10.4861,1945
10.4889,1938
10.4917,1937
10.4944,1943
10.4972,1942
10.5000,1943
10.5028,1944
10.5056,1941
10.5083,1946
10.5111,1949
10.5139,1951
10.5167,1954
10.5194,1960
10.5222,1968
10.5250,1967
10.5278,1969
10.5306,1962
10.5333,1959
10.5361,1950
10.5389,1927
10.5417,1873
10.5444,1831
10.5472,1813
10.5500,1845
10.5528,1917
10.5556,2043
10.5583,2218
10.5611,2416
10.5639,2599
10.5667,2753
10.5694,2904
10.5722,3055
10.5750,3209
10.5778,3348
10.5806,3345
10.5833,3270
10.5861,2943
10.5889,2464
10.5917,1985
10.5944,1597
10.5972,1357
10.6000,1272
10.6028,1287
10.6056,1375
10.6083,1514
10.6111,1654
10.6139,1769
10.6167,1843
10.6194,1886
10.6222,1917
10.6250,1943
10.6278,1957
10.6306,1977
10.6333,1974
10.6361,1977
10.6389,1971
10.6417,1965
10.6444,1968
10.6472,1974
10.6500,2003
10.6528,2014
10.6556,2016
10.6583,2009
10.6611,2007
10.6639,2019
10.6667,2016
10.6694,2033
10.6722,2050
10.6750,2052
10.6778,2049
10.6806,2040
10.6833,2036
10.6861,2052
10.6889,2065
10.6917,2070
10.6944,2074
10.6972,2082
10.7000,2075
10.7028,2065
10.7056,2081
10.7083,2086
10.7111,2097
10.7139,2108
10.7167,2109
10.7194,2110
10.7222,2105
10.7250,2113
10.7278,2125
10.7306,2143
10.7333,2157
10.7361,2147
10.7389,2154
10.7417,2154
10.7444,2158
10.7472,2171
10.7500,2187
10.7528,2200
10.7556,2205
10.7583,2208
10.7611,2211
10.7639,2228
10.7667,2252
10.7694,2264
10.7722,2285
10.7750,2276
10.7778,2293
10.7806,2291
10.7833,2299
10.7861,2055
10.7889,2062
10.7917,2047
10.7944,2012
10.7972,1980
10.8000,1961
10.8028,1945
10.8056,1938
10.8083,1936
10.8111,1930
10.8139,1927
10.8167,1906
10.8194,1896
10.8222,1892
10.8250,1879
10.8278,1887
10.8306,1887
10.8333,1882
10.8361,1884
10.8389,1871
10.8417,1869
10.8444,1866
10.8472,1870
10.8500,1880
10.8528,1878
10.8556,1879
10.8583,1866
10.8611,1867
10.8639,1869
10.8667,1892
10.8694,1892
10.8722,1892
10.8750,1891
10.8778,1876
10.8806,1873
10.8833,1872
10.8861,1885
10.8889,1891
10.8917,1901
10.8944,1894
10.8972,1903
10.9000,1888
10.9028,1890
10.9056,1893
10.9083,1889
10.9111,1893
10.9139,1891
10.9167,1887
10.9194,1896
10.9222,1893
10.9250,1895
10.9278,1905
10.9306,1908
10.9333,1912
10.9361,1910
10.9389,1909
10.9417,1894
10.9444,1891
10.9472,1899
10.9500,1905
10.9528,1906
10.9556,1887
10.9583,1891
10.9611,1886
10.9639,1903
10.9667,1892
10.9694,1901
10.9722,1902
10.9750,1902
10.9778,1890
10.9806,1880
10.9833,1882
10.9861,1876
10.9889,1892
10.9917,1887
10.9944,1890
10.9972,1879
11.0000,1872
11.0028,1869
11.0056,1865
11.0083,1870
11.0111,1859
11.0139,1865
11.0167,1862
11.0194,1858
11.0222,1859
11.0250,1868
11.0278,1871
11.0306,1865
11.0333,1861
11.0361,1853
11.0389,1852
11.0417,1852
11.0444,1842
11.0472,1848
11.0500,1852
11.0528,1850
11.0556,1850
11.0583,1846
11.0611,1845
11.0639,1846
11.0667,1852
11.0694,1853
11.0722,1850
11.0750,1853
11.0778,1838
11.0806,1843
11.0833,1842
11.0861,1838
11.0889,1845
11.0917,1838
11.0944,1837
11.0972,1838
11.1000,1835
11.1028,1829
11.1056,1829
11.1083,1831
11.1111,1833
11.1139,1833
11.1167,1832
11.1194,1833
11.1222,1828
11.1250,1835
11.1278,1832
11.1306,1824
11.1333,1824
11.1361,1818
11.1389,1814
11.1417,1813
11.1444,1815
11.1472,1814
11.1500,1825
11.1528,1825
11.1556,1808
11.1583,1813
11.1611,1803
11.1639,1809
11.1667,1811
11.1694,1812
11.1722,1812
11.1750,1807
11.1778,1806
11.1806,1804
11.1833,1814
11.1861,1807
11.1889,1807
11.1917,1804
11.1944,1809
11.1972,1809
11.2000,1800
11.2028,1804
11.2056,1799
11.2083,1801
11.2111,1805
11.2139,1805
11.2167,1806
11.2194,1810
11.2222,1798
11.2250,1801
11.2278,1807
11.2306,1796
11.2333,1809
11.2361,1799
11.2389,1804
11.2417,1802
11.2444,1800
11.2472,1807
11.2500,1809
11.2528,1802
11.2556,1807
11.2583,1798
11.2611,1792
11.2639,1801
11.2667,1808
11.2694,1822
11.2722,1843
11.2750,1869
11.2778,1892
11.2806,1915
11.2833,1919
11.2861,1917
11.2889,1924
11.2917,1932
11.2944,1967
11.2972,2007
11.3000,2033
11.3028,2064
11.3056,2083
11.3083,2093
11.3111,2099
11.3139,2092
11.3167,2075
11.3194,2066
11.3222,2041
11.3250,2029
11.3278,1991
11.3306,1949
11.3333,1882
11.3361,1828
11.3389,1767
11.3417,1738
11.3444,1716
11.3472,1718
11.3500,1724
11.3528,1716
11.3556,1723
11.3583,1710
11.3611,1701
11.3639,1700
11.3667,1699
11.3694,1688
11.3722,1689
11.3750,1687
11.3778,1694
11.3806,1690
11.3833,1685
11.3861,1685
11.3889,1691
11.3917,1697
11.3944,1695
11.3972,1698
11.4000,1703
11.4028,1703
11.4056,1697
11.4083,1700
11.4111,1700
11.4139,1684
11.4167,1650
11.4194,1594
11.4222,1552
11.4250,1531
11.4278,1572
11.4306,1647
11.4333,1764
11.4361,1933
11.4389,2112
11.4417,2286
11.4444,2462
11.4472,2619
11.4500,2778
11.4528,2947
11.4556,3150
11.4583,3226
11.4611,3005
11.4639,2589
11.4667,2071
11.4694,1580
11.4722,1221
11.4750,1007
11.4778,928
11.4806,971
11.4833,1095
11.4861,1238
11.4889,1384
11.4917,1501
11.4944,1575
11.4972,1613
11.5000,1622
11.5028,1633
11.5056,1661
11.5083,1680
11.5111,1674
11.5139,1663
11.5167,1660
11.5194,1657
11.5222,1657
11.5250,1678
11.5278,1701
11.5306,1711
11.5333,1712
11.5361,1693
11.5389,1695
11.5417,1689
11.5444,1706
11.5472,1721
11.5500,1738
11.5528,1732
11.5556,1720
11.5583,1715
11.5611,1720
11.5639,1728
11.5667,1744
11.5694,1756
11.5722,1760
11.5750,1755
11.5778,1741
11.5806,1745
11.5833,1761
11.5861,1778
11.5889,1789
11.5917,1798
11.5944,1799
11.5972,1793
11.6000,1787
11.6028,1800
11.6056,1811
11.6083,1822
11.6111,1832
11.6139,1833
11.6167,1830
11.6194,1829
11.6222,1845
11.6250,1864
11.6278,1873
11.6306,1888
11.6333,1897
11.6361,1893
11.6389,1891
11.6417,1905
11.6444,1924
11.6472,1948
11.6500,1962
11.6528,1970
11.6556,1974
11.6583,1980
11.6611,1995
11.6639,1770
11.6667,1780
11.6694,1765
11.6722,1729
11.6750,1705
11.6778,1672
11.6806,1649
11.6833,1645
11.6861,1638
11.6889,1643
11.6917,1629
11.6944,1607
11.6972,1598
11.7000,1589
11.7028,1596
11.7056,1598
11.7083,1607
11.7111,1603
11.7139,1594
11.7167,1589
11.7194,1581
11.7222,1585
11.7250,1598
11.7278,1605
11.7306,1605
11.7333,1600
11.7361,1589
11.7389,1589
11.7417,1598
11.7444,1610
11.7472,1612
11.7500,1620
11.7528,1610
11.7556,1609
11.7583,1609
11.7611,1618
11.7639,1631
11.7667,1641
11.7694,1654
11.7722,1649
11.7750,1640
11.7778,1639
11.7806,1642
11.7833,1651
11.7861,1665
11.7889,1672
11.7917,1676
11.7944,1671
11.7972,1670
11.8000,1667
11.8028,1667
11.8056,1678
11.8083,1689
11.8111,1692
11.8139,1688
11.8167,1685
11.8194,1673
11.8222,1684
11.8250,1692
11.8278,1707
11.8306,1717
11.8333,1704
11.8361,1704
11.8389,1708
11.8417,1716
11.8444,1728
11.8472,1733
11.8500,1736
11.8528,1729
11.8556,1724
11.8583,1725
11.8611,1725
11.8639,1730
11.8667,1737
11.8694,1744
11.8722,1744
11.8750,1733
11.8778,1731
11.8806,1742
11.8833,1749
11.8861,1757
11.8889,1762
11.8917,1758
11.8944,1755
11.8972,1749
11.9000,1750
11.9028,1748
11.9056,1757
11.9083,1757
11.9111,1763
11.9139,1754
11.9167,1749
11.9194,1749
11.9222,1755
11.9250,1763
11.9278,1769
11.9306,1776
11.9333,1777
11.9361,1768
11.9389,1772
11.9417,1773
11.9444,1781
11.9472,1782
11.9500,1784
11.9528,1779
11.9556,1787
11.9583,1781
11.9611,1771
11.9639,1780
11.9667,1784
11.9694,1783
11.9722,1779
11.9750,1780
11.9778,1767
11.9806,1781
11.9833,1785
11.9861,1789
11.9889,1800
11.9917,1797
11.9944,1796
11.9972,1797
12.0000,1798
12.0028,1801
12.0056,1801
12.0083,1810
12.0111,1808
12.0139,1806
12.0167,1808
12.0194,1808
12.0222,1812
12.0250,1816
12.0278,1820
12.0306,1820
12.0333,1820
12.0361,1820
12.0389,1826
12.0417,1827
12.0444,1826
12.0472,1826
12.0500,1829
12.0528,1827
12.0556,1831
12.0583,1825
12.0611,1835
12.0639,1835
12.0667,1844
12.0694,1843
12.0722,1840
12.0750,1843
12.0778,1837
12.0806,1825
12.0833,1832
12.0861,1842
12.0889,1844
12.0917,1854
12.0944,1851
12.0972,1863
12.1000,1866
12.1028,1857
12.1056,1861
12.1083,1855
12.1111,1853
12.1139,1856
12.1167,1847
12.1194,1849
12.1222,1856
12.1250,1854
12.1278,1866
12.1306,1876
12.1333,1872
12.1361,1886
12.1389,1885
12.1417,1911
12.1444,1928
12.1472,1952
12.1500,1975
12.1528,1992
12.1556,2003
12.1583,2003
12.1611,2018
12.1639,2041
12.1667,2086
12.1694,2115
12.1722,2139
12.1750,2166
12.1778,2193
12.1806,2200
12.1833,2206
12.1861,2208
12.1889,2198
12.1917,2178
12.1944,2149
12.1972,2120
12.2000,2076
12.2028,2016
12.2056,1960
12.2083,1912
12.2111,1875
12.2139,1857
12.2167,1854
12.2194,1849
12.2222,1847
12.2250,1840
12.2278,1847
12.2306,1839
12.2333,1838
12.2361,1826
12.2389,1830
12.2417,1825
12.2444,1832
12.2472,1838
12.2500,1838
12.2528,1844
12.2556,1841
12.2583,1842
12.2611,1837
12.2639,1833
12.2667,1837
12.2694,1835
12.2722,1842
12.2750,1844
12.2778,1833
12.2806,1835
12.2833,1828
12.2861,1815
12.2889,1770
12.2917,1733
12.2944,1694
12.2972,1695
12.3000,1743
12.3028,1847
12.3056,1994
12.3083,2176
12.3111,2355
12.3139,2527
12.3167,2665
12.3194,2796
12.3222,2945
12.3250,3096
12.3278,3225
12.3306,3179
12.3333,2899
12.3361,2499
12.3389,2088
12.3417,1713
12.3444,1430
12.3472,1260
12.3500,1191
12.3528,1210
12.3556,1291
12.3583,1399
12.3611,1508
12.3639,1599
12.3667,1671
12.3694,1709
12.3722,1730
12.3750,1745
12.3778,1773
12.3806,1794
12.3833,1793
12.3861,1799
12.3889,1788
12.3917,1786
12.3944,1794
12.3972,1803
12.4000,1811
12.4028,1828
12.4056,1829
12.4083,1815
12.4111,1819
12.4139,1817
12.4167,1827
12.4194,1834
12.4222,1834
12.4250,1838
12.4278,1829
12.4306,1841
12.4333,1846
12.4361,1865
12.4389,1861
12.4417,1861
12.4444,1851
12.4472,1850
12.4500,1844
12.4528,1854
12.4556,1868
12.4583,1888
12.4611,1898
12.4639,1895
12.4667,1896
12.4694,1884
12.4722,1885
12.4750,1896
12.4778,1908
12.4806,1910
12.4833,1928
12.4861,1915
12.4889,1927
12.4917,1924
12.4944,1932
12.4972,1938
12.5000,1936
12.5028,1938
12.5056,1947
12.5083,1948
12.5111,1960
12.5139,1984
12.5167,1992
12.5194,2006
12.5222,2022
12.5250,2031
12.5278,2036
12.5306,2048
12.5333,2064
12.5361,1858
12.5389,1860
12.5417,1850
12.5444,1822
12.5472,1789
12.5500,1769
12.5528,1750
12.5556,1751
12.5583,1749
12.5611,1744
12.5639,1723
12.5667,1705
12.5694,1682
12.5722,1677
12.5750,1677
12.5778,1684
12.5806,1693
12.5833,1687
12.5861,1689
12.5889,1669
12.5917,1657
12.5944,1662
12.5972,1669
12.6000,1667
12.6028,1667
12.6056,1657
12.6083,1654
12.6111,1643
12.6139,1663
12.6167,1684
12.6194,1693
12.6222,1683
12.6250,1675
12.6278,1672
12.6306,1662
12.6333,1670
12.6361,1679
12.6389,1684
12.6417,1683
12.6444,1679
12.6472,1678
12.6500,1669
12.6528,1665
12.6556,1671
12.6583,1671
12.6611,1680
12.6639,1691
12.6667,1694
12.6694,1682
12.6722,1678
12.6750,1678
12.6778,1681
12.6806,1675
12.6833,1693
12.6861,1689
12.6889,1686
12.6917,1687
12.6944,1692
12.6972,1687
12.7000,1681
12.7028,1680
12.7056,1671
12.7083,1670
12.7111,1674
12.7139,1694
12.7167,1700
12.7194,1703
12.7222,1703
12.7250,1685
12.7278,1678
12.7306,1672
12.7333,1676
12.7361,1690
12.7389,1700
12.7417,1706
12.7444,1695
12.7472,1687
12.7500,1691
12.7528,1686
12.7556,1694
12.7583,1704
12.7611,1697
12.7639,1685
12.7667,1674
12.7694,1667
12.7722,1665
12.7750,1674
12.7778,1677
12.7806,1680
12.7833,1681
12.7861,1681
12.7889,1668
12.7917,1666
12.7944,1678
12.7972,1686
12.8000,1690
12.8028,1685
12.8056,1687
12.8083,1670
12.8111,1662
12.8139,1659
12.8167,1665
12.8194,1682
12.8222,1685
12.8250,1687
12.8278,1682
12.8306,1670
12.8333,1666
12.8361,1662
12.8389,1666
12.8417,1665
12.8444,1664
12.8472,1662
12.8500,1664
12.8528,1657
12.8556,1665
12.8583,1651
12.8611,1651
12.8639,1651
12.8667,1651
12.8694,1646
12.8722,1650
12.8750,1654
12.8778,1667
12.8806,1662
12.8833,1656
12.8861,1649
12.8889,1638
12.8917,1632
12.8944,1646
12.8972,1656
12.9000,1669
12.9028,1672
12.9056,1668
12.9083,1655
12.9111,1650
12.9139,1651
12.9167,1653
12.9194,1649
12.9222,1644
12.9250,1646
12.9278,1640
12.9306,1649
12.9333,1652
12.9361,1660
12.9389,1659
12.9417,1659
12.9444,1643
12.9472,1630
12.9500,1634
12.9528,1624
12.9556,1632
12.9583,1632
12.9611,1640
12.9639,1642
12.9667,1658
12.9694,1681
12.9722,1700
12.9750,1718
12.9778,1725
12.9806,1735
12.9833,1739
12.9861,1737
12.9889,1748
12.9917,1757
12.9944,1803
12.9972,1833
13.0000,1862
13.0028,1882
13.0056,1904
13.0083,1925
13.0111,1941
13.0139,1922
13.0167,1903
13.0194,1891
13.0222,1871
13.0250,1840
13.0278,1799
13.0306,1748
13.0333,1696
13.0361,1664
13.0389,1642
13.0417,1606
13.0444,1589
13.0472,1585
13.0500,1564
13.0528,1562
13.0556,1559
13.0583,1570
13.0611,1567
13.0639,1566
13.0667,1558
13.0694,1558
13.0722,1554
13.0750,1538
13.0778,1528
13.0806,1539
13.0833,1541
13.0861,1549
13.0889,1553
13.0917,1560
13.0944,1566
13.0972,1567
13.1000,1560
13.1028,1558
13.1056,1551
13.1083,1553
13.1111,1552
13.1139,1539
13.1167,1512
13.1194,1483
13.1222,1459
13.1250,1461
13.1278,1472
13.1306,1535
13.1333,1649
13.1361,1803
13.1389,1978
13.1417,2155
13.1444,2314
13.1472,2427
13.1500,2543
13.1528,2663
13.1556,2779
13.1583,2831
13.1611,2711
13.1639,2417
13.1667,2083
13.1694,1762
13.1722,1476
13.1750,1227
13.1778,1057
13.1806,967
13.1833,954
13.1861,1011
13.1889,1110
13.1917,1206
13.1944,1282
13.1972,1345
13.2000,1405
13.2028,1443
13.2056,1487
13.2083,1509
13.2111,1527
13.2139,1522
13.2167,1516
13.2194,1507
13.2222,1514
13.2250,1526
13.2278,1547
13.2306,1560
13.2333,1572
13.2361,1584
13.2389,1576
13.2417,1569
13.2444,1572
13.2472,1577
13.2500,1585
13.2528,1595
13.2556,1598
13.2583,1604
13.2611,1617
13.2639,1620
13.2667,1619
13.2694,1622
13.2722,1602
13.2750,1597
13.2778,1598
13.2806,1599
13.2833,1607
13.2861,1621
13.2889,1625
13.2917,1617
13.2944,1629
13.2972,1630
13.3000,1633
13.3028,1651
13.3056,1646
13.3083,1644
13.3111,1647
13.3139,1658
13.3167,1669
13.3194,1692
13.3222,1694
13.3250,1696
13.3278,1687
13.3306,1694
13.3333,1700
13.3361,1704
13.3389,1705
13.3417,1711
13.3444,1721
13.3472,1737
13.3500,1756
13.3528,1762
13.3556,1776
13.3583,1786
13.3611,1796
13.3639,1684
13.3667,1683
13.3694,1676
13.3722,1650
13.3750,1626
13.3778,1585
13.3806,1572
13.3833,1562
13.3861,1561
13.3889,1563
13.3917,1543
13.3944,1523
13.3972,1503
13.4000,1496
13.4028,1497
13.4056,1512
13.4083,1508
13.4111,1522
13.4139,1515
13.4167,1512
13.4194,1517
13.4222,1518
13.4250,1515
13.4278,1515
13.4306,1508
13.4333,1513
13.4361,1511
13.4389,1506
13.4417,1505
13.4444,1506
13.4472,1508
13.4500,1504
13.4528,1506
13.4556,1511
13.4583,1515
13.4611,1522
13.4639,1526
13.4667,1522
13.4694,1517
13.4722,1500
13.4750,1500
13.4778,1506
13.4806,1510
13.4833,1530
13.4861,1542
13.4889,1538
13.4917,1528
13.4944,1526
13.4972,1520
13.5000,1522
13.5028,1521
13.5056,1526
13.5083,1537
13.5111,1531
13.5139,1532
13.5167,1525
13.5194,1523
13.5222,1516
13.5250,1526
13.5278,1524
13.5306,1531
13.5333,1521
13.5361,1515
13.5389,1524
13.5417,1526
13.5444,1529
13.5472,1535
13.5500,1534
13.5528,1536
13.5556,1527
13.5583,1528
13.5611,1517
13.5639,1517
13.5667,1518
13.5694,1522
13.5722,1542
13.5750,1542
13.5778,1545
13.5806,1522
13.5833,1517
13.5861,1517
13.5889,1522
13.5917,1530
13.5944,1530
13.5972,1521
13.6000,1519
13.6028,1524
13.6056,1525
13.6083,1534
13.6111,1537
13.6139,1526
13.6167,1526
13.6194,1516
13.6222,1519
13.6250,1532
13.6278,1537
13.6306,1546
13.6333,1537
13.6361,1533
13.6389,1530
13.6417,1536
13.6444,1543
13.6472,1536
13.6500,1537
13.6528,1531
13.6556,1528
13.6583,1528
13.6611,1532
13.6639,1543
13.6667,1544
13.6694,1552
13.6722,1538
13.6750,1536
13.6778,1526
13.6806,1534
13.6833,1530
13.6861,1526
13.6889,1527
13.6917,1529
13.6944,1532
13.6972,1537
13.7000,1543
13.7028,1541
13.7056,1543
13.7083,1546
13.7111,1550
13.7139,1531
13.7167,1536
13.7194,1536
13.7222,1525
13.7250,1535
13.7278,1552
13.7306,1542
13.7333,1543
13.7361,1540
13.7389,1540
13.7417,1532
13.7444,1541
13.7472,1546
13.7500,1544
13.7528,1555
13.7556,1584
13.7583,1598
13.7611,1618
13.7639,1635
13.7667,1651
13.7694,1664
13.7722,1670
13.7750,1681
13.7778,1680
13.7806,1695
13.7833,1716
13.7861,1734
13.7889,1759
13.7917,1782
13.7944,1809
13.7972,1813
13.8000,1808
13.8028,1789
13.8056,1777
13.8083,1753
13.8111,1725
13.8139,1681
13.8167,1641
13.8194,1596
13.8222,1555
13.8250,1536
13.8278,1509
13.8306,1506
13.8333,1497
13.8361,1489
13.8389,1495
13.8417,1494
13.8444,1484
13.8472,1487
13.8500,1485
13.8528,1486
13.8556,1484
13.8583,1486
13.8611,1480
13.8639,1480
13.8667,1481
13.8694,1478
13.8722,1487
13.8750,1476
13.8778,1479
13.8806,1475
13.8833,1485
13.8861,1487
13.8889,1493
13.8917,1495
13.8944,1500
13.8972,1494
13.9000,1487
13.9028,1453
13.9056,1397
13.9083,1353
13.9111,1353
13.9139,1393
13.9167,1479
13.9194,1612
13.9222,1795
13.9250,1968
13.9278,2144
13.9306,2278
13.9333,2391
13.9361,2521
13.9389,2654
13.9417,2820
13.9444,2873
13.9472,2708
13.9500,2363
13.9528,1972
13.9556,1611
13.9583,1301
13.9611,1076
13.9639,930
13.9667,876
13.9694,915
13.9722,1008
13.9750,1120
13.9778,1218
13.9806,1304
13.9833,1357
13.9861,1411
13.9889,1439
13.9917,1467
13.9944,1496
13.9972,1504
14.0000,1495
14.0028,1487
14.0056,1489
14.0083,1505
14.0111,1520
14.0139,1535
14.0167,1537
14.0194,1531
14.0222,1533
14.0250,1537
14.0278,1545
14.0306,1556
14.0333,1566
14.0361,1566
14.0389,1566
14.0417,1562
14.0444,1564
14.0472,1566
14.0500,1573
14.0528,1589
14.0556,1594
14.0583,1597
14.0611,1599
14.0639,1596
14.0667,1605
14.0694,1625
14.0722,1639
14.0750,1639
14.0778,1646
14.0806,1643
14.0833,1643
14.0861,1649
14.0889,1659
14.0917,1663
14.0944,1683
14.0972,1673
14.1000,1659
14.1028,1669
14.1056,1671
14.1083,1686
14.1111,1706
14.1139,1721
14.1167,1735
14.1194,1738
14.1222,1735
14.1250,1740
14.1278,1753
14.1306,1750
14.1333,1779
14.1361,1790
14.1389,1803
14.1417,1817
14.1444,1818
14.1472,1829
14.1500,1669
14.1528,1674
14.1556,1663
14.1583,1634
14.1611,1612
14.1639,1587
14.1667,1581
14.1694,1577
14.1722,1577
14.1750,1566
14.1778,1548
14.1806,1527
14.1833,1519
14.1861,1516
14.1889,1518
14.1917,1526
14.1944,1524
14.1972,1524
14.2000,1503
14.2028,1496
14.2056,1496
14.2083,1501
14.2111,1505
14.2139,1520
14.2167,1523
14.2194,1516
14.2222,1517
14.2250,1516
14.2278,1519
14.2306,1535
14.2333,1551
14.2361,1541
14.2389,1541
14.2417,1543
14.2444,1547
14.2472,1549
14.2500,1549
14.2528,1548
14.2556,1555
14.2583,1556
14.2611,1553
14.2639,1548
14.2667,1553
14.2694,1549
14.2722,1569
14.2750,1574
14.2778,1578
14.2806,1576
14.2833,1569
14.2861,1569
14.2889,1573
14.2917,1590
14.2944,1591
14.2972,1592
14.3000,1580
14.3028,1579
14.3056,1575
14.3083,1580
14.3111,1594
14.3139,1596
14.3167,1601
14.3194,1593
14.3222,1587
14.3250,1580
14.3278,1588
14.3306,1588
14.3333,1600
14.3361,1606
14.3389,1593
14.3417,1598
14.3444,1589
14.3472,1579
14.3500,1581
14.3528,1594
14.3556,1590
14.3583,1593
14.3611,1597
14.3639,1591
14.3667,1591
14.3694,1599
14.3722,1603
14.3750,1603
14.3778,1601
14.3806,1600
14.3833,1593
14.3861,1586
14.3889,1586
14.3917,1600
14.3944,1605
14.3972,1600
14.4000,1600
14.4028,1600
14.4056,1595
14.4083,1600
14.4111,1602
14.4139,1602
14.4167,1601
14.4194,1596
14.4222,1592
14.4250,1601
14.4278,1604
14.4306,1609
14.4333,1619
14.4361,1605
14.4389,1603
14.4417,1600
14.4444,1603
14.4472,1610
14.4500,1616
14.4528,1611
14.4556,1620
14.4583,1623
14.4611,1619
14.4639,1620
14.4667,1611
14.4694,1614
14.4722,1610
14.4750,1609
14.4778,1614
14.4806,1613
14.4833,1621
14.4861,1613
14.4889,1618
14.4917,1625
14.4944,1625
14.4972,1626
14.5000,1616
14.5028,1620
14.5056,1616
14.5083,1625
14.5111,1627
14.5139,1630
14.5167,1625
14.5194,1632
14.5222,1630
14.5250,1634
14.5278,1629
14.5306,1631
14.5333,1638
14.5361,1666
14.5389,1677
14.5417,1708
14.5444,1731
14.5472,1749
14.5500,1769
14.5528,1779
14.5556,1786
14.5583,1785
14.5611,1797
14.5639,1811
14.5667,1832
14.5694,1854
14.5722,1897
14.5750,1921
14.5778,1935
14.5806,1939
14.5833,1934
14.5861,1914
14.5889,1894
14.5917,1882
14.5944,1850
14.5972,1819
14.6000,1776
14.6028,1737
14.6056,1693
14.6083,1657
14.6111,1628
14.6139,1626
14.6167,1624
14.6194,1621
14.6222,1618
14.6250,1613
14.6278,1621
14.6306,1613
14.6333,1618
14.6361,1614
14.6389,1622
14.6417,1618
14.6444,1611
14.6472,1621
14.6500,1615
14.6528,1608
14.6556,1611
14.6583,1611
14.6611,1611
14.6639,1608
14.6667,1621
14.6694,1633
14.6722,1630
14.6750,1631
14.6778,1631
14.6806,1629
14.6833,1611
14.6861,1573
14.6889,1525
14.6917,1495
14.6944,1495
14.6972,1543
14.7000,1630
14.7028,1772
14.7056,1949
14.7083,2127
14.7111,2300
14.7139,2454
14.7167,2602
14.7194,2754
14.7222,2921
14.7250,3104
14.7278,3130
14.7306,2904
14.7333,2490
14.7361,2014
14.7389,1568
14.7417,1232
14.7444,1029
14.7472,943
14.7500,963
14.7528,1069
14.7556,1199
14.7583,1334
14.7611,1431
14.7639,1508
14.7667,1559
14.7694,1580
14.7722,1600
14.7750,1619
14.7778,1637
14.7806,1637
14.7833,1636
14.7861,1623
14.7889,1625
14.7917,1637
14.7944,1657
14.7972,1664
14.8000,1673
14.8028,1670
14.8056,1667
14.8083,1667
14.8111,1667
14.8139,1679
14.8167,1701
14.8194,1705
14.8222,1705
14.8250,1697
14.8278,1691
14.8306,1709
14.8333,1727
14.8361,1736
14.8389,1751
14.8417,1741
14.8444,1736
14.8472,1731
14.8500,1731
14.8528,1746
14.8556,1758
14.8583,1770
14.8611,1770
14.8639,1761
14.8667,1764
14.8694,1769
14.8722,1778
14.8750,1802
14.8778,1811
14.8806,1817
14.8833,1813
14.8861,1807
14.8889,1809
14.8917,1825
14.8944,1829
14.8972,1847
14.9000,1855
14.9028,1856
14.9056,1861
14.9083,1871
14.9111,1889
14.9139,1900
14.9167,1921
14.9194,1937
14.9222,1943
14.9250,1944
14.9278,1955
14.9306,1961
14.9333,1751
14.9361,1755
14.9389,1734
14.9417,1703
14.9444,1676
14.9472,1660
14.9500,1646
14.9528,1646
14.9556,1636
14.9583,1626
14.9611,1619
14.9639,1603
14.9667,1580
14.9694,1579
14.9722,1592
14.9750,1600
14.9778,1602
14.9806,1599
14.9833,1580
14.9861,1567
14.9889,1574
14.9917,1579
14.9944,1603
14.9972,1603
15.0000,1603
15.0028,1599
15.0056,1594
15.0083,1587
15.0111,1591
15.0139,1602
15.0167,1609
15.0194,1609
15.0222,1606
15.0250,1603
15.0278,1590
15.0306,1591
15.0333,1603
15.0361,1613
15.0389,1619
15.0417,1619
15.0444,1608
15.0472,1607
15.0500,1607
15.0528,1613
15.0556,1621
15.0583,1627
15.0611,1617
15.0639,1610
15.0667,1614
15.0694,1613
15.0722,1624
15.0750,1635
15.0778,1637
15.0806,1643
15.0833,1639
15.0861,1631
15.0889,1635
15.0917,1630
15.0944,1631
15.0972,1644
15.1000,1647
15.1028,1664
15.1056,1655
15.1083,1653
15.1111,1644
15.1139,1649
15.1167,1648
15.1194,1657
15.1222,1645
15.1250,1641
15.1278,1637
15.1306,1639
15.1333,1641
15.1361,1646
15.1389,1648
15.1417,1650
15.1444,1644
15.1472,1638
15.1500,1634
15.1528,1639
15.1556,1641
15.1583,1650
15.1611,1645
15.1639,1644
15.1667,1643
15.1694,1643
15.1722,1643
15.1750,1651
15.1778,1651
15.1806,1645
15.1833,1638
15.1861,1632
15.1889,1630
15.1917,1640
15.1944,1642
15.1972,1639
15.2000,1636
15.2028,1631
15.2056,1625
15.2083,1618
15.2111,1620
15.2139,1628
15.2167,1637
15.2194,1635
15.2222,1640
15.2250,1628
15.2278,1634
15.2306,1634
15.2333,1632
15.2361,1638
15.2389,1636
15.2417,1631
15.2444,1637
15.2472,1625
15.2500,1634
15.2528,1635
15.2556,1637
15.2583,1643
15.2611,1639
15.2639,1633
15.2667,1637
15.2694,1637
15.2722,1639
15.2750,1635
15.2778,1634
15.2806,1640
15.2833,1643
15.2861,1639
15.2889,1637
15.2917,1635
15.2944,1636
15.2972,1637
15.3000,1640
15.3028,1648
15.3056,1642
15.3083,1646
15.3111,1638
15.3139,1645
15.3167,1659
15.3194,1656
15.3222,1657
15.3250,1653
15.3278,1644
15.3306,1648
15.3333,1655
15.3361,1681
15.3389,1709
15.3417,1737
15.3444,1768
15.3472,1782
15.3500,1795
15.3528,1813
15.3556,1809
15.3583,1818
15.3611,1834
15.3639,1860
15.3667,1874
15.3694,1903
15.3722,1927
15.3750,1944
15.3778,1956
15.3806,1953
15.3833,1924
15.3861,1902
15.3889,1886
15.3917,1868
15.3944,1839
15.3972,1798
15.4000,1752
15.4028,1703
15.4056,1665
15.4083,1638
15.4111,1628
15.4139,1612
15.4167,1623
15.4194,1622
15.4222,1631
15.4250,1633
15.4278,1630
15.4306,1628
15.4333,1635
15.4361,1627
15.4389,1632
15.4417,1625
15.4444,1630
15.4472,1625
15.4500,1627
15.4528,1618
15.4556,1635
15.4583,1637
15.4611,1631
15.4639,1633
15.4667,1647
15.4694,1639
15.4722,1643
15.4750,1645
15.4778,1640
15.4806,1636
15.4833,1609
15.4861,1566
15.4889,1515
15.4917,1478
15.4944,1497
15.4972,1552
15.5000,1642
15.5028,1792
15.5056,1965
15.5083,2160
15.5111,2329
15.5139,2497
15.5167,2651
15.5194,2811
15.5222,3008
15.5250,3187
15.5278,3141
15.5306,2835
15.5333,2351
15.5361,1832
15.5389,1380
15.5417,1074
15.5444,925
15.5472,905
15.5500,995
15.5528,1142
15.5556,1302
15.5583,1447
15.5611,1540
15.5639,1593
15.5667,1633
15.5694,1640
15.5722,1665
15.5750,1684
15.5778,1687
15.5806,1687
15.5833,1679
15.5861,1665
15.5889,1673
15.5917,1689
15.5944,1704
15.5972,1720
15.6000,1717
15.6028,1714
15.6056,1710
15.6083,1700
15.6111,1712
15.6139,1729
15.6167,1757
15.6194,1766
15.6222,1764
15.6250,1751
15.6278,1750
15.6306,1756
15.6333,1760
15.6361,1783
15.6389,1788
15.6417,1783
15.6444,1786
15.6472,1778
15.6500,1781
15.6528,1801
15.6556,1813
15.6583,1825
15.6611,1824
15.6639,1823
15.6667,1823
15.6694,1823
15.6722,1840
15.6750,1855
15.6778,1873
15.6806,1868
15.6833,1873
15.6861,1861
15.6889,1866
15.6917,1881
15.6944,1900
15.6972,1919
15.7000,1926
15.7028,1937
15.7056,1939
15.7083,1945
15.7111,1959
15.7139,1985
15.7167,2007
15.7194,2005
15.7222,2011
15.7250,2023
15.7278,2032
15.7306,1845
15.7333,1851
15.7361,1838
15.7389,1815
15.7417,1791
15.7444,1752
15.7472,1735
15.7500,1730
15.7528,1714
15.7556,1717
15.7583,1712
15.7611,1696
15.7639,1670
15.7667,1656
15.7694,1656
15.7722,1659
15.7750,1673
15.7778,1675
15.7806,1677
15.7833,1668
15.7861,1656
15.7889,1660
15.7917,1670
15.7944,1673
15.7972,1692
15.8000,1683
15.8028,1676
15.8056,1676
15.8083,1674
15.8111,1674
15.8139,1699
15.8167,1701
15.8194,1710
15.8222,1702
15.8250,1701
15.8278,1696
15.8306,1704
15.8333,1720
15.8361,1721
15.8389,1728
15.8417,1721
15.8444,1711
15.8472,1712
15.8500,1711
15.8528,1720
15.8556,1728
15.8583,1729
15.8611,1730
15.8639,1723
15.8667,1717
15.8694,1717
15.8722,1729
15.8750,1741
15.8778,1746
15.8806,1737
15.8833,1737
15.8861,1732
15.8889,1734
15.8917,1735
15.8944,1743
15.8972,1739
15.9000,1747
15.9028,1744
15.9056,1733
15.9083,1739
15.9111,1740
15.9139,1743
15.9167,1741
15.9194,1744
15.9222,1738
15.9250,1739
15.9278,1738
15.9306,1734
15.9333,1742
15.9361,1738
15.9389,1739
15.9417,1734
15.9444,1725
15.9472,1725
15.9500,1728
15.9528,1732
15.9556,1748
15.9583,1742
15.9611,1740
15.9639,1732
15.9667,1724
15.9694,1735
15.9722,1739
15.9750,1745
15.9778,1731
15.9806,1729
15.9833,1722
15.9861,1719
15.9889,1732
15.9917,1730
15.9944,1734
15.9972,1741
16.0000,1738
16.0028,1724
16.0056,1719
16.0083,1715
16.0111,1725
16.0139,1732
16.0167,1734
16.0194,1729
16.0222,1731
16.0250,1722
16.0278,1719
16.0306,1717
16.0333,1733
16.0361,1730
16.0389,1736
16.0417,1736
16.0444,1733
16.0472,1736
16.0500,1736
16.0528,1734
16.0556,1742
16.0583,1742
16.0611,1727
16.0639,1721
16.0667,1716
16.0694,1719
16.0722,1723
16.0750,1745
16.0778,1733
16.0806,1735
16.0833,1726
16.0861,1734
16.0889,1729
16.0917,1727
16.0944,1733
16.0972,1739
16.1000,1740
16.1028,1745
16.1056,1739
16.1083,1733
16.1111,1736
16.1139,1737
16.1167,1736
16.1194,1731
16.1222,1739
16.1250,1751
16.1278,1781
16.1306,1811
16.1333,1835
16.1361,1859
16.1389,1876
16.1417,1874
16.1444,1874
16.1472,1873
16.1500,1898
16.1528,1930
16.1556,1952
16.1583,1977
16.1611,1999
16.1639,2010
16.1667,2022
16.1694,2023
16.1722,1997
16.1750,1983
16.1778,1957
16.1806,1928
16.1833,1905
16.1861,1847
16.1889,1806
16.1917,1761
16.1944,1723
16.1972,1705
16.2000,1683
16.2028,1668
16.2056,1667
16.2083,1664
16.2111,1668
16.2139,1668
16.2167,1663
16.2194,1661
16.2222,1665
16.2250,1663
16.2278,1656
16.2306,1662
16.2333,1659
16.2361,1659
16.2389,1669
16.2417,1657
16.2444,1659
16.2472,1672
16.2500,1660
16.2528,1655
16.2556,1667
16.2583,1671
16.2611,1671
16.2639,1669
16.2667,1667
16.2694,1655
16.2722,1647
16.2750,1600
16.2778,1550
16.2806,1513
16.2833,1503
16.2861,1553
16.2889,1654
16.2917,1794
16.2944,1982
16.2972,2161
16.3000,2336
16.3028,2495
16.3056,2652
16.3083,2806
16.3111,2986
16.3139,3165
16.3167,3155
16.3194,2843
16.3222,2371
16.3250,1841
16.3278,1375
16.3306,1063
16.3333,901
16.3361,883
16.3389,967
16.3417,1117
16.3444,1292
16.3472,1431
16.3500,1539
16.3528,1602
16.3556,1627
16.3583,1649
16.3611,1655
16.3639,1665
16.3667,1671
16.3694,1672
16.3722,1652
16.3750,1650
16.3778,1655
16.3806,1663
16.3833,1680
16.3861,1701
16.3889,1712
16.3917,1707
16.3944,1689
16.3972,1684
16.4000,1688
16.4028,1709
16.4056,1720
16.4083,1722
16.4111,1717
16.4139,1706
16.4167,1697
16.4194,1708
16.4222,1717
16.4250,1730
16.4278,1741
16.4306,1755
16.4333,1744
16.4361,1738
16.4389,1747
16.4417,1756
16.4444,1777
16.4472,1780
16.4500,1787
16.4528,1781
16.4556,1778
16.4583,1780
16.4611,1789
16.4639,1812
16.4667,1821
16.4694,1833
16.4722,1824
16.4750,1821
16.4778,1826
16.4806,1837
16.4833,1840
16.4861,1864
16.4889,1881
16.4917,1893
16.4944,1893
16.4972,1895
16.5000,1907
16.5028,1923
16.5056,1939
16.5083,1963
16.5111,1973
16.5139,1967
16.5167,1976
16.5194,1768
16.5222,1773
16.5250,1758
16.5278,1738
16.5306,1710
16.5333,1688
16.5361,1660
16.5389,1660
16.5417,1645
16.5444,1645
16.5472,1630
16.5500,1628
16.5528,1611
16.5556,1595
16.5583,1590
16.5611,1598
16.5639,1591
16.5667,1603
16.5694,1604
16.5722,1587
16.5750,1583
16.5778,1590
16.5806,1596
16.5833,1601
16.5861,1605
16.5889,1607
16.5917,1592
16.5944,1590
16.5972,1581
16.6000,1593
16.6028,1599
16.6056,1612
16.6083,1606
16.6111,1611
16.6139,1603
16.6167,1597
16.6194,1607
16.6222,1613
16.6250,1617
16.6278,1616
16.6306,1612
16.6333,1604
16.6361,1599
16.6389,1614
16.6417,1624
16.6444,1632
16.6472,1633
16.6500,1626
16.6528,1622
16.6556,1621
16.6583,1619
16.6611,1631
16.6639,1639
16.6667,1643
16.6694,1642
16.6722,1634
16.6750,1623
16.6778,1629
16.6806,1641
16.6833,1640
16.6861,1643
16.6889,1635
16.6917,1633
16.6944,1622
16.6972,1628
16.7000,1640
16.7028,1641
16.7056,1645
16.7083,1653
16.7111,1641
16.7139,1631
16.7167,1635
16.7194,1636
16.7222,1634
16.7250,1637
16.7278,1636
16.7306,1633
16.7333,1625
16.7361,1619
16.7389,1612
16.7417,1609
16.7444,1620
16.7472,1616
16.7500,1620
16.7528,1616
16.7556,1607
16.7583,1610
16.7611,1613
16.7639,1626
16.7667,1620
16.7694,1619
16.7722,1617
16.7750,1613
16.7778,1610
16.7806,1621
16.7833,1626
16.7861,1619
16.7889,1623
16.7917,1608
16.7944,1610
16.7972,1602
16.8000,1600
16.8028,1606
16.8056,1610
16.8083,1605
16.8111,1608
16.8139,1605
16.8167,1607
16.8194,1601
16.8222,1600
16.8250,1602
16.8278,1609
16.8306,1608
16.8333,1597
16.8361,1598
16.8389,1601
16.8417,1599
16.8444,1611
16.8472,1603
16.8500,1606
16.8528,1593
16.8556,1596
16.8583,1591
16.8611,1594
16.8639,1599
16.8667,1598
16.8694,1603
16.8722,1598
16.8750,1593
16.8778,1593
16.8806,1582
16.8833,1585
16.8861,1586
16.8889,1595
16.8917,1589
16.8944,1589
16.8972,1583
16.9000,1591
16.9028,1591
16.9056,1588
16.9083,1586
16.9111,1584
16.9139,1579
16.9167,1581
16.9194,1592
16.9222,1594
16.9250,1602
16.9278,1593
16.9306,1588
16.9333,1593
16.9361,1588
16.9389,1590
16.9417,1603
16.9444,1624
16.9472,1659
16.9500,1685
16.9528,1705
16.9556,1715
16.9583,1725
16.9611,1733
16.9639,1729
16.9667,1743
16.9694,1761
16.9722,1785
16.9750,1809
16.9778,1830
16.9806,1865
16.9833,1877
16.9861,1881
16.9889,1881
16.9917,1845
16.9944,1827
16.9972,1808
17.0000,1781
17.0028,1740
17.0056,1677
17.0083,1625
17.0111,1573
17.0139,1539
17.0167,1523
17.0194,1514
17.0222,1519
17.0250,1511
17.0278,1519
17.0306,1517
17.0333,1518
17.0361,1518
17.0389,1511
17.0417,1514
17.0444,1507
17.0472,1507
17.0500,1510
17.0528,1511
17.0556,1509
17.0583,1510
17.0611,1506
17.0639,1510
17.0667,1505
17.0694,1513
17.0722,1507
17.0750,1514
17.0778,1517
17.0806,1521
17.0833,1525
17.0861,1518
17.0889,1506
17.0917,1474
17.0944,1411
17.0972,1373
17.1000,1353
17.1028,1375
17.1056,1457
17.1083,1583
17.1111,1758
17.1139,1939
17.1167,2121
17.1194,2283
17.1222,2434
17.1250,2586
17.1278,2753
17.1306,2932
17.1333,2982
17.1361,2770
17.1389,2377
17.1417,1915
17.1444,1467
17.1472,1117
17.1500,906
17.1528,815
17.1556,828
17.1583,933
17.1611,1069
17.1639,1212
17.1667,1319
17.1694,1395
17.1722,1438
17.1750,1455
17.1778,1470
17.1806,1483
17.1833,1492
17.1861,1503
17.1889,1494
17.1917,1483
17.1944,1479
17.1972,1480
17.2000,1508
17.2028,1516
17.2056,1517
17.2083,1525
17.2111,1515
17.2139,1507
17.2167,1514
17.2194,1524
17.2222,1537
17.2250,1549
17.2278,1542
17.2306,1527
17.2333,1530
17.2361,1531
17.2389,1542
17.2417,1555
17.2444,1562
17.2472,1567
17.2500,1571
17.2528,1555
17.2556,1550
17.2583,1573
17.2611,1578
17.2639,1595
17.2667,1593
17.2694,1584
17.2722,1581
17.2750,1583
17.2778,1597
17.2806,1617
17.2833,1624
17.2861,1626
17.2889,1629
17.2917,1623
17.2944,1619
17.2972,1629
17.3000,1642
17.3028,1660
17.3056,1672
17.3083,1685
17.3111,1692
17.3139,1698
17.3167,1708
17.3194,1723
17.3222,1742
17.3250,1753
17.3278,1756
17.3306,1759
17.3333,1765
17.3361,1775
17.3389,1642
17.3417,1655
17.3444,1640
17.3472,1615
17.3500,1582
17.3528,1565
17.3556,1540
17.3583,1539
17.3611,1532
17.3639,1538
17.3667,1525
17.3694,1512
17.3722,1499
17.3750,1488
17.3778,1492
17.3806,1490
17.3833,1496
17.3861,1500
17.3889,1495
17.3917,1489
17.3944,1491
17.3972,1488
17.4000,1500
17.4028,1505
17.4056,1507
17.4083,1503
17.4111,1499
17.4139,1493
17.4167,1505
17.4194,1516
17.4222,1517
17.4250,1521
17.4278,1518
17.4306,1518
17.4333,1522
17.4361,1532
17.4389,1545
17.4417,1552
17.4444,1552
17.4472,1553
17.4500,1546
17.4528,1536
17.4556,1535
17.4583,1539
17.4611,1544
17.4639,1558
17.4667,1557
17.4694,1556
17.4722,1551
17.4750,1559
17.4778,1564
17.4806,1569
17.4833,1580
17.4861,1574
17.4889,1577
17.4917,1568
17.4944,1569
17.4972,1572
17.5000,1585
17.5028,1589
17.5056,1604
17.5083,1600
17.5111,1592
17.5139,1591
17.5167,1581
17.5194,1583
17.5222,1577
17.5250,1589
17.5278,1586
17.5306,1589
17.5333,1594
17.5361,1592
17.5389,1600
17.5417,1599
17.5444,1602
17.5472,1597
17.5500,1593
17.5528,1589
17.5556,1587
17.5583,1592
17.5611,1593
17.5639,1590
17.5667,1583
17.5694,1584
17.5722,1589
17.5750,1594
17.5778,1606
17.5806,1609
17.5833,1616
17.5861,1612
17.5889,1604
17.5917,1602
17.5944,1604
17.5972,1604
17.6000,1607
17.6028,1599
17.6056,1608
17.6083,1600
17.6111,1601
17.6139,1605
17.6167,1612
17.6194,1615
17.6222,1614
17.6250,1622
17.6278,1620
17.6306,1611
17.6333,1609
17.6361,1610
17.6389,1608
17.6417,1612
17.6444,1619
17.6472,1619
17.6500,1619
17.6528,1627
17.6556,1624
17.6583,1626
17.6611,1629
17.6639,1634
17.6667,1648
17.6694,1638
17.6722,1623
17.6750,1627
17.6778,1623
17.6806,1631
17.6833,1635
17.6861,1642
17.6889,1653
17.6917,1653
17.6944,1655
17.6972,1652
17.7000,1639
17.7028,1643
17.7056,1654
17.7083,1647
17.7111,1659
17.7139,1663
17.7167,1685
17.7194,1708
17.7222,1736
17.7250,1756
17.7278,1763
17.7306,1761
17.7333,1764
17.7361,1766
17.7389,1785
17.7417,1803
17.7444,1826
17.7472,1842
17.7500,1857
17.7528,1881
17.7556,1904
17.7583,1924
17.7611,1933
17.7639,1914
17.7667,1898
17.7694,1887
17.7722,1857
17.7750,1816
17.7778,1774
17.7806,1730
17.7833,1692
17.7861,1656
17.7889,1630
17.7917,1618
17.7944,1607
17.7972,1613
17.8000,1623
17.8028,1617
17.8056,1620
17.8083,1611
17.8111,1607
17.8139,1613
17.8167,1616
17.8194,1623
17.8222,1626
17.8250,1626
17.8278,1627
17.8306,1619
17.8333,1608
17.8361,1599
17.8389,1614
17.8417,1609
17.8444,1621
17.8472,1630
17.8500,1632
17.8528,1642
17.8556,1638
17.8583,1638
17.8611,1635
17.8639,1607
17.8667,1576
17.8694,1532
17.8722,1502
17.8750,1512
17.8778,1559
17.8806,1639
17.8833,1780
17.8861,1950
17.8889,2134
17.8917,2303
17.8944,2449
17.8972,2567
17.9000,2701
17.9028,2846
17.9056,2982
17.9083,2952
17.9111,2738
17.9139,2385
17.9167,2017
17.9194,1693
17.9222,1404
17.9250,1181
17.9278,1068
17.9306,1028
17.9333,1087
17.9361,1189
17.9389,1288
17.9417,1379
17.9444,1456
17.9472,1514
17.9500,1541
17.9528,1575
17.9556,1597
17.9583,1610
17.9611,1617
17.9639,1608
17.9667,1609
17.9694,1602
17.9722,1621
17.9750,1634
17.9778,1645
17.9806,1659
17.9833,1658
17.9861,1653
17.9889,1658
17.9917,1663
17.9944,1668
17.9972,1681
18.0000,1681
18.0028,1683
18.0056,1677
18.0083,1681
18.0111,1689
18.0139,1705
18.0167,1711
18.0194,1718
18.0222,1715
18.0250,1715
18.0278,1713
18.0306,1721
18.0333,1725
18.0361,1737
18.0389,1739
18.0417,1742
18.0444,1747
18.0472,1744
18.0500,1754
18.0528,1763
18.0556,1784
18.0583,1783
18.0611,1794
18.0639,1789
18.0667,1795
18.0694,1794
18.0722,1815
18.0750,1821
18.0778,1837
18.0806,1850
18.0833,1852
18.0861,1849
18.0889,1850
18.0917,1855
18.0944,1864
18.0972,1883
18.1000,1902
18.1028,1917
18.1056,1927
18.1083,1933
18.1111,1947
18.1139,1799
18.1167,1799
18.1194,1779
18.1222,1750
18.1250,1732
18.1278,1707
18.1306,1697
18.1333,1689
18.1361,1678
18.1389,1667
18.1417,1671
18.1444,1649
18.1472,1654
18.1500,1655
18.1528,1647
18.1556,1649
18.1583,1646
18.1611,1645
18.1639,1634
18.1667,1637
18.1694,1639
18.1722,1639
18.1750,1653
18.1778,1655
18.1806,1658
18.1833,1647
18.1861,1638
18.1889,1651
18.1917,1644
18.1944,1648
18.1972,1656
18.2000,1660
18.2028,1664
18.2056,1660
18.2083,1658
18.2111,1660
18.2139,1671
18.2167,1670
18.2194,1681
18.2222,1671
18.2250,1665
18.2278,1665
18.2306,1664
18.2333,1669
18.2361,1681
18.2389,1683
18.2417,1682
18.2444,1680
18.2472,1680
18.2500,1678
18.2528,1683
18.2556,1685
18.2583,1681
18.2611,1685
18.2639,1678
18.2667,1683
18.2694,1678
18.2722,1688
18.2750,1688
18.2778,1685
18.2806,1688
18.2833,1683
18.2861,1683
18.2889,1686
18.2917,1683
18.2944,1686
18.2972,1698
18.3000,1700
18.3028,1693
18.3056,1675
18.3083,1678
18.3111,1674
18.3139,1686
18.3167,1684
18.3194,1688
18.3222,1686
18.3250,1686
18.3278,1690
18.3306,1695
18.3333,1692
18.3361,1693
18.3389,1689
18.3417,1682
18.3444,1674
18.3472,1676
18.3500,1667
18.3528,1679
18.3556,1691
18.3583,1690
18.3611,1681
18.3639,1684
18.3667,1686
18.3694,1692
18.3722,1682
18.3750,1686
18.3778,1691
18.3806,1690
18.3833,1685
18.3861,1684
18.3889,1678
18.3917,1686
18.3944,1686
18.3972,1692
18.4000,1687
18.4028,1691
18.4056,1690
18.4083,1693
18.4111,1693
18.4139,1695
18.4167,1692
18.4194,1698
18.4222,1706
18.4250,1693
18.4278,1691
18.4306,1694
18.4333,1706
18.4361,1695
18.4389,1701
18.4417,1715
18.4444,1711
18.4472,1711
18.4500,1705
18.4528,1706
18.4556,1708
18.4583,1710
18.4611,1715
18.4639,1710
18.4667,1716
18.4694,1717
18.4722,1717
18.4750,1727
18.4778,1735
18.4806,1737
18.4833,1738
18.4861,1768
18.4889,1787
18.4917,1818
18.4944,1845
18.4972,1857
18.5000,1871
18.5028,1863
18.5056,1866
18.5083,1872
18.5111,1889
18.5139,1908
18.5167,1936
18.5194,1974
18.5222,2005
18.5250,2012
18.5278,2006
18.5306,1988
18.5333,1971
18.5361,1949
18.5389,1926
18.5417,1890
18.5444,1846
18.5472,1809
18.5500,1763
18.5528,1725
18.5556,1707
18.5583,1688
18.5611,1676
18.5639,1673
18.5667,1678
18.5694,1669
18.5722,1676
18.5750,1684
18.5778,1682
18.5806,1679
18.5833,1681
18.5861,1678
18.5889,1679
18.5917,1683
18.5944,1674
18.5972,1667
18.6000,1676
18.6028,1670
18.6056,1668
18.6083,1672
18.6111,1669
18.6139,1691
18.6167,1688
18.6194,1686
18.6222,1680
18.6250,1678
18.6278,1670
18.6306,1652
18.6333,1604
18.6361,1555
18.6389,1515
18.6417,1538
18.6444,1588
18.6472,1702
18.6500,1858
18.6528,2044
18.6556,2230
18.6583,2415
18.6611,2564
18.6639,2704
18.6667,2861
18.6694,3034
18.6722,3157
18.6750,3073
18.6778,2733
18.6806,2292
18.6833,1836
18.6861,1451
18.6889,1191
18.6917,1034
18.6944,998
18.6972,1053
18.7000,1165
18.7028,1304
18.7056,1434
18.7083,1523
18.7111,1585
18.7139,1619
18.7167,1640
18.7194,1664
18.7222,1687
18.7250,1694
18.7278,1694
18.7306,1687
18.7333,1675
18.7361,1680
18.7389,1692
18.7417,1716
18.7444,1719
18.7472,1724
18.7500,1723
18.7528,1717
18.7556,1714
18.7583,1724
18.7611,1744
18.7639,1757
18.7667,1752
18.7694,1742
18.7722,1745
18.7750,1745
18.7778,1752
18.7806,1770
18.7833,1780
18.7861,1785
18.7889,1786
18.7917,1780
18.7944,1775
18.7972,1776
18.8000,1802
18.8028,1812
18.8056,1822
18.8083,1811
18.8111,1815
18.8139,1812
18.8167,1814
18.8194,1831
18.8222,1847
18.8250,1856
18.8278,1852
18.8306,1870
18.8333,1866
18.8361,1872
18.8389,1887
18.8417,1902
18.8444,1911
18.8472,1911
18.8500,1920
18.8528,1927
18.8556,1935
18.8583,1942
18.8611,1963
18.8639,1985
18.8667,1993
18.8694,2000
18.8722,1997
18.8750,1998
18.8778,1828
18.8806,1834
18.8833,1822
18.8861,1798
18.8889,1769
18.8917,1743
18.8944,1726
18.8972,1721
18.9000,1718
18.9028,1712
18.9056,1707
18.9083,1689
18.9111,1684
18.9139,1675
18.9167,1671
18.9194,1677
18.9222,1685
18.9250,1684
18.9278,1682
18.9306,1668
18.9333,1669
18.9361,1673
18.9389,1690
18.9417,1699
18.9444,1704
18.9472,1695
18.9500,1688
18.9528,1687
18.9556,1686
18.9583,1697
18.9611,1703
18.9639,1716
18.9667,1709
18.9694,1696
18.9722,1691
18.9750,1700
18.9778,1705
18.9806,1717
18.9833,1719
18.9861,1712
18.9889,1706
18.9917,1699
18.9944,1695
18.9972,1700
19.0000,1715
19.0028,1718
19.0056,1724
19.0083,1720
19.0111,1713
19.0139,1715
19.0167,1723
19.0194,1724
19.0222,1728
19.0250,1730
19.0278,1729
19.0306,1722
19.0333,1730
19.0361,1721
19.0389,1726
19.0417,1724
19.0444,1724
19.0472,1726
19.0500,1720
19.0528,1722
19.0556,1725
19.0583,1725
19.0611,1732
19.0639,1734
19.0667,1726
19.0694,1726
19.0722,1723
19.0750,1730
19.0778,1724
19.0806,1733
19.0833,1732
19.0861,1728
19.0889,1722
19.0917,1715
19.0944,1718
19.0972,1723
19.1000,1723
19.1028,1726
19.1056,1725
19.1083,1724
19.1111,1715
19.1139,1717
19.1167,1711
19.1194,1718
19.1222,1731
19.1250,1720
19.1278,1714
19.1306,1708
19.1333,1716
19.1361,1715
19.1389,1715
19.1417,1716
19.1444,1721
19.1472,1722
19.1500,1714
19.1528,1716
19.1556,1715
19.1583,1716
19.1611,1713
19.1639,1720
19.1667,1714
19.1694,1710
19.1722,1713
19.1750,1714
19.1778,1710
19.1806,1722
19.1833,1724
19.1861,1723
19.1889,1718
19.1917,1715
19.1944,1719
19.1972,1712
19.2000,1733
19.2028,1728
19.2056,1725
19.2083,1728
19.2111,1728
19.2139,1724
19.2167,1719
19.2194,1715
19.2222,1717
19.2250,1715
19.2278,1715
19.2306,1710
19.2333,1715
19.2361,1720
19.2389,1724
19.2417,1741
19.2444,1770
19.2472,1797
19.2500,1825
19.2528,1839
19.2556,1862
19.2583,1863
19.2611,1868
19.2639,1870
19.2667,1880
19.2694,1894
19.2722,1908
19.2750,1931
19.2778,1965
19.2806,1992
19.2833,2002
19.2861,2004
19.2889,1988
19.2917,1965
19.2944,1935
19.2972,1907
19.3000,1875
19.3028,1837
19.3056,1790
19.3083,1743
19.3111,1702
19.3139,1663
19.3167,1654
19.3194,1638
19.3222,1641
19.3250,1633
19.3278,1633
19.3306,1637
19.3333,1634
19.3361,1631
19.3389,1632
19.3417,1632
19.3444,1631
19.3472,1632
19.3500,1636
19.3528,1627
19.3556,1625
19.3583,1622
19.3611,1632
19.3639,1630
19.3667,1629
19.3694,1627
19.3722,1629
19.3750,1629
19.3778,1632
19.3806,1632
19.3833,1631
19.3861,1622
19.3889,1610
19.3917,1559
19.3944,1507
19.3972,1462
19.4000,1472
19.4028,1519
19.4056,1619
19.4083,1767
19.4111,1955
19.4139,2137
19.4167,2313
19.4194,2473
19.4222,2621
19.4250,2781
19.4278,2953
19.4306,3116
19.4333,3073
19.4361,2765
19.4389,2281
19.4417,1777
19.4444,1341
19.4472,1037
19.4500,890
19.4528,863
19.4556,945
19.4583,1083
19.4611,1249
19.4639,1398
19.4667,1504
19.4694,1548
19.4722,1575
19.4750,1595
19.4778,1606
19.4806,1622
19.4833,1627
19.4861,1623
19.4889,1611
19.4917,1602
19.4944,1599
19.4972,1615
19.5000,1634
19.5028,1654
19.5056,1660
19.5083,1651
19.5111,1645
19.5139,1638
19.5167,1643
19.5194,1661
19.5222,1665
19.5250,1673
19.5278,1672
19.5306,1663
19.5333,1655
19.5361,1675
19.5389,1692
19.5417,1701
19.5444,1705
19.5472,1714
19.5500,1694
19.5528,1698
19.5556,1702
19.5583,1707
19.5611,1726
19.5639,1737
19.5667,1742
19.5694,1737
19.5722,1722
19.5750,1730
19.5778,1751
19.5806,1770
19.5833,1770
19.5861,1783
19.5889,1774
19.5917,1769
19.5944,1778
19.5972,1781
19.6000,1799
19.6028,1810
19.6056,1822
19.6083,1833
19.6111,1826
19.6139,1835
19.6167,1854
19.6194,1870
19.6222,1892
19.6250,1905
19.6278,1911
19.6306,1915
19.6333,1919
19.6361,1723
19.6389,1736
19.6417,1723
19.6444,1705
19.6472,1682
19.6500,1647
19.6528,1618
19.6556,1612
19.6583,1618
19.6611,1620
19.6639,1610
19.6667,1594
19.6694,1582
19.6722,1564
19.6750,1572
19.6778,1564
19.6806,1584
19.6833,1578
19.6861,1589
19.6889,1572
19.6917,1560
19.6944,1558
19.6972,1576
19.7000,1584
19.7028,1595
19.7056,1586
19.7083,1585
19.7111,1577
19.7139,1574
19.7167,1580
19.7194,1590
19.7222,1596
19.7250,1596
19.7278,1591
19.7306,1581
19.7333,1579
19.7361,1588
19.7389,1595
19.7417,1603
19.7444,1604
19.7472,1599
19.7500,1585
19.7528,1584
19.7556,1588
19.7583,1603
19.7611,1606
19.7639,1612
19.7667,1600
19.7694,1592
19.7722,1593
19.7750,1591
19.7778,1599
19.7806,1607
19.7833,1605
19.7861,1607
19.7889,1608
19.7917,1607
19.7944,1609
19.7972,1618
19.8000,1616
19.8028,1613
19.8056,1612
19.8083,1597
19.8111,1598
19.8139,1604
19.8167,1605
19.8194,1608
19.8222,1616
19.8250,1612
19.8278,1615
19.8306,1605
19.8333,1609
19.8361,1612
19.8389,1607
19.8417,1607
19.8444,1608
19.8472,1597
19.8500,1590
19.8528,1592
19.8556,1591
19.8583,1600
19.8611,1603
19.8639,1603
19.8667,1595
19.8694,1605
19.8722,1584
19.8750,1596
19.8778,1593
19.8806,1606
19.8833,1607
19.8861,1610
19.8889,1605
19.8917,1595
19.8944,1595
19.8972,1595
19.9000,1602
19.9028,1602
19.9056,1604
19.9083,1600
19.9111,1604
19.9139,1596
19.9167,1599
19.9194,1599
19.9222,1602
19.9250,1602
19.9278,1594
19.9306,1590
19.9333,1585
19.9361,1591
19.9389,1596
19.9417,1600
19.9444,1605
19.9472,1601
19.9500,1606
19.9528,1606
19.9556,1611
19.9583,1604
19.9611,1611
19.9639,1610
19.9667,1609
19.9694,1607
19.9722,1611
19.9750,1615
19.9778,1611
19.9806,1617
19.9833,1614
19.9861,1615
19.9889,1614
19.9917,1610
19.9944,1616
19.9972,1623
20.0000,1613
20.0028,1627
20.0056,1648
20.0083,1675
20.0111,1698
20.0139,1713
20.0167,1734
20.0194,1754
20.0222,1758
20.0250,1758
20.0278,1765
20.0306,1785
20.0333,1815
20.0361,1838
20.0389,1871
20.0417,1892
20.0444,1898
20.0472,1900
20.0500,1902
20.0528,1882
20.0556,1865
20.0583,1845
20.0611,1813
20.0639,1766
20.0667,1709
20.0694,1660
20.0722,1612
20.0750,1586
20.0778,1573
20.0806,1567
20.0833,1572
20.0861,1570
20.0889,1567
20.0917,1557
20.0944,1555
20.0972,1552
20.1000,1552
20.1028,1563
20.1056,1557
20.1083,1554
20.1111,1555
20.1139,1550
20.1167,1545
20.1194,1546
20.1222,1554
20.1250,1557
20.1278,1555
20.1306,1552
20.1333,1553
20.1361,1557
20.1389,1547
20.1417,1549
20.1444,1552
20.1472,1550
20.1500,1538
20.1528,1510
20.1556,1451
20.1583,1404
20.1611,1396
20.1639,1428
20.1667,1508
20.1694,1641
20.1722,1827
20.1750,2016
20.1778,2195
20.1806,2368
20.1833,2506
20.1861,2658
20.1889,2806
20.1917,2983
20.1944,2998
20.1972,2792
20.2000,2397
20.2028,1937
20.2056,1506
20.2083,1169
20.2111,964
20.2139,869
20.2167,880
20.2194,985
20.2222,1135
20.2250,1265
20.2278,1377
20.2306,1440
20.2333,1482
20.2361,1497
20.2389,1522
20.2417,1538
20.2444,1561
20.2472,1565
20.2500,1560
20.2528,1557
20.2556,1552
20.2583,1556
20.2611,1573
20.2639,1584
20.2667,1594
20.2694,1596
20.2722,1597
20.2750,1589
20.2778,1598
20.2806,1615
20.2833,1619
20.2861,1617
20.2889,1616
20.2917,1613
20.2944,1607
20.2972,1604
20.3000,1618
20.3028,1630
20.3056,1639
20.3083,1654
20.3111,1645
20.3139,1647
20.3167,1646
20.3194,1648
20.3222,1662
20.3250,1676
20.3278,1683
20.3306,1679
20.3333,1676
20.3361,1685
20.3389,1689
20.3417,1708
20.3444,1715
20.3472,1728
20.3500,1721
20.3528,1719
20.3556,1710
20.3583,1719
20.3611,1743
20.3639,1759
20.3667,1767
20.3694,1768
20.3722,1765
20.3750,1776
20.3778,1777
20.3806,1797
20.3833,1806
20.3861,1819
20.3889,1829
20.3917,1839
20.3944,1841
20.3972,1849
20.4000,1715
20.4028,1730
20.4056,1713
20.4083,1685
20.4111,1650
20.4139,1628
20.4167,1621
20.4194,1618
20.4222,1619
20.4250,1617
20.4278,1610
20.4306,1599
20.4333,1579
20.4361,1574
20.4389,1580
20.4417,1586
20.4444,1582
20.4472,1585
20.4500,1582
20.4528,1581
20.4556,1576
20.4583,1591
20.4611,1590
20.4639,1599
20.4667,1590
20.4694,1601
20.4722,1592
20.4750,1586
20.4778,1592
20.4806,1598
20.4833,1607
20.4861,1619
20.4889,1616
20.4917,1604
20.4944,1609
20.4972,1614
20.5000,1625
20.5028,1639
20.5056,1648
20.5083,1642
20.5111,1636
20.5139,1623
20.5167,1630
20.5194,1650
20.5222,1657
20.5250,1670
20.5278,1657
20.5306,1655
20.5333,1657
20.5361,1658
20.5389,1648
20.5417,1660
20.5444,1669
20.5472,1665
20.5500,1665
20.5528,1661
20.5556,1672
20.5583,1678
20.5611,1691
20.5639,1691
20.5667,1693
20.5694,1674
20.5722,1673
20.5750,1665
20.5778,1669
20.5806,1676
20.5833,1684
20.5861,1684
20.5889,1681
20.5917,1677
20.5944,1674
20.5972,1673
20.6000,1663
20.6028,1665
20.6056,1670
20.6083,1668
20.6111,1670
20.6139,1664
20.6167,1657
20.6194,1655
20.6222,1651
20.6250,1658
20.6278,1653
20.6306,1660
20.6333,1648
20.6361,1656
20.6389,1669
20.6417,1664
20.6444,1665
20.6472,1656
20.6500,1651
20.6528,1655
20.6556,1658
20.6583,1664
20.6611,1678
20.6639,1677
20.6667,1660
20.6694,1656
20.6722,1652
20.6750,1651
20.6778,1661
20.6806,1651
20.6833,1664
20.6861,1668
20.6889,1663
20.6917,1668
20.6944,1669
20.6972,1665
20.7000,1677
20.7028,1683
20.7056,1682
20.7083,1675
20.7111,1667
20.7139,1664
20.7167,1665
20.7194,1673
20.7222,1690
20.7250,1690
20.7278,1680
20.7306,1680
20.7333,1672
20.7361,1660
20.7389,1674
20.7417,1675
20.7444,1682
20.7472,1680
20.7500,1694
20.7528,1691
20.7556,1688
20.7583,1686
20.7611,1701
20.7639,1721
20.7667,1752
20.7694,1775
20.7722,1794
20.7750,1799
20.7778,1803
20.7806,1814
20.7833,1815
20.7861,1824
20.7889,1861
20.7917,1881
20.7944,1899
20.7972,1930
20.8000,1952
20.8028,1977
20.8056,1989
20.8083,1983
20.8111,1964
20.8139,1932
20.8167,1911
20.8194,1869
20.8222,1828
20.8250,1771
20.8278,1722
20.8306,1681
20.8333,1662
20.8361,1655
20.8389,1655
20.8417,1651
20.8444,1650
20.8472,1634
20.8500,1618
20.8528,1613
20.8556,1613
20.8583,1634
20.8611,1632
20.8639,1630
20.8667,1627
20.8694,1612
20.8722,1602
20.8750,1605
20.8778,1612
20.8806,1622
20.8833,1634
20.8861,1643
20.8889,1642
20.8917,1641
20.8944,1632
20.8972,1632
20.9000,1625
20.9028,1627
20.9056,1623
20.9083,1617
20.9111,1593
20.9139,1558
20.9167,1525
20.9194,1515
20.9222,1527
20.9250,1588
20.9278,1704
20.9306,1857
20.9333,2040
20.9361,2215
20.9389,2380
20.9417,2514
20.9444,2653
20.9472,2788
20.9500,2922
20.9528,2995
20.9556,2857
20.9583,2547
20.9611,2181
20.9639,1831
20.9667,1513
20.9694,1253
20.9722,1086
20.9750,1008
20.9778,1044
20.9806,1134
20.9833,1256
20.9861,1353
20.9889,1431
20.9917,1483
20.9944,1517
20.9972,1540
21.0000,1562
21.0028,1593
21.0056,1610
21.0083,1614
21.0111,1610
21.0139,1604
21.0167,1622
21.0194,1636
21.0222,1649
21.0250,1655
21.0278,1654
21.0306,1654
21.0333,1650
21.0361,1656
21.0389,1670
21.0417,1679
21.0444,1683
21.0472,1682
21.0500,1690
21.0528,1694
21.0556,1700
21.0583,1712
21.0611,1721
21.0639,1723
21.0667,1733
21.0694,1729
21.0722,1723
21.0750,1725
21.0778,1736
21.0806,1729
21.0833,1737
21.0861,1731
21.0889,1722
21.0917,1723
21.0944,1727
21.0972,1747
21.1000,1768
21.1028,1776
21.1056,1785
21.1083,1780
21.1111,1776
21.1139,1769
21.1167,1780
21.1194,1793
21.1222,1803
21.1250,1813
21.1278,1818
21.1306,1814
21.1333,1825
21.1361,1833
21.1389,1848
21.1417,1875
21.1444,1888
21.1472,1881
21.1500,1871
21.1528,1867
21.1556,1883
21.1583,1785
21.1611,1784
21.1639,1770
21.1667,1748
21.1694,1732
21.1722,1704
21.1750,1689
21.1778,1679
21.1806,1665
21.1833,1660
21.1861,1651
21.1889,1632
21.1917,1628
21.1944,1616
21.1972,1624
21.2000,1630
21.2028,1632
21.2056,1633
21.2083,1633
21.2111,1623
21.2139,1627
21.2167,1625
21.2194,1630
21.2222,1633
21.2250,1631
21.2278,1628
21.2306,1618
21.2333,1616
21.2361,1622
21.2389,1623
21.2417,1643
21.2444,1642
21.2472,1649
21.2500,1639
21.2528,1626
21.2556,1624
21.2583,1635
21.2611,1640
21.2639,1649
21.2667,1657
21.2694,1662
21.2722,1646
21.2750,1648
21.2778,1647
21.2806,1656
21.2833,1648
21.2861,1649
21.2889,1646
21.2917,1639
21.2944,1649
21.2972,1662
21.3000,1664
21.3028,1664
21.3056,1665
21.3083,1662
21.3111,1652
21.3139,1650
21.3167,1657
21.3194,1662
21.3222,1669
21.3250,1679
21.3278,1670
21.3306,1665
21.3333,1661
21.3361,1660
21.3389,1660
21.3417,1662
21.3444,1682
21.3472,1695
21.3500,1694
21.3528,1685
21.3556,1676
21.3583,1675
21.3611,1671
21.3639,1672
21.3667,1671
21.3694,1673
21.3722,1664
21.3750,1653
21.3778,1654
21.3806,1666
21.3833,1665
21.3861,1671
21.3889,1677
21.3917,1669
21.3944,1669
21.3972,1656
21.4000,1658
21.4028,1673
21.4056,1671
21.4083,1665
21.4111,1664
21.4139,1664
21.4167,1667
21.4194,1667
21.4222,1671
21.4250,1678
21.4278,1668
21.4306,1678
21.4333,1670
21.4361,1681
21.4389,1666
21.4417,1656
21.4444,1663
21.4472,1657
21.4500,1665
21.4528,1668
21.4556,1666
21.4583,1661
21.4611,1671
21.4639,1670
21.4667,1676
21.4694,1681
21.4722,1684
21.4750,1678
21.4778,1682
21.4806,1667
21.4833,1681
21.4861,1694
21.4889,1688
21.4917,1677
21.4944,1675
21.4972,1677
21.5000,1684
21.5028,1689
21.5056,1693
21.5083,1710
21.5111,1732
21.5139,1752
21.5167,1775
21.5194,1793
21.5222,1810
21.5250,1814
21.5278,1819
21.5306,1814
21.5333,1832
21.5361,1849
21.5389,1867
21.5417,1903
21.5444,1943
21.5472,1963
21.5500,1967
21.5528,1957
21.5556,1934
21.5583,1908
21.5611,1903
21.5639,1856
21.5667,1802
21.5694,1733
21.5722,1692
21.5750,1669
21.5778,1651
21.5806,1637
21.5833,1634
21.5861,1628
21.5889,1624
21.5917,1624
21.5944,1619
21.5972,1607
21.6000,1609
21.6028,1596
21.6056,1591
21.6083,1604
21.6111,1607
21.6139,1612
21.6167,1613
21.6194,1602
21.6222,1593
21.6250,1593
21.6278,1600
21.6306,1604
21.6333,1599
21.6361,1618
21.6389,1615
21.6417,1625
21.6444,1622
21.6472,1622
21.6500,1630
21.6528,1623
21.6556,1594
21.6583,1548
21.6611,1506
21.6639,1505
21.6667,1528
21.6694,1600
21.6722,1722
21.6750,1890
21.6778,2060
21.6806,2244
21.6833,2397
21.6861,2512
21.6889,2628
21.6917,2757
21.6944,2902
21.6972,2966
21.7000,2842
21.7028,2546
21.7056,2175
21.7083,1860
21.7111,1547
21.7139,1310
21.7167,1132
21.7194,1050
21.7222,1043
21.7250,1106
21.7278,1207
21.7306,1301
21.7333,1384
21.7361,1452
21.7389,1493
21.7417,1542
21.7444,1568
21.7472,1589
21.7500,1602
21.7528,1606
21.7556,1598
21.7583,1604
21.7611,1610
21.7639,1624
21.7667,1641
21.7694,1645
21.7722,1648
21.7750,1647
21.7778,1648
21.7806,1656
21.7833,1663
21.7861,1674
21.7889,1680
21.7917,1674
21.7944,1670
21.7972,1670
21.8000,1671
21.8028,1685
21.8056,1690
21.8083,1701
21.8111,1711
21.8139,1712
21.8167,1710
21.8194,1712
21.8222,1715
21.8250,1731
21.8278,1749
21.8306,1750
21.8333,1750
21.8361,1748
21.8389,1739
21.8417,1745
21.8444,1744
21.8472,1756
21.8500,1754
21.8528,1761
21.8556,1764
21.8583,1765
21.8611,1785
21.8639,1796
21.8667,1811
21.8694,1811
21.8722,1805
21.8750,1802
21.8778,1808
21.8806,1818
21.8833,1828
21.8861,1850
21.8889,1860
21.8917,1877
21.8944,1877
21.8972,1883
21.9000,1886
21.9028,1764
21.9056,1768
21.9083,1758
21.9111,1741
21.9139,1721
21.9167,1706
21.9194,1688
21.9222,1666
21.9250,1659
21.9278,1645
21.9306,1640
21.9333,1621
21.9361,1612
21.9389,1609
21.9417,1603
21.9444,1611
21.9472,1608
21.9500,1606
21.9528,1607
21.9556,1605
21.9583,1594
21.9611,1598
21.9639,1603
21.9667,1606
21.9694,1603
21.9722,1603
21.9750,1598
21.9778,1599
21.9806,1605
21.9833,1615
21.9861,1614
21.9889,1622
21.9917,1596
21.9944,1596
21.9972,1599
22.0000,1598
22.0028,1611
22.0056,1612
22.0083,1610
22.0111,1609
22.0139,1606
22.0167,1596
22.0194,1608
22.0222,1604
22.0250,1607
22.0278,1611
22.0306,1612
22.0333,1608
22.0361,1609
22.0389,1603
22.0417,1611
22.0444,1606
22.0472,1602
22.0500,1600
22.0528,1594
22.0556,1595
22.0583,1599
22.0611,1603
22.0639,1600
22.0667,1610
22.0694,1606
22.0722,1600
22.0750,1600
22.0778,1592
22.0806,1600
22.0833,1599
22.0861,1600
22.0889,1610
22.0917,1592
22.0944,1574
22.0972,1565
22.1000,1572
22.1028,1568
22.1056,1576
22.1083,1590
22.1111,1585
22.1139,1596
22.1167,1588
22.1194,1573
22.1222,1576
22.1250,1561
22.1278,1572
22.1306,1565
22.1333,1557
22.1361,1553
22.1389,1549
22.1417,1567
22.1444,1572
22.1472,1584
22.1500,1593
22.1528,1585
22.1556,1591
22.1583,1601
22.1611,1615
22.1639,1627
22.1667,1645
22.1694,1665
22.1722,1693
22.1750,1724
22.1778,1773
22.1806,1809
22.1833,1846
22.1861,1871
22.1889,1887
22.1917,1913
22.1944,1964
22.1972,2060
22.2000,2137
22.2028,2215
22.2056,2276
22.2083,2343
22.2111,2409
22.2139,2495
22.2167,2627
22.2194,2800
22.2222,3013
22.2250,3229
22.2278,3353
22.2306,3365
22.2333,3370
22.2361,3374
22.2389,3371
22.2417,3365
22.2444,3361
22.2472,3368
22.2500,3370
22.2528,3383
22.2556,3384
22.2583,3363
22.2611,3368
22.2639,3337
22.2667,3221
22.2694,2914
22.2722,2632
22.2750,2393
22.2778,2207
22.2806,2097
22.2833,2002
22.2861,1900
22.2889,1761
22.2917,1609
22.2944,1409
22.2972,1210
22.3000,1035
22.3028,906
22.3056,839
22.3083,826
22.3111,813
22.3139,776
22.3167,733
22.3194,678
22.3222,632
22.3250,591
22.3278,569
22.3306,560
22.3333,556
22.3361,551
22.3389,524
22.3417,503
22.3444,478
22.3472,455
22.3500,444
22.3528,442
22.3556,446
22.3583,422
22.3611,402
22.3639,375
22.3667,355
22.3694,360
22.3722,364
22.3750,358
22.3778,327
22.3806,297
22.3833,260
22.3861,243
22.3889,226
22.3917,225
22.3944,211
22.3972,205
22.4000,177
22.4028,158
22.4056,140
22.4083,131
22.4111,127
22.4139,128
22.4167,129
22.4194,111
22.4222,94
22.4250,75
22.4278,70
22.4306,75
22.4333,86
22.4361,104
22.4389,104
22.4417,110
22.4444,110
22.4472,119
22.4500,136
22.4528,155
22.4556,180
22.4583,204
22.4611,220
22.4639,247
22.4667,285
22.4694,1375
22.4722,1371
22.4750,1404
22.4778,1432
22.4806,1457
22.4833,1449
22.4861,1436
22.4889,1418
22.4917,1414
22.4944,1421
22.4972,1431
22.5000,1450
22.5028,1450
22.5056,1431
22.5083,1404
22.5111,1397
22.5139,1384
22.5167,1408
22.5194,1415
22.5222,1419
22.5250,1405
22.5278,1389
22.5306,1375
22.5333,1380
22.5361,1393
22.5389,1408
22.5417,1415
22.5444,1419
22.5472,1400
22.5500,1385
22.5528,1387
22.5556,1395
22.5583,1415
22.5611,1414
22.5639,1421
22.5667,1397
22.5694,1391
22.5722,1390
22.5750,1404
22.5778,1417
22.5806,1429
22.5833,1435
22.5861,1414
22.5889,1415
22.5917,1407
22.5944,1407
22.5972,1431
22.6000,1427
22.6028,1437
22.6056,1428
22.6083,1412
22.6111,1412
22.6139,1412
22.6167,1432
22.6194,1439
22.6222,1445
22.6250,1440
22.6278,1419
22.6306,1414
22.6333,1412
22.6361,1422
22.6389,1433
22.6417,1444
22.6444,1440
22.6472,1429
22.6500,1410
22.6528,1413
22.6556,1413
22.6583,1423
22.6611,1425
22.6639,1429
22.6667,1429
22.6694,1417
22.6722,1419
22.6750,1427
22.6778,1426
22.6806,1424
22.6833,1427
22.6861,1417
22.6889,1410
22.6917,1408
22.6944,1418
22.6972,1421
22.7000,1432
22.7028,1428
22.7056,1429
22.7083,1427
22.7111,1424
22.7139,1430
22.7167,1438
22.7194,1448
22.7222,1455
22.7250,1447
22.7278,1434
22.7306,1428
22.7333,1426
22.7361,1437
22.7389,1450
22.7417,1458
22.7444,1454
22.7472,1446
22.7500,1435
22.7528,1437
22.7556,1438
22.7583,1453
22.7611,1462
22.7639,1459
22.7667,1455
22.7694,1446
22.7722,1452
22.7750,1459
22.7778,1456
22.7806,1469
22.7833,1473
22.7861,1465
22.7889,1462
22.7917,1453
22.7944,1466
22.7972,1464
22.8000,1476
22.8028,1479
22.8056,1476
22.8083,1468
22.8111,1474
22.8139,1471
22.8167,1481
22.8194,1485
22.8222,1488
22.8250,1493
22.8278,1485
22.8306,1486
22.8333,1500
22.8361,1502
22.8389,1507
22.8417,1508
22.8444,1505
22.8472,1507
22.8500,1507
22.8528,1509
22.8556,1505
22.8583,1520
22.8611,1525
22.8639,1530
22.8667,1529
22.8694,1517
22.8722,1518
22.8750,1520
22.8778,1527
22.8806,1542
22.8833,1547
22.8861,1546
22.8889,1541
22.8917,1546
22.8944,1548
22.8972,1560
22.9000,1566
22.9028,1565
22.9056,1568
22.9083,1564
22.9111,1559
22.9139,1562
22.9167,1562
22.9194,1569
22.9222,1575
22.9250,1582
22.9278,1569
22.9306,1568
22.9333,1570
22.9361,1574
22.9389,1593
22.9417,1589
22.9444,1604
22.9472,1601
22.9500,1604
22.9528,1606
22.9556,1606
22.9583,1609
22.9611,1615
22.9639,1615
22.9667,1608
22.9694,1612
22.9722,1612
22.9750,1630
22.9778,1647
22.9806,1689
22.9833,1707
22.9861,1732
22.9889,1744
22.9917,1764
22.9944,1764
22.9972,1783
23.0000,1776
23.0028,1803
23.0056,1820
23.0083,1838
23.0111,1860
23.0139,1897
23.0167,1931
23.0194,1949
23.0222,1960
23.0250,1954
23.0278,1941
23.0306,1910
23.0333,1884
23.0361,1851
23.0389,1802
23.0417,1768
23.0444,1719
23.0472,1686
23.0500,1661
23.0528,1645
23.0556,1650
23.0583,1649
23.0611,1660
23.0639,1658
23.0667,1657
23.0694,1648
23.0722,1648
23.0750,1654
23.0778,1656
23.0806,1665
23.0833,1667
23.0861,1666
23.0889,1669
23.0917,1671
23.0944,1659
23.0972,1675
23.1000,1677
23.1028,1685
23.1056,1689
23.1083,1683
23.1111,1691
23.1139,1691
23.1167,1695
23.1194,1691
23.1222,1683
23.1250,1655
23.1278,1608
23.1306,1568
23.1333,1560
23.1361,1603
23.1389,1690
23.1417,1825
23.1444,1992
23.1472,2184
23.1500,2361
23.1528,2516
23.1556,2671
23.1583,2819
23.1611,2978
23.1639,3146
23.1667,3205
23.1694,3010
23.1722,2621
23.1750,2164
23.1778,1739
23.1806,1404
23.1833,1191
23.1861,1090
23.1889,1093
23.1917,1180
23.1944,1285
23.1972,1419
23.2000,1517
23.2028,1599
23.2056,1642
23.2083,1671
23.2111,1696
23.2139,1717
23.2167,1737
23.2194,1745
23.2222,1737
23.2250,1726
23.2278,1726
23.2306,1736
23.2333,1758
23.2361,1780
23.2389,1788
23.2417,1784
23.2444,1788
23.2472,1786
23.2500,1783
23.2528,1799
23.2556,1811
23.2583,1818
23.2611,1818
23.2639,1819
23.2667,1821
23.2694,1829
23.2722,1848
23.2750,1867
23.2778,1879
23.2806,1884
23.2833,1869
23.2861,1871
23.2889,1867
23.2917,1892
23.2944,1906
23.2972,1920
23.3000,1926
23.3028,1928
23.3056,1922
23.3083,1930
23.3111,1935
23.3139,1954
23.3167,1962
23.3194,1968
23.3222,1979
23.3250,1973
23.3278,1974
23.3306,1983
23.3333,1998
23.3361,2022
23.3389,2028
23.3417,2039
23.3444,2041
23.3472,2040
23.3500,2060
23.3528,2072
23.3556,2090
23.3583,2112
23.3611,2115
23.3639,2115
23.3667,2118
23.3694,2119
23.3722,2019
23.3750,2029
23.3778,2009
23.3806,1985
23.3833,1963
23.3861,1939
23.3889,1922
23.3917,1912
23.3944,1909
23.3972,1897
23.4000,1889
23.4028,1873
23.4056,1856
23.4083,1854
23.4111,1862
23.4139,1863
23.4167,1870
23.4194,1867
23.4222,1859
23.4250,1860
23.4278,1859
23.4306,1863
23.4333,1868
23.4361,1873
23.4389,1874
23.4417,1874
23.4444,1866
23.4472,1871
23.4500,1872
23.4528,1887
23.4556,1897
23.4583,1897
23.4611,1905
23.4639,1891
23.4667,1888
23.4694,1890
23.4722,1903
23.4750,1902
23.4778,1909
23.4806,1906
23.4833,1898
23.4861,1892
23.4889,1894
23.4917,1894
23.4944,1907
23.4972,1920
23.5000,1916
23.5028,1906
23.5056,1902
23.5083,1904
23.5111,1920
23.5139,1919
23.5167,1935
23.5194,1923
23.5222,1926
23.5250,1923
23.5278,1923
23.5306,1923
23.5333,1923
23.5361,1922
23.5389,1933
23.5417,1934
23.5444,1919
23.5472,1909
23.5500,1920
23.5528,1918
23.5556,1924
23.5583,1916
23.5611,1917
23.5639,1916
23.5667,1903
23.5694,1901
23.5722,1903
23.5750,1907
23.5778,1907
23.5806,1904
23.5833,1899
23.5861,1898
23.5889,1896
23.5917,1891
23.5944,1897
23.5972,1900
23.6000,1899
23.6028,1892
23.6056,1889
23.6083,1886
23.6111,1895
23.6139,1893
23.6167,1900
23.6194,1885
23.6222,1870
23.6250,1862
23.6278,1860
23.6306,1865
23.6333,1866
23.6361,1865
23.6389,1858
23.6417,1865
23.6444,1864
23.6472,1860
23.6500,1862
23.6528,1865
23.6556,1863
23.6583,1869
23.6611,1867
23.6639,1863
23.6667,1866
23.6694,1858
23.6722,1863
23.6750,1869
23.6778,1866
23.6806,1861
23.6833,1871
23.6861,1890
23.6889,1919
23.6917,1948
23.6944,1979
23.6972,2004
23.7000,2005
23.7028,2009
23.7056,2015
23.7083,2031
23.7111,2053
23.7139,2091
23.7167,2111
23.7194,2131
23.7222,2151
23.7250,2153
23.7278,2159
23.7306,2150
23.7333,2144
23.7361,2124
23.7389,2105
23.7417,2079
23.7444,2025
23.7472,1966
23.7500,1901
23.7528,1854
23.7556,1821
23.7583,1805
23.7611,1800
23.7639,1793
23.7667,1785
23.7694,1785
23.7722,1784
23.7750,1781
23.7778,1785
23.7806,1781
23.7833,1777
23.7861,1776
23.7889,1770
23.7917,1773
23.7944,1772
23.7972,1780
23.8000,1773
23.8028,1763
23.8056,1770
23.8083,1774
23.8111,1784
23.8139,1784
23.8167,1782
23.8194,1792
23.8222,1782
23.8250,1786
23.8278,1780
23.8306,1776
23.8333,1746
23.8361,1701
23.8389,1654
23.8417,1621
23.8444,1634
23.8472,1693
23.8500,1803
23.8528,1961
23.8556,2146
23.8583,2333
23.8611,2496
23.8639,2655
23.8667,2797
23.8694,2949
23.8722,3138
23.8750,3272
23.8778,3178
23.8806,2846
23.8833,2375
23.8861,1883
23.8889,1483
23.8917,1206
23.8944,1072
23.8972,1053
23.9000,1128
23.9028,1280
23.9056,1430
23.9083,1577
23.9111,1662
23.9139,1714
23.9167,1737
23.9194,1755
23.9222,1767
23.9250,1792
23.9278,1786
23.9306,1783
23.9333,1774
23.9361,1763
23.9389,1771
23.9417,1784
23.9444,1809
23.9472,1815
23.9500,1813
23.9528,1814
23.9556,1803
23.9583,1801
23.9611,1813
23.9639,1826
23.9667,1833
23.9694,1840
23.9722,1833
23.9750,1833
23.9778,1832
23.9806,1831
23.9833,1841
23.9861,1862
23.9889,1869
23.9917,1866
23.9944,1864
23.9972,1860
24.0000,1871
24.0028,1884
24.0056,1889
24.0083,1906
24.0111,1898
24.0139,1901
24.0167,1884
24.0194,1900
24.0222,1919
24.0250,1934
24.0278,1945
24.0306,1941
24.0333,1940
24.0361,1945
24.0389,1952
24.0417,1977
24.0444,1988
24.0472,2006
24.0500,2006
24.0528,2012
24.0556,2013
24.0583,2025
24.0611,2033
24.0639,2056
24.0667,2070
24.0694,2077
24.0722,2081
24.0750,2090
24.0778,2089
24.0806,1882
24.0833,1897
24.0861,1884
24.0889,1864
24.0917,1840
24.0944,1806
24.0972,1792
24.1000,1788
24.1028,1781
24.1056,1774
24.1083,1772
24.1111,1764
24.1139,1743
24.1167,1734
24.1194,1743
24.1222,1753
24.1250,1755
24.1278,1755
24.1306,1751
24.1333,1740
24.1361,1744
24.1389,1746
24.1417,1754
24.1444,1756
24.1472,1752
24.1500,1752
24.1528,1749
24.1556,1744
24.1583,1757
24.1611,1757
24.1639,1767
24.1667,1774
24.1694,1773
24.1722,1772
24.1750,1770
24.1778,1763
24.1806,1763
24.1833,1777
24.1861,1781
24.1889,1782
24.1917,1791
24.1944,1789
24.1972,1793
24.2000,1793
24.2028,1811
24.2056,1813
24.2083,1813
24.2111,1813
24.2139,1814
24.2167,1818
24.2194,1824
24.2222,1825
24.2250,1837
24.2278,1834
24.2306,1835
24.2333,1828
24.2361,1825
24.2389,1827
24.2417,1837
24.2444,1843
24.2472,1847
24.2500,1846
24.2528,1839
24.2556,1827
24.2583,1825
24.2611,1832
24.2639,1833
24.2667,1844
24.2694,1843
24.2722,1832
24.2750,1830
24.2778,1822
24.2806,1827
24.2833,1830
24.2861,1827
24.2889,1827
24.2917,1822
24.2944,1831
24.2972,1820
24.3000,1831
24.3028,1831
24.3056,1834
24.3083,1832
24.3111,1828
24.3139,1825
24.3167,1824
24.3194,1828
24.3222,1826
24.3250,1824
24.3278,1832
24.3306,1824
24.3333,1823
24.3361,1824
24.3389,1830
24.3417,1833
24.3444,1841
24.3472,1847
24.3500,1837
24.3528,1841
24.3556,1840
24.3583,1839
24.3611,1841
24.3639,1846
24.3667,1857
24.3694,1856
24.3722,1856
24.3750,1851
24.3778,1850
24.3806,1854
24.3833,1858
24.3861,1861
24.3889,1854
24.3917,1857
24.3944,1850
24.3972,1843
24.4000,1852
24.4028,1860
24.4056,1866
24.4083,1869
24.4111,1869
24.4139,1874
24.4167,1890
24.4194,1907
24.4222,1951
24.4250,1975
24.4278,2004
24.4306,2006
24.4333,2003
24.4361,1996
24.4389,2009
24.4417,2052
24.4444,2086
24.4472,2117
24.4500,2145
24.4528,2165
24.4556,2174
24.4583,2181
24.4611,2180
24.4639,2184
24.4667,2160
24.4694,2142
24.4722,2121
24.4750,2089
24.4778,2041
24.4806,1987
24.4833,1924
24.4861,1862
24.4889,1822
24.4917,1801
24.4944,1802
24.4972,1810
24.5000,1815
24.5028,1812
24.5056,1809
24.5083,1808
24.5111,1799
24.5139,1796
24.5167,1794
24.5194,1802
24.5222,1799
24.5250,1787
24.5278,1786
24.5306,1788
24.5333,1787
24.5361,1799
24.5389,1806
24.5417,1797
24.5444,1806
24.5472,1793
24.5500,1802
24.5528,1800
24.5556,1793
24.5583,1787
24.5611,1794
24.5639,1782
24.5667,1766
24.5694,1708
24.5722,1662
24.5750,1641
24.5778,1667
24.5806,1743
24.5833,1873
24.5861,2041
24.5889,2230
24.5917,2419
24.5944,2587
24.5972,2736
24.6000,2898
24.6028,3070
24.6056,3257
24.6083,3323
24.6111,3125
24.6139,2710
24.6167,2195
24.6194,1715
24.6222,1355
24.6250,1147
24.6278,1065
24.6306,1101
24.6333,1224
24.6361,1381
24.6389,1535
24.6417,1659
24.6444,1727
24.6472,1774
24.6500,1783
24.6528,1790
24.6556,1811
24.6583,1813
24.6611,1819
24.6639,1816
24.6667,1796
24.6694,1791
24.6722,1807
24.6750,1819
24.6778,1839
24.6806,1853
24.6833,1853
24.6861,1843
24.6889,1835
24.6917,1840
24.6944,1856
24.6972,1873
24.7000,1866
24.7028,1863
24.7056,1867
24.7083,1859
24.7111,1864
24.7139,1873
24.7167,1883
24.7194,1892
24.7222,1894
24.7250,1896
24.7278,1882
24.7306,1896
24.7333,1904
24.7361,1914
24.7389,1927
24.7417,1929
24.7444,1938
24.7472,1930
24.7500,1934
24.7528,1939
24.7556,1958
24.7583,1964
24.7611,1968
24.7639,1968
24.7667,1964
24.7694,1974
24.7722,1974
24.7750,1991
24.7778,1997
24.7806,2017
24.7833,2011
24.7861,2016
24.7889,2025
24.7917,2028
24.7944,2041
24.7972,2060
24.8000,2080
24.8028,2082
24.8056,2080
24.8083,2078
24.8111,2083
24.8139,1846
24.8167,1858
24.8194,1840
24.8222,1815
24.8250,1788
24.8278,1766
24.8306,1756
24.8333,1751
24.8361,1745
24.8389,1745
24.8417,1729
24.8444,1715
24.8472,1696
24.8500,1696
24.8528,1697
24.8556,1706
24.8583,1705
24.8611,1709
24.8639,1701
24.8667,1688
24.8694,1688
24.8722,1695
24.8750,1706
24.8778,1712
24.8806,1714
24.8833,1711
24.8861,1699
24.8889,1711
24.8917,1707
24.8944,1713
24.8972,1727
24.9000,1731
24.9028,1715
24.9056,1711
24.9083,1702
24.9111,1707
24.9139,1708
24.9167,1720
24.9194,1727
24.9222,1733
24.9250,1732
24.9278,1724
24.9306,1726
24.9333,1725
24.9361,1739
24.9389,1749
24.9417,1745
24.9444,1742
24.9472,1735
24.9500,1728
24.9528,1744
24.9556,1743
24.9583,1764
24.9611,1761
24.9639,1765
24.9667,1742
24.9694,1737
24.9722,1735
24.9750,1748
24.9778,1755
24.9806,1765
24.9833,1756
24.9861,1756
24.9889,1744
24.9917,1748
24.9944,1761
24.9972,1757
25.0000,1757
25.0028,1741
25.0056,1743
25.0083,1738
25.0111,1729
25.0139,1741
25.0167,1747
25.0194,1736
25.0222,1730
25.0250,1728
25.0278,1717
25.0306,1724
25.0333,1718
25.0361,1729
25.0389,1735
25.0417,1736
25.0444,1731
25.0472,1729
25.0500,1732
25.0528,1731
25.0556,1729
25.0583,1740
25.0611,1739
25.0639,1730
25.0667,1717
25.0694,1721
25.0722,1719
25.0750,1724
25.0778,1737
25.0806,1728
25.0833,1732
25.0861,1725
25.0889,1725
25.0917,1725
25.0944,1720
25.0972,1722
25.1000,1725
25.1028,1724
25.1056,1724
25.1083,1726
25.1111,1727
25.1139,1729
25.1167,1735
25.1194,1737
25.1222,1731
25.1250,1732
25.1278,1722
25.1306,1722
25.1333,1726
25.1361,1729
25.1389,1726
25.1417,1728
25.1444,1727
25.1472,1717
25.1500,1715
25.1528,1714
25.1556,1721
25.1583,1725
25.1611,1730
25.1639,1725
25.1667,1733
25.1694,1729
25.1722,1733
25.1750,1726
25.1778,1731
25.1806,1718
25.1833,1717
25.1861,1705
25.1889,1709
25.1917,1704
25.1944,1711
25.1972,1712
25.2000,1732
25.2028,1743
25.2056,1769
25.2083,1798
25.2111,1819
25.2139,1838
25.2167,1841
25.2194,1838
25.2222,1844
25.2250,1846
25.2278,1871
25.2306,1914
25.2333,1941
25.2361,1974
25.2389,1995
25.2417,2018
25.2444,2021
25.2472,2009
25.2500,2002
25.2528,1982
25.2556,1971
25.2583,1952
25.2611,1912
25.2639,1850
25.2667,1777
25.2694,1717
25.2722,1665
25.2750,1646
25.2778,1640
25.2806,1640
25.2833,1640
25.2861,1641
25.2889,1630
25.2917,1636
25.2944,1635
25.2972,1634
25.3000,1633
25.3028,1632
25.3056,1622
25.3083,1615
25.3111,1616
25.3139,1616
25.3167,1614
25.3194,1607
25.3222,1619
25.3250,1616
25.3278,1615
25.3306,1615
25.3333,1613
25.3361,1614
25.3389,1609
25.3417,1621
25.3444,1617
25.3472,1616
25.3500,1592
25.3528,1539
25.3556,1480
25.3583,1449
25.3611,1466
25.3639,1517
25.3667,1628
25.3694,1811
25.3722,1988
25.3750,2169
25.3778,2337
25.3806,2484
25.3833,2621
25.3861,2788
25.3889,2964
25.3917,3075
25.3944,2932
25.3972,2590
25.4000,2149
25.4028,1686
25.4056,1311
25.4083,1057
25.4111,932
25.4139,932
25.4167,1017
25.4194,1149
25.4222,1284
25.4250,1404
25.4278,1479
25.4306,1513
25.4333,1539
25.4361,1554
25.4389,1566
25.4417,1575
25.4444,1589
25.4472,1574
25.4500,1570
25.4528,1567
25.4556,1571
25.4583,1584
25.4611,1602
25.4639,1605
25.4667,1595
25.4694,1598
25.4722,1594
25.4750,1594
25.4778,1611
25.4806,1619
25.4833,1624
25.4861,1625
25.4889,1620
25.4917,1609
25.4944,1610
25.4972,1625
25.5000,1636
25.5028,1653
25.5056,1656
25.5083,1654
25.5111,1652
25.5139,1644
25.5167,1648
25.5194,1665
25.5222,1672
25.5250,1670
25.5278,1665
25.5306,1654
25.5333,1660
25.5361,1660
25.5389,1673
25.5417,1685
25.5444,1701
25.5472,1701
25.5500,1698
25.5528,1695
25.5556,1699
25.5583,1706
25.5611,1729
25.5639,1743
25.5667,1758
25.5694,1757
25.5722,1755
25.5750,1763
25.5778,1773
25.5806,1788
25.5833,1794
25.5861,1802
25.5889,1806
25.5917,1807
25.5944,1810
25.5972,1671
25.6000,1669
25.6028,1662
25.6056,1635
25.6083,1595
25.6111,1576
25.6139,1567
25.6167,1560
25.6194,1553
25.6222,1544
25.6250,1530
25.6278,1517
25.6306,1502
25.6333,1502
25.6361,1497
25.6389,1501
25.6417,1503
25.6444,1506
25.6472,1506
25.6500,1504
25.6528,1504
25.6556,1504
25.6583,1520
25.6611,1517
25.6639,1519
25.6667,1514
25.6694,1508
25.6722,1501
25.6750,1507
25.6778,1512
25.6806,1520
25.6833,1521
25.6861,1516
25.6889,1510
25.6917,1517
25.6944,1523
25.6972,1523
25.7000,1536
25.7028,1546
25.7056,1539
25.7083,1534
25.7111,1534
25.7139,1527
25.7167,1540
25.7194,1545
25.7222,1557
25.7250,1565
25.7278,1556
25.7306,1549
25.7333,1544
25.7361,1557
25.7389,1567
25.7417,1574
25.7444,1575
25.7472,1566
25.7500,1558
25.7528,1545
25.7556,1547
25.7583,1560
25.7611,1578
25.7639,1582
25.7667,1587
25.7694,1574
25.7722,1572
25.7750,1570
25.7778,1575
25.7806,1587
25.7833,1599
25.7861,1595
25.7889,1591
25.7917,1586
25.7944,1583
25.7972,1582
25.8000,1583
25.8028,1595
25.8056,1588
25.8083,1578
25.8111,1584
25.8139,1586
25.8167,1583
25.8194,1586
25.8222,1577
25.8250,1585
25.8278,1580
25.8306,1576
25.8333,1579
25.8361,1579
25.8389,1587
25.8417,1590
25.8444,1588
25.8472,1590
25.8500,1590
25.8528,1591
25.8556,1588
25.8583,1600
25.8611,1601
25.8639,1595
25.8667,1599
25.8694,1599
25.8722,1598
25.8750,1606
25.8778,1597
25.8806,1605
25.8833,1597
25.8861,1603
25.8889,1598
25.8917,1606
25.8944,1610
25.8972,1605
25.9000,1612
25.9028,1610
25.9056,1593
25.9083,1590
25.9111,1587
25.9139,1592
25.9167,1598
25.9194,1609
25.9222,1610
25.9250,1601
25.9278,1614
25.9306,1612
25.9333,1612
25.9361,1615
25.9389,1606
25.9417,1617
25.9444,1605
25.9472,1601
25.9500,1595
25.9528,1590
25.9556,1590
25.9583,1598
25.9611,1617
25.9639,1622
25.9667,1614
25.9694,1615
25.9722,1601
25.9750,1604
25.9778,1598
25.9806,1602
25.9833,1611
25.9861,1611
25.9889,1618
25.9917,1614
25.9944,1606
25.9972,1627
26.0000,1637
26.0028,1672
26.0056,1695
26.0083,1707
26.0111,1720
26.0139,1731
26.0167,1735
26.0194,1739
26.0222,1759
26.0250,1782
26.0278,1821
26.0306,1852
26.0333,1880
26.0361,1909
26.0389,1935
26.0417,1946
26.0444,1935
26.0472,1924
26.0500,1897
26.0528,1871
26.0556,1842
26.0583,1803
26.0611,1743
26.0639,1702
26.0667,1644
26.0694,1600
26.0722,1582
26.0750,1583
26.0778,1586
26.0806,1604
26.0833,1603
26.0861,1607
26.0889,1596
26.0917,1588
26.0944,1574
26.0972,1563
26.1000,1551
26.1028,1552
26.1056,1558
26.1083,1570
26.1111,1567
26.1139,1575
26.1167,1575
26.1194,1571
26.1222,1567
26.1250,1567
26.1278,1568
26.1306,1567
26.1333,1572
26.1361,1566
26.1389,1574
26.1417,1579
26.1444,1576
26.1472,1545
26.1500,1506
26.1528,1458
26.1556,1444
26.1583,1463
26.1611,1534
26.1639,1647
26.1667,1800
26.1694,1974
26.1722,2156
26.1750,2311
26.1778,2452
26.1806,2581
26.1833,2737
26.1861,2896
26.1889,2956
26.1917,2823
26.1944,2510
26.1972,2149
26.2000,1795
26.2028,1491
26.2056,1243
26.2083,1069
26.2111,988
26.2139,1003
26.2167,1074
26.2194,1159
26.2222,1270
26.2250,1345
26.2278,1419
26.2306,1473
26.2333,1515
26.2361,1542
26.2389,1564
26.2417,1564
26.2444,1559
26.2472,1550
26.2500,1553
26.2528,1557
26.2556,1579
26.2583,1600
26.2611,1619
26.2639,1611
26.2667,1606
26.2694,1606
26.2722,1608
26.2750,1622
26.2778,1629
26.2806,1639
26.2833,1638
26.2861,1633
26.2889,1628
26.2917,1636
26.2944,1644
26.2972,1665
26.3000,1669
26.3028,1673
26.3056,1674
26.3083,1671
26.3111,1671
26.3139,1672
26.3167,1693
26.3194,1698
26.3222,1697
26.3250,1706
26.3278,1704
26.3306,1697
26.3333,1706
26.3361,1715
26.3389,1724
26.3417,1723
26.3444,1736
26.3472,1740
26.3500,1727
26.3528,1744
26.3556,1763
26.3583,1763
26.3611,1768
26.3639,1772
26.3667,1777
26.3694,1792
26.3722,1800
26.3750,1804
26.3778,1810
26.3806,1820
26.3833,1835
26.3861,1848
26.3889,1864
26.3917,1877
26.3944,1771
26.3972,1773
26.4000,1757
26.4028,1747
26.4056,1709
26.4083,1684
26.4111,1670
26.4139,1670
26.4167,1663
26.4194,1660
26.4222,1649
26.4250,1634
26.4278,1622
26.4306,1619
