Tiempo(s),Valor_ADC
0.0028,1625
0.0056,1616
0.0083,1602
0.0111,1588
0.0139,1572
0.0167,1559
0.0194,1533
0.0222,1524
0.0250,1519
0.0278,1525
0.0306,1539
0.0333,1538
0.0361,1555
0.0389,1573
0.0417,1571
0.0444,1569
0.0472,1552
0.0500,1544
0.0528,1537
0.0556,1539
0.0583,1549
0.0611,1540
0.0639,1538
0.0667,1535
0.0694,1543
0.0722,1559
0.0750,1580
0.0778,1608
0.0806,1628
0.0833,1627
0.0861,1604
0.0889,1576
0.0917,1548
0.0944,1536
0.0972,1561
0.1000,1589
0.1028,1601
0.1056,1598
0.1083,1567
0.1111,1528
0.1139,1488
0.1167,1489
0.1194,1504
0.1222,1526
0.1250,1550
0.1278,1582
0.1306,1619
0.1333,1650
0.1361,1680
0.1389,1695
0.1417,1692
0.1444,1694
0.1472,1698
0.1500,1689
0.1528,1679
0.1556,1657
0.1583,1661
0.1611,1665
0.1639,1667
0.1667,1666
0.1694,1684
0.1722,1697
0.1750,1705
0.1778,1672
0.1806,1642
0.1833,1625
0.1861,1625
0.1889,1614
0.1917,1590
0.1944,1558
0.1972,1526
0.2000,1515
0.2028,1528
0.2056,1543
0.2083,1554
0.2111,1568
0.2139,1571
0.2167,1577
0.2194,1588
0.2222,1597
0.2250,1580
0.2278,1550
0.2306,1518
0.2333,1479
0.2361,1466
0.2389,1475
0.2417,1508
0.2444,1552
0.2472,1606
0.2500,1657
0.2528,1676
0.2556,1659
0.2583,1628
0.2611,1605
0.2639,1623
0.2667,1694
0.2694,1817
0.2722,1961
0.2750,2082
0.2778,2117
0.2806,2060
0.2833,1931
0.2861,1787
0.2889,1679
0.2917,1614
0.2944,1556
0.2972,1472
0.3000,1394
0.3028,1319
0.3056,1259
0.3083,1264
0.3111,1302
0.3139,1361
0.3167,1427
0.3194,1480
0.3222,1526
0.3250,1548
0.3278,1540
0.3306,1529
0.3333,1530
0.3361,1543
0.3389,1560
0.3417,1593
0.3444,1603
0.3472,1610
0.3500,1600
0.3528,1600
0.3556,1577
0.3583,1555
0.3611,1555
0.3639,1565
0.3667,1573
0.3694,1609
0.3722,1631
0.3750,1647
0.3778,1643
0.3806,1656
0.3833,1683
0.3861,1703
0.3889,1703
0.3917,1691
0.3944,1695
0.3972,1701
0.4000,1734
0.4028,1768
0.4056,1792
0.4083,1799
0.4111,1790
0.4139,1779
0.4167,1767
0.4194,1744
0.4222,1717
0.4250,1708
0.4278,1695
0.4306,1685
0.4333,1675
0.4361,1673
0.4389,1681
0.4417,1688
0.4444,1692
0.4472,1707
0.4500,1718
0.4528,1725
0.4556,1749
0.4583,1756
0.4611,1783
0.4639,1805
0.4667,1871
0.4694,1858
0.4722,1835
0.4750,1824
0.4778,1817
0.4806,1806
0.4833,1806
0.4861,1817
0.4889,1823
0.4917,1808
0.4944,1795
0.4972,1778
0.5000,1761
0.5028,1744
0.5056,1733
0.5083,1724
0.5111,1709
0.5139,1706
0.5167,1698
0.5194,1692
0.5222,1699
0.5250,1687
0.5278,1660
0.5306,1644
0.5333,1623
0.5361,1608
0.5389,1610
0.5417,1621
0.5444,1627
0.5472,1640
0.5500,1659
0.5528,1673
0.5556,1671
0.5583,1657
0.5611,1632
0.5639,1605
0.5667,1584
0.5694,1570
0.5722,1543
0.5750,1535
0.5778,1543
0.5806,1555
0.5833,1577
0.5861,1587
0.5889,1590
0.5917,1560
0.5944,1537
0.5972,1529
0.6000,1546
0.6028,1554
0.6056,1556
0.6083,1558
0.6111,1537
0.6139,1538
0.6167,1544
0.6194,1547
0.6222,1555
0.6250,1543
0.6278,1538
0.6306,1532
0.6333,1533
0.6361,1536
0.6389,1532
0.6417,1540
0.6444,1538
0.6472,1549
0.6500,1556
0.6528,1562
0.6556,1577
0.6583,1582
0.6611,1585
0.6639,1592
0.6667,1602
0.6694,1615
0.6722,1619
0.6750,1625
0.6778,1628
0.6806,1625
0.6833,1603
0.6861,1581
0.6889,1579
0.6917,1578
0.6944,1580
0.6972,1584
0.7000,1579
0.7028,1576
0.7056,1597
0.7083,1615
0.7111,1632
0.7139,1671
0.7167,1689
0.7194,1709
0.7222,1711
0.7250,1704
0.7278,1689
0.7306,1683
0.7333,1692
0.7361,1706
0.7389,1726
0.7417,1753
0.7444,1772
0.7472,1798
0.7500,1792
0.7528,1772
0.7556,1748
0.7583,1709
0.7611,1662
0.7639,1624
0.7667,1610
0.7694,1611
0.7722,1628
0.7750,1637
0.7778,1633
0.7806,1630
0.7833,1637
0.7861,1636
0.7889,1636
0.7917,1639
0.7944,1610
0.7972,1589
0.8000,1570
0.8028,1573
0.8056,1584
0.8083,1588
0.8111,1603
0.8139,1604
0.8167,1622
0.8194,1622
0.8222,1630
0.8250,1626
0.8278,1631
0.8306,1639
0.8333,1672
0.8361,1709
0.8389,1733
0.8417,1740
0.8444,1732
0.8472,1731
0.8500,1774
0.8528,1842
0.8556,1958
0.8583,2080
0.8611,2169
0.8639,2202
0.8667,2132
0.8694,1994
0.8722,1855
0.8750,1770
0.8778,1741
0.8806,1713
0.8833,1638
0.8861,1522
0.8889,1409
0.8917,1320
0.8944,1308
0.8972,1368
0.9000,1501
0.9028,1641
0.9056,1741
0.9083,1799
0.9111,1808
0.9139,1794
0.9167,1787
0.9194,1790
0.9222,1796
0.9250,1803
0.9278,1825
0.9306,1826
0.9333,1828
0.9361,1821
0.9389,1813
0.9417,1803
0.9444,1801
0.9472,1830
0.9500,1857
0.9528,1874
0.9556,1866
0.9583,1857
0.9611,1847
0.9639,1858
0.9667,1854
0.9694,1865
0.9722,1855
0.9750,1843
0.9778,1838
0.9806,1834
0.9833,1844
0.9861,1866
0.9889,1915
0.9917,1949
0.9944,1965
0.9972,1974
1.0000,1985
1.0028,1969
1.0056,1960
1.0083,1957
1.0111,1944
1.0139,1932
1.0167,1910
1.0194,1885
1.0222,1872
1.0250,1874
1.0278,1896
1.0306,1908
1.0333,1918
1.0361,1900
1.0389,1884
1.0417,1871
1.0444,1864
1.0472,1884
1.0500,1895
1.0528,1890
1.0556,1899
1.0583,1883
1.0611,1868
1.0639,1859
1.0667,1852
1.0694,1839
1.0722,1824
1.0750,1797
1.0778,1768
1.0806,1739
1.0833,1732
1.0861,1730
1.0889,1721
1.0917,1720
1.0944,1728
1.0972,1723
1.1000,1705
1.1028,1702
1.1056,1710
1.1083,1711
1.1111,1718
1.1139,1716
1.1167,1724
1.1194,1741
1.1222,1743
1.1250,1759
1.1278,1764
1.1306,1753
1.1333,1742
1.1361,1744
1.1389,1752
1.1417,1760
1.1444,1757
1.1472,1747
1.1500,1737
1.1528,1728
1.1556,1697
1.1583,1672
1.1611,1661
1.1639,1663
1.1667,1674
1.1694,1692
1.1722,1701
1.1750,1711
1.1778,1713
1.1806,1713
1.1833,1707
1.1861,1709
1.1889,1707
1.1917,1719
1.1944,1719
1.1972,1727
1.2000,1721
1.2028,1741
1.2056,1760
1.2083,1776
1.2111,1779
1.2139,1772
1.2167,1751
1.2194,1730
1.2222,1720
1.2250,1724
1.2278,1740
1.2306,1762
1.2333,1771
1.2361,1781
1.2389,1806
1.2417,1826
1.2444,1843
1.2472,1845
1.2500,1820
1.2528,1780
1.2556,1739
1.2583,1732
1.2611,1720
1.2639,1700
1.2667,1683
1.2694,1692
1.2722,1691
1.2750,1691
1.2778,1726
1.2806,1737
1.2833,1752
1.2861,1757
1.2889,1755
1.2917,1736
1.2944,1712
1.2972,1684
1.3000,1669
1.3028,1667
1.3056,1663
1.3083,1674
1.3111,1675
1.3139,1686
1.3167,1696
1.3194,1697
1.3222,1701
1.3250,1691
1.3278,1703
1.3306,1703
1.3333,1703
1.3361,1690
1.3389,1688
1.3417,1675
1.3444,1658
1.3472,1655
1.3500,1641
1.3528,1650
1.3556,1647
1.3583,1653
1.3611,1662
1.3639,1662
1.3667,1668
1.3694,1661
1.3722,1641
1.3750,1616
1.3778,1597
1.3806,1584
1.3833,1561
1.3861,1543
1.3889,1550
1.3917,1568
1.3944,1587
1.3972,1612
1.4000,1618
1.4028,1622
1.4056,1610
1.4083,1619
1.4111,1631
1.4139,1633
1.4167,1623
1.4194,1610
1.4222,1595
1.4250,1603
1.4278,1617
1.4306,1642
1.4333,1664
1.4361,1655
1.4389,1645
1.4417,1631
1.4444,1624
1.4472,1594
1.4500,1589
1.4528,1589
1.4556,1609
1.4583,1629
1.4611,1660
1.4639,1677
1.4667,1676
1.4694,1656
1.4722,1622
1.4750,1597
1.4778,1602
1.4806,1629
1.4833,1674
1.4861,1722
1.4889,1783
1.4917,1812
1.4944,1806
1.4972,1785
1.5000,1779
1.5028,1793
1.5056,1813
1.5083,1828
1.5111,1812
1.5139,1785
1.5167,1751
1.5194,1726
1.5222,1733
1.5250,1757
1.5278,1785
1.5306,1793
1.5333,1792
1.5361,1781
1.5389,1768
1.5417,1733
1.5444,1700
1.5472,1694
1.5500,1687
1.5528,1689
1.5556,1701
1.5583,1717
1.5611,1738
1.5639,1766
1.5667,1773
1.5694,1781
1.5722,1786
1.5750,1792
1.5778,1799
1.5806,1804
1.5833,1820
1.5861,1834
1.5889,1842
1.5917,1855
1.5944,1852
1.5972,1850
1.6000,1841
1.6028,1820
1.6056,1773
1.6083,1764
1.6111,1787
1.6139,1848
1.6167,1943
1.6194,2065
1.6222,2182
1.6250,2250
1.6278,2248
1.6306,2145
1.6333,2006
1.6361,1874
1.6389,1752
1.6417,1641
1.6444,1529
1.6472,1427
1.6500,1367
1.6528,1363
1.6556,1379
1.6583,1435
1.6611,1510
1.6639,1586
1.6667,1651
1.6694,1685
1.6722,1708
1.6750,1719
1.6778,1732
1.6806,1739
1.6833,1759
1.6861,1776
1.6889,1777
1.6917,1794
1.6944,1810
1.6972,1819
1.7000,1813
1.7028,1823
1.7056,1824
1.7083,1831
1.7111,1847
1.7139,1843
1.7167,1830
1.7194,1828
1.7222,1826
1.7250,1832
1.7278,1849
1.7306,1865
1.7333,1885
1.7361,1881
1.7389,1853
1.7417,1822
1.7444,1803
1.7472,1793
1.7500,1786
1.7528,1784
1.7556,1795
1.7583,1812
1.7611,1821
1.7639,1857
1.7667,1893
1.7694,1908
1.7722,1889
1.7750,1851
1.7778,1800
1.7806,1759
1.7833,1733
1.7861,1732
1.7889,1760
1.7917,1790
1.7944,1812
1.7972,1804
1.8000,1800
1.8028,1798
1.8056,1788
1.8083,1800
1.8111,1813
1.8139,1831
1.8167,1858
1.8194,1879
1.8222,1879
1.8250,1875
1.8278,1873
1.8306,1879
1.8333,1704
1.8361,1717
1.8389,1716
1.8417,1707
1.8444,1695
1.8472,1703
1.8500,1681
1.8528,1674
1.8556,1658
1.8583,1637
1.8611,1609
1.8639,1585
1.8667,1576
1.8694,1570
1.8722,1574
1.8750,1598
1.8778,1608
1.8806,1611
1.8833,1588
1.8861,1568
1.8889,1553
1.8917,1549
1.8944,1551
1.8972,1551
1.9000,1542
1.9028,1536
1.9056,1518
1.9083,1526
1.9111,1523
1.9139,1555
1.9167,1580
1.9194,1589
1.9222,1582
1.9250,1552
1.9278,1518
1.9306,1495
1.9333,1503
1.9361,1522
1.9389,1554
1.9417,1558
1.9444,1565
1.9472,1568
1.9500,1573
1.9528,1574
1.9556,1575
1.9583,1585
1.9611,1589
1.9639,1594
1.9667,1606
1.9694,1630
1.9722,1644
1.9750,1659
1.9778,1683
1.9806,1692
1.9833,1695
1.9861,1676
1.9889,1661
1.9917,1643
1.9944,1639
1.9972,1659
2.0000,1664
2.0028,1663
2.0056,1651
2.0083,1664
2.0111,1673
2.0139,1700
2.0167,1714
2.0194,1726
2.0222,1735
2.0250,1758
2.0278,1781
2.0306,1809
2.0333,1834
2.0361,1837
2.0389,1834
2.0417,1824
2.0444,1832
2.0472,1839
2.0500,1845
2.0528,1845
2.0556,1835
2.0583,1817
2.0611,1790
2.0639,1768
2.0667,1774
2.0694,1751
2.0722,1733
2.0750,1722
2.0778,1736
2.0806,1733
2.0833,1736
2.0861,1737
2.0889,1722
2.0917,1707
2.0944,1682
2.0972,1643
2.1000,1606
2.1028,1597
2.1056,1611
2.1083,1632
2.1111,1641
2.1139,1652
2.1167,1663
2.1194,1667
2.1222,1668
2.1250,1646
2.1278,1615
2.1306,1590
2.1333,1584
2.1361,1585
2.1389,1595
2.1417,1595
2.1444,1600
2.1472,1628
2.1500,1647
2.1528,1654
2.1556,1655
2.1583,1653
2.1611,1635
2.1639,1636
2.1667,1640
2.1694,1672
2.1722,1721
2.1750,1770
2.1778,1807
2.1806,1827
2.1833,1820
2.1861,1795
2.1889,1772
2.1917,1754
2.1944,1744
2.1972,1749
2.2000,1756
2.2028,1740
2.2056,1729
2.2083,1721
2.2111,1727
2.2139,1736
2.2167,1751
2.2194,1759
2.2222,1739
2.2250,1724
2.2278,1690
2.2306,1682
2.2333,1670
2.2361,1672
2.2389,1677
2.2417,1658
2.2444,1675
2.2472,1678
2.2500,1669
2.2528,1658
2.2556,1641
2.2583,1633
2.2611,1628
2.2639,1631
2.2667,1640
2.2694,1647
2.2722,1672
2.2750,1660
2.2778,1645
2.2806,1613
2.2833,1593
2.2861,1588
2.2889,1592
2.2917,1610
2.2944,1624
2.2972,1658
2.3000,1698
2.3028,1719
2.3056,1727
2.3083,1734
2.3111,1758
2.3139,1762
2.3167,1769
2.3194,1777
2.3222,1783
2.3250,1787
2.3278,1803
2.3306,1804
2.3333,1785
2.3361,1775
2.3389,1750
2.3417,1739
2.3444,1736
2.3472,1719
2.3500,1693
2.3528,1683
2.3556,1670
2.3583,1655
2.3611,1639
2.3639,1630
2.3667,1642
2.3694,1648
2.3722,1653
2.3750,1649
2.3778,1633
2.3806,1599
2.3833,1572
2.3861,1564
2.3889,1572
2.3917,1591
2.3944,1606
2.3972,1606
2.4000,1616
2.4028,1611
2.4056,1616
2.4083,1616
2.4111,1617
2.4139,1620
2.4167,1635
2.4194,1658
2.4222,1664
2.4250,1666
2.4278,1667
2.4306,1682
2.4333,1702
2.4361,1758
2.4389,1867
2.4417,2004
2.4444,2145
2.4472,2229
2.4500,2185
2.4528,2090
2.4556,1946
2.4583,1817
2.4611,1686
2.4639,1563
2.4667,1460
2.4694,1377
2.4722,1321
2.4750,1315
2.4778,1321
2.4806,1353
2.4833,1412
2.4861,1497
2.4889,1581
2.4917,1649
2.4944,1682
2.4972,1699
2.5000,1695
2.5028,1688
2.5056,1674
2.5083,1659
2.5111,1659
2.5139,1647
2.5167,1646
2.5194,1649
2.5222,1651
2.5250,1666
2.5278,1673
2.5306,1685
2.5333,1702
2.5361,1729
2.5389,1740
2.5417,1743
2.5444,1718
2.5472,1695
2.5500,1691
2.5528,1687
2.5556,1676
2.5583,1670
2.5611,1669
2.5639,1664
2.5667,1659
2.5694,1651
2.5722,1676
2.5750,1688
2.5778,1691
2.5806,1673
2.5833,1663
2.5861,1653
2.5889,1660
2.5917,1657
2.5944,1656
2.5972,1641
2.6000,1634
2.6028,1632
2.6056,1631
2.6083,1648
2.6111,1652
2.6139,1666
2.6167,1664
2.6194,1666
2.6222,1666
2.6250,1668
2.6278,1683
2.6306,1696
2.6333,1690
2.6361,1690
2.6389,1691
2.6417,1691
2.6444,1701
2.6472,1692
2.6500,1683
2.6528,1687
2.6556,1534
2.6583,1538
2.6611,1529
2.6639,1524
2.6667,1521
2.6694,1507
2.6722,1500
2.6750,1488
2.6778,1476
2.6806,1472
2.6833,1469
2.6861,1465
2.6889,1451
2.6917,1427
2.6944,1415
2.6972,1409
2.7000,1420
2.7028,1422
2.7056,1421
2.7083,1416
2.7111,1408
2.7139,1404
2.7167,1420
2.7194,1429
2.7222,1451
2.7250,1456
2.7278,1456
2.7306,1478
2.7333,1510
2.7361,1542
2.7389,1573
2.7417,1579
2.7444,1603
2.7472,1619
2.7500,1641
2.7528,1664
2.7556,1697
2.7583,1716
2.7611,1718
2.7639,1700
2.7667,1660
2.7694,1637
2.7722,1628
2.7750,1642
2.7778,1657
2.7806,1672
2.7833,1684
2.7861,1688
2.7889,1700
2.7917,1694
2.7944,1687
2.7972,1676
2.8000,1669
2.8028,1672
2.8056,1680
2.8083,1688
2.8111,1705
2.8139,1714
2.8167,1719
2.8194,1711
2.8222,1701
2.8250,1716
2.8278,1738
2.8306,1741
2.8333,1727
2.8361,1720
2.8389,1717
2.8417,1717
2.8444,1725
2.8472,1735
2.8500,1733
2.8528,1734
2.8556,1731
2.8583,1715
2.8611,1725
2.8639,1740
2.8667,1745
2.8694,1765
2.8722,1780
2.8750,1802
2.8778,1813
2.8806,1812
2.8833,1795
2.8861,1794
2.8889,1787
2.8917,1799
2.8944,1807
2.8972,1812
2.9000,1817
2.9028,1833
2.9056,1849
2.9083,1862
2.9111,1875
2.9139,1880
2.9167,1881
2.9194,1889
2.9222,1899
2.9250,1901
2.9278,1900
2.9306,1900
2.9333,1889
2.9361,1870
2.9389,1836
2.9417,1819
2.9444,1811
2.9472,1823
2.9500,1841
2.9528,1858
2.9556,1862
2.9583,1865
2.9611,1863
2.9639,1859
2.9667,1850
2.9694,1852
2.9722,1856
2.9750,1876
2.9778,1867
2.9806,1849
2.9833,1822
2.9861,1793
2.9889,1773
2.9917,1766
2.9944,1773
2.9972,1801
3.0000,1833
3.0028,1842
3.0056,1857
3.0083,1851
3.0111,1849
3.0139,1839
3.0167,1820
3.0194,1781
3.0222,1745
3.0250,1705
3.0278,1694
3.0306,1718
3.0333,1749
3.0361,1768
3.0389,1799
3.0417,1806
3.0444,1805
3.0472,1801
3.0500,1793
3.0528,1805
3.0556,1811
3.0583,1807
3.0611,1800
3.0639,1788
3.0667,1783
3.0694,1788
3.0722,1771
3.0750,1775
3.0778,1787
3.0806,1789
3.0833,1785
3.0861,1783
3.0889,1780
3.0917,1779
3.0944,1786
3.0972,1821
3.1000,1837
3.1028,1830
3.1056,1807
3.1083,1777
3.1111,1739
3.1139,1723
3.1167,1724
3.1194,1745
3.1222,1786
3.1250,1828
3.1278,1846
3.1306,1850
3.1333,1854
3.1361,1841
3.1389,1834
3.1417,1821
3.1444,1820
3.1472,1824
3.1500,1852
3.1528,1878
3.1556,1888
3.1583,1878
3.1611,1865
3.1639,1838
3.1667,1825
3.1694,1820
3.1722,1812
3.1750,1800
3.1778,1796
3.1806,1795
3.1833,1778
3.1861,1773
3.1889,1772
3.1917,1769
3.1944,1753
3.1972,1725
3.2000,1696
3.2028,1677
3.2056,1679
3.2083,1680
3.2111,1690
3.2139,1688
3.2167,1703
3.2194,1726
3.2222,1729
3.2250,1717
3.2278,1700
3.2306,1698
3.2333,1693
3.2361,1707
3.2389,1732
3.2417,1743
3.2444,1720
3.2472,1691
3.2500,1671
3.2528,1674
3.2556,1708
3.2583,1822
3.2611,1976
3.2639,2137
3.2667,2244
3.2694,2262
3.2722,2166
3.2750,2004
3.2778,1863
3.2806,1757
3.2833,1674
3.2861,1596
3.2889,1501
3.2917,1384
3.2944,1296
3.2972,1244
3.3000,1232
3.3028,1281
3.3056,1390
3.3083,1508
3.3111,1609
3.3139,1667
3.3167,1705
3.3194,1693
3.3222,1672
3.3250,1672
3.3278,1698
3.3306,1728
3.3333,1770
3.3361,1795
3.3389,1800
3.3417,1795
3.3444,1788
3.3472,1792
3.3500,1808
3.3528,1845
3.3556,1884
3.3583,1924
3.3611,1968
3.3639,2015
3.3667,2018
3.3694,1995
3.3722,1990
3.3750,1991
3.3778,2008
3.3806,2011
3.3833,2021
3.3861,2014
3.3889,2034
3.3917,2055
3.3944,2081
3.3972,2094
3.4000,2112
3.4028,2119
3.4056,2128
3.4083,2143
3.4111,2152
3.4139,2172
3.4167,2182
3.4194,2176
3.4222,2172
3.4250,2173
3.4278,2160
3.4306,2159
3.4333,2196
3.4361,2216
3.4389,2224
3.4417,2229
3.4444,2222
3.4472,2232
3.4500,2233
3.4528,2247
3.4556,2246
3.4583,2332
3.4611,2320
3.4639,2327
3.4667,2315
3.4694,2308
3.4722,2292
3.4750,2276
3.4778,2260
3.4806,2251
3.4833,2222
3.4861,2182
3.4889,2151
3.4917,2132
3.4944,2098
3.4972,2085
3.5000,2057
3.5028,2020
3.5056,2004
3.5083,1990
3.5111,1971
3.5139,1961
3.5167,1940
3.5194,1929
3.5222,1918
3.5250,1884
3.5278,1862
3.5306,1844
3.5333,1844
3.5361,1835
3.5389,1824
3.5417,1829
3.5444,1800
3.5472,1789
3.5500,1782
3.5528,1774
3.5556,1757
3.5583,1773
3.5611,1772
3.5639,1758
3.5667,1735
3.5694,1705
3.5722,1689
3.5750,1667
3.5778,1680
3.5806,1706
3.5833,1723
3.5861,1737
3.5889,1734
3.5917,1727
3.5944,1703
3.5972,1690
3.6000,1685
3.6028,1686
3.6056,1698
3.6083,1705
3.6111,1708
3.6139,1699
3.6167,1692
3.6194,1677
3.6222,1670
3.6250,1675
3.6278,1688
3.6306,1706
3.6333,1724
3.6361,1727
3.6389,1723
3.6417,1695
3.6444,1683
3.6472,1681
3.6500,1709
3.6528,1720
3.6556,1752
3.6583,1766
3.6611,1759
3.6639,1733
3.6667,1694
3.6694,1659
3.6722,1651
3.6750,1664
3.6778,1677
3.6806,1700
3.6833,1733
3.6861,1737
3.6889,1740
3.6917,1717
3.6944,1685
3.6972,1664
3.7000,1641
3.7028,1631
3.7056,1622
3.7083,1638
3.7111,1651
3.7139,1682
3.7167,1708
3.7194,1716
3.7222,1718
3.7250,1709
3.7278,1708
3.7306,1699
3.7333,1685
3.7361,1683
3.7389,1677
3.7417,1678
3.7444,1675
3.7472,1684
3.7500,1692
3.7528,1724
3.7556,1750
3.7583,1776
3.7611,1760
3.7639,1731
3.7667,1683
3.7694,1655
3.7722,1645
3.7750,1655
3.7778,1679
3.7806,1686
3.7833,1694
3.7861,1694
3.7889,1690
3.7917,1689
3.7944,1681
3.7972,1673
3.8000,1666
3.8028,1666
3.8056,1672
3.8083,1687
3.8111,1701
3.8139,1720
3.8167,1716
3.8194,1713
3.8222,1697
3.8250,1692
3.8278,1680
3.8306,1680
3.8333,1694
3.8361,1702
3.8389,1708
3.8417,1706
3.8444,1698
3.8472,1691
3.8500,1694
3.8528,1695
3.8556,1699
3.8583,1715
3.8611,1751
3.8639,1768
3.8667,1768
3.8694,1745
3.8722,1712
3.8750,1682
3.8778,1676
3.8806,1670
3.8833,1675
3.8861,1692
3.8889,1704
3.8917,1721
3.8944,1720
3.8972,1710
3.9000,1705
3.9028,1701
3.9056,1710
3.9083,1715
3.9111,1730
3.9139,1729
3.9167,1738
3.9194,1750
3.9222,1765
3.9250,1789
3.9278,1798
3.9306,1801
3.9333,1802
3.9361,1809
3.9389,1798
3.9417,1801
3.9444,1803
3.9472,1821
3.9500,1841
3.9528,1847
3.9556,1831
3.9583,1798
3.9611,1781
3.9639,1752
3.9667,1754
3.9694,1756
3.9722,1763
3.9750,1766
3.9778,1758
3.9806,1723
3.9833,1692
3.9861,1654
3.9889,1641
3.9917,1635
3.9944,1645
3.9972,1644
4.0000,1633
4.0028,1608
4.0056,1594
4.0083,1593
4.0111,1586
4.0139,1606
4.0167,1617
4.0194,1625
4.0222,1632
4.0250,1622
4.0278,1614
4.0306,1609
4.0333,1628
4.0361,1652
4.0389,1655
4.0417,1635
4.0444,1624
4.0472,1644
4.0500,1669
4.0528,1730
4.0556,1816
4.0583,1918
4.0611,2020
4.0639,2080
4.0667,2056
4.0694,1969
4.0722,1871
4.0750,1804
4.0778,1739
4.0806,1685
4.0833,1606
4.0861,1517
4.0889,1418
4.0917,1354
4.0944,1304
4.0972,1311
4.1000,1359
4.1028,1441
4.1056,1522
4.1083,1581
4.1111,1612
4.1139,1616
4.1167,1622
4.1194,1627
4.1222,1623
4.1250,1620
4.1278,1630
4.1306,1662
4.1333,1680
4.1361,1684
4.1389,1660
4.1417,1636
4.1444,1626
4.1472,1646
4.1500,1675
4.1528,1689
4.1556,1697
4.1583,1688
4.1611,1674
4.1639,1668
4.1667,1684
4.1694,1715
4.1722,1730
4.1750,1739
4.1778,1741
4.1806,1754
4.1833,1791
4.1861,1794
4.1889,1779
4.1917,1742
4.1944,1721
4.1972,1682
4.2000,1657
4.2028,1655
4.2056,1668
4.2083,1691
4.2111,1715
4.2139,1736
4.2167,1749
4.2194,1746
4.2222,1752
4.2250,1767
4.2278,1767
4.2306,1754
4.2333,1753
4.2361,1741
4.2389,1739
4.2417,1753
4.2444,1756
4.2472,1744
4.2500,1736
4.2528,1794
4.2556,1792
4.2583,1792
4.2611,1791
4.2639,1782
4.2667,1769
4.2694,1747
4.2722,1755
4.2750,1754
4.2778,1751
4.2806,1747
4.2833,1727
4.2861,1717
4.2889,1704
4.2917,1712
4.2944,1713
4.2972,1711
4.3000,1718
4.3028,1716
4.3056,1710
4.3083,1720
4.3111,1730
4.3139,1731
4.3167,1714
4.3194,1687
4.3222,1661
4.3250,1644
4.3278,1628
4.3306,1599
4.3333,1569
4.3361,1546
4.3389,1526
4.3417,1526
4.3444,1541
4.3472,1550
4.3500,1564
4.3528,1584
4.3556,1591
4.3583,1608
4.3611,1613
4.3639,1606
4.3667,1609
4.3694,1604
4.3722,1599
4.3750,1609
4.3778,1610
4.3806,1612
4.3833,1612
4.3861,1629
4.3889,1639
4.3917,1643
4.3944,1659
4.3972,1675
4.4000,1669
4.4028,1677
4.4056,1684
4.4083,1712
4.4111,1712
4.4139,1705
4.4167,1673
4.4194,1638
4.4222,1618
4.4250,1635
4.4278,1637
4.4306,1661
4.4333,1693
4.4361,1701
4.4389,1708
4.4417,1724
4.4444,1714
4.4472,1707
4.4500,1700
4.4528,1701
4.4556,1710
4.4583,1719
4.4611,1728
4.4639,1708
4.4667,1699
4.4694,1700
4.4722,1707
4.4750,1717
4.4778,1721
4.4806,1722
4.4833,1726
4.4861,1744
4.4889,1743
4.4917,1732
4.4944,1718
4.4972,1709
4.5000,1725
4.5028,1745
4.5056,1766
4.5083,1774
4.5111,1767
4.5139,1757
4.5167,1768
4.5194,1794
4.5222,1805
4.5250,1784
4.5278,1757
4.5306,1713
4.5333,1697
4.5361,1705
4.5389,1728
4.5417,1751
4.5444,1772
4.5472,1785
4.5500,1807
4.5528,1808
4.5556,1816
4.5583,1812
4.5611,1811
4.5639,1806
4.5667,1801
4.5694,1788
4.5722,1799
4.5750,1804
4.5778,1823
4.5806,1840
4.5833,1860
4.5861,1859
4.5889,1862
4.5917,1839
4.5944,1831
4.5972,1810
4.6000,1805
4.6028,1815
4.6056,1839
4.6083,1869
4.6111,1896
4.6139,1903
4.6167,1886
4.6194,1856
4.6222,1816
4.6250,1781
4.6278,1776
4.6306,1789
4.6333,1802
4.6361,1838
4.6389,1859
4.6417,1862
4.6444,1860
4.6472,1853
4.6500,1848
4.6528,1855
4.6556,1861
4.6583,1860
4.6611,1853
4.6639,1850
4.6667,1845
4.6694,1839
4.6722,1830
4.6750,1812
4.6778,1805
4.6806,1793
4.6833,1783
4.6861,1751
4.6889,1733
4.6917,1725
4.6944,1703
4.6972,1677
4.7000,1672
4.7028,1675
4.7056,1658
4.7083,1648
4.7111,1641
4.7139,1646
4.7167,1657
4.7194,1649
4.7222,1639
4.7250,1629
4.7278,1615
4.7306,1599
4.7333,1586
4.7361,1576
4.7389,1583
4.7417,1578
4.7444,1598
4.7472,1618
4.7500,1651
4.7528,1687
4.7556,1674
4.7583,1644
4.7611,1617
4.7639,1595
4.7667,1622
4.7694,1706
4.7722,1849
4.7750,2001
4.7778,2119
4.7806,2163
4.7833,2116
4.7861,1999
4.7889,1886
4.7917,1793
4.7944,1725
4.7972,1652
4.8000,1570
4.8028,1488
4.8056,1415
4.8083,1382
4.8111,1372
4.8139,1406
4.8167,1464
4.8194,1551
4.8222,1597
4.8250,1624
4.8278,1639
4.8306,1635
4.8333,1625
4.8361,1620
4.8389,1631
4.8417,1635
4.8444,1644
4.8472,1653
4.8500,1637
4.8528,1625
4.8556,1616
4.8583,1635
4.8611,1645
4.8639,1667
4.8667,1685
4.8694,1683
4.8722,1678
4.8750,1674
4.8778,1678
4.8806,1684
4.8833,1703
4.8861,1737
4.8889,1747
4.8917,1755
4.8944,1748
4.8972,1730
4.9000,1720
4.9028,1709
4.9056,1717
4.9083,1734
4.9111,1747
4.9139,1752
4.9167,1730
4.9194,1715
4.9222,1711
4.9250,1724
4.9278,1747
4.9306,1747
4.9333,1727
4.9361,1699
4.9389,1692
4.9417,1678
4.9444,1668
4.9472,1679
4.9500,1686
4.9528,1694
4.9556,1694
4.9583,1684
4.9611,1686
4.9639,1692
4.9667,1708
4.9694,1780
4.9722,1774
4.9750,1785
4.9778,1800
4.9806,1808
4.9833,1793
4.9861,1775
4.9889,1774
4.9917,1767
4.9944,1759
4.9972,1758
5.0000,1758
5.0028,1760
5.0056,1764
5.0083,1755
5.0111,1736
5.0139,1722
5.0167,1722
5.0194,1726
5.0222,1726
5.0250,1729
5.0278,1723
5.0306,1711
5.0333,1697
5.0361,1694
5.0389,1696
5.0417,1704
5.0444,1711
5.0472,1732
5.0500,1740
5.0528,1738
5.0556,1738
5.0583,1746
5.0611,1757
5.0639,1761
5.0667,1757
5.0694,1731
5.0722,1690
5.0750,1665
5.0778,1670
5.0806,1695
5.0833,1715
5.0861,1743
5.0889,1755
5.0917,1740
5.0944,1714
5.0972,1686
5.1000,1673
5.1028,1672
5.1056,1691
5.1083,1690
5.1111,1697
5.1139,1716
5.1167,1729
5.1194,1744
5.1222,1750
5.1250,1750
5.1278,1761
5.1306,1764
5.1333,1775
5.1361,1790
5.1389,1810
5.1417,1793
5.1444,1774
5.1472,1761
5.1500,1765
5.1528,1769
5.1556,1783
5.1583,1786
5.1611,1788
5.1639,1762
5.1667,1739
5.1694,1726
5.1722,1724
5.1750,1715
5.1778,1715
5.1806,1719
5.1833,1714
5.1861,1713
5.1889,1718
5.1917,1740
5.1944,1746
5.1972,1736
5.2000,1715
5.2028,1707
5.2056,1694
5.2083,1678
5.2111,1666
5.2139,1677
5.2167,1696
5.2194,1698
5.2222,1716
5.2250,1729
5.2278,1739
5.2306,1760
5.2333,1763
5.2361,1758
5.2389,1747
5.2417,1737
5.2444,1735
5.2472,1755
5.2500,1772
5.2528,1790
5.2556,1797
5.2583,1801
5.2611,1793
5.2639,1801
5.2667,1793
5.2694,1775
5.2722,1758
5.2750,1724
5.2778,1696
5.2806,1676
5.2833,1685
5.2861,1695
5.2889,1705
5.2917,1727
5.2944,1742
5.2972,1758
5.3000,1769
5.3028,1756
5.3056,1742
5.3083,1713
5.3111,1693
5.3139,1683
5.3167,1693
5.3194,1708
5.3222,1726
5.3250,1750
5.3278,1774
5.3306,1771
5.3333,1757
5.3361,1741
5.3389,1726
5.3417,1718
5.3444,1709
5.3472,1715
5.3500,1728
5.3528,1739
5.3556,1754
5.3583,1771
5.3611,1791
5.3639,1794
5.3667,1785
5.3694,1780
5.3722,1792
5.3750,1806
5.3778,1824
5.3806,1827
5.3833,1834
5.3861,1848
5.3889,1854
5.3917,1841
5.3944,1833
5.3972,1832
5.4000,1820
5.4028,1823
5.4056,1832
5.4083,1848
5.4111,1834
5.4139,1806
5.4167,1757
5.4194,1714
5.4222,1680
5.4250,1676
5.4278,1676
5.4306,1666
5.4333,1649
5.4361,1670
5.4389,1688
5.4417,1699
5.4444,1682
5.4472,1666
5.4500,1653
5.4528,1647
5.4556,1630
5.4583,1636
5.4611,1639
5.4639,1631
5.4667,1636
5.4694,1644
5.4722,1665
5.4750,1660
5.4778,1658
5.4806,1664
5.4833,1680
5.4861,1688
5.4889,1685
5.4917,1670
5.4944,1671
5.4972,1700
5.5000,1737
5.5028,1809
5.5056,1915
5.5083,2031
5.5111,2123
5.5139,2165
5.5167,2129
5.5194,2032
5.5222,1922
5.5250,1827
5.5278,1730
5.5306,1631
5.5333,1526
5.5361,1432
5.5389,1357
5.5417,1317
5.5444,1323
5.5472,1369
5.5500,1473
5.5528,1580
5.5556,1661
5.5583,1708
5.5611,1711
5.5639,1706
5.5667,1688
5.5694,1670
5.5722,1656
5.5750,1686
5.5778,1721
5.5806,1735
5.5833,1726
5.5861,1691
5.5889,1648
5.5917,1616
5.5944,1609
5.5972,1614
5.6000,1645
5.6028,1678
5.6056,1711
5.6083,1720
5.6111,1724
5.6139,1728
5.6167,1731
5.6194,1732
5.6222,1738
5.6250,1742
5.6278,1733
5.6306,1714
5.6333,1703
5.6361,1722
5.6389,1740
5.6417,1767
5.6444,1786
5.6472,1760
5.6500,1723
5.6528,1697
5.6556,1719
5.6583,1759
5.6611,1802
5.6639,1811
5.6667,1779
5.6694,1715
5.6722,1667
5.6750,1674
5.6778,1704
5.6806,1760
5.6833,1793
5.6861,1805
5.6889,1780
5.6917,1747
5.6944,1727
5.6972,1704
5.7000,1690
5.7028,1698
5.7056,1722
5.7083,1760
5.7111,1772
5.7139,1774
5.7167,1764
5.7194,1749
5.7222,1743
5.7250,1744
5.7278,1736
5.7306,1727
5.7333,1728
5.7361,1745
5.7389,1758
5.7417,1768
5.7444,1776
5.7472,1753
5.7500,1721
5.7528,1695
5.7556,1682
5.7583,1671
5.7611,1674
5.7639,1672
5.7667,1679
5.7694,1691
5.7722,1723
5.7750,1766
5.7778,1782
5.7806,1752
5.7833,1687
5.7861,1638
5.7889,1593
5.7917,1574
5.7944,1589
5.7972,1607
5.8000,1629
5.8028,1654
5.8056,1678
5.8083,1671
5.8111,1670
5.8139,1672
5.8167,1674
5.8194,1680
5.8222,1693
5.8250,1707
5.8278,1721
5.8306,1731
5.8333,1735
5.8361,1709
5.8389,1690
5.8417,1679
5.8444,1694
5.8472,1712
5.8500,1734
5.8528,1732
5.8556,1741
5.8583,1730
5.8611,1733
5.8639,1724
5.8667,1710
5.8694,1718
5.8722,1722
5.8750,1713
5.8778,1686
5.8806,1665
5.8833,1669
5.8861,1667
5.8889,1683
5.8917,1700
5.8944,1729
5.8972,1742
5.9000,1739
5.9028,1722
5.9056,1718
5.9083,1710
5.9111,1721
5.9139,1729
5.9167,1743
5.9194,1746
5.9222,1752
5.9250,1766
5.9278,1758
5.9306,1764
5.9333,1766
5.9361,1753
5.9389,1733
5.9417,1709
5.9444,1687
5.9472,1683
5.9500,1691
5.9528,1694
5.9556,1712
5.9583,1722
5.9611,1713
5.9639,1709
5.9667,1704
5.9694,1695
5.9722,1697
5.9750,1710
5.9778,1728
5.9806,1744
5.9833,1742
5.9861,1738
5.9889,1727
5.9917,1709
5.9944,1721
5.9972,1743
6.0000,1763
6.0028,1782
6.0056,1770
6.0083,1765
6.0111,1752
6.0139,1744
6.0167,1728
6.0194,1714
6.0222,1706
6.0250,1701
6.0278,1722
6.0306,1742
6.0333,1753
6.0361,1755
6.0389,1736
6.0417,1725
6.0444,1709
6.0472,1699
6.0500,1694
6.0528,1718
6.0556,1747
6.0583,1756
6.0611,1763
6.0639,1771
6.0667,1778
6.0694,1787
6.0722,1783
6.0750,1761
6.0778,1732
6.0806,1733
6.0833,1763
6.0861,1811
6.0889,1854
6.0917,1864
6.0944,1845
6.0972,1817
6.1000,1813
6.1028,1805
6.1056,1819
6.1083,1833
6.1111,1848
6.1139,1855
6.1167,1868
6.1194,1872
6.1222,1887
6.1250,1898
6.1278,1899
6.1306,1898
6.1333,1894
6.1361,1901
6.1389,1909
6.1417,1906
6.1444,1900
6.1472,1883
6.1500,1860
6.1528,1836
6.1556,1801
6.1583,1788
6.1611,1768
6.1639,1773
6.1667,1769
6.1694,1755
6.1722,1752
6.1750,1773
6.1778,1798
6.1806,1810
6.1833,1813
6.1861,1807
6.1889,1773
6.1917,1753
6.1944,1709
6.1972,1676
6.2000,1660
6.2028,1671
6.2056,1692
6.2083,1707
6.2111,1711
6.2139,1716
6.2167,1717
6.2194,1743
6.2222,1753
6.2250,1748
6.2278,1723
6.2306,1701
6.2333,1680
6.2361,1708
6.2389,1791
6.2417,1905
6.2444,2046
6.2472,2162
6.2500,2201
6.2528,2165
6.2556,2063
6.2583,1955
6.2611,1886
6.2639,1841
6.2667,1787
6.2694,1704
6.2722,1597
6.2750,1471
6.2778,1369
6.2806,1327
6.2833,1356
6.2861,1459
6.2889,1574
6.2917,1658
6.2944,1701
6.2972,1699
6.3000,1681
6.3028,1674
6.3056,1670
6.3083,1675
6.3111,1687
6.3139,1706
6.3167,1725
6.3194,1726
6.3222,1713
6.3250,1689
6.3278,1678
6.3306,1686
6.3333,1713
6.3361,1735
6.3389,1750
6.3417,1756
6.3444,1759
6.3472,1755
6.3500,1766
6.3528,1765
6.3556,1768
6.3583,1762
6.3611,1751
6.3639,1732
6.3667,1730
6.3694,1738
6.3722,1737
6.3750,1764
6.3778,1786
6.3806,1804
6.3833,1801
6.3861,1778
6.3889,1760
6.3917,1751
6.3944,1757
6.3972,1765
6.4000,1753
6.4028,1758
6.4056,1758
6.4083,1754
6.4111,1758
6.4139,1776
6.4167,1792
6.4194,1798
6.4222,1791
6.4250,1802
6.4278,1809
6.4306,1796
6.4333,1789
6.4361,1779
6.4389,1815
6.4417,1797
6.4444,1813
6.4472,1822
6.4500,1823
6.4528,1826
6.4556,1831
6.4583,1835
6.4611,1840
6.4639,1839
6.4667,1816
6.4694,1793
6.4722,1760
6.4750,1757
6.4778,1756
6.4806,1747
6.4833,1738
6.4861,1739
6.4889,1757
6.4917,1775
6.4944,1770
6.4972,1761
6.5000,1743
6.5028,1732
6.5056,1744
6.5083,1724
6.5111,1700
6.5139,1688
6.5167,1688
6.5194,1687
6.5222,1689
6.5250,1695
6.5278,1697
6.5306,1684
6.5333,1691
6.5361,1698
6.5389,1696
6.5417,1700
6.5444,1695
6.5472,1701
6.5500,1720
6.5528,1731
6.5556,1737
6.5583,1731
6.5611,1711
6.5639,1686
6.5667,1665
6.5694,1678
6.5722,1698
6.5750,1720
6.5778,1744
6.5806,1755
6.5833,1753
6.5861,1742
6.5889,1734
6.5917,1730
6.5944,1730
6.5972,1738
6.6000,1739
6.6028,1730
6.6056,1720
6.6083,1718
6.6111,1731
6.6139,1753
6.6167,1764
6.6194,1773
6.6222,1793
6.6250,1804
6.6278,1804
6.6306,1797
6.6333,1763
6.6361,1710
6.6389,1676
6.6417,1648
6.6444,1648
6.6472,1657
6.6500,1685
6.6528,1704
6.6556,1689
6.6583,1687
6.6611,1702
6.6639,1719
6.6667,1729
6.6694,1717
6.6722,1732
6.6750,1726
6.6778,1725
6.6806,1724
6.6833,1712
6.6861,1697
6.6889,1718
6.6917,1737
6.6944,1777
6.6972,1791
6.7000,1784
6.7028,1754
6.7056,1724
6.7083,1706
6.7111,1718
6.7139,1726
6.7167,1735
6.7194,1742
6.7222,1751
6.7250,1755
6.7278,1749
6.7306,1757
6.7333,1749
6.7361,1740
6.7389,1730
6.7417,1722
6.7444,1709
6.7472,1697
6.7500,1688
6.7528,1707
6.7556,1723
6.7583,1739
6.7611,1754
6.7639,1741
6.7667,1707
6.7694,1696
6.7722,1686
6.7750,1689
6.7778,1704
6.7806,1719
6.7833,1726
6.7861,1720
6.7889,1712
6.7917,1716
6.7944,1722
6.7972,1718
6.8000,1716
6.8028,1719
6.8056,1716
6.8083,1720
6.8111,1742
6.8139,1760
6.8167,1767
6.8194,1762
6.8222,1746
6.8250,1740
6.8278,1736
6.8306,1746
6.8333,1739
6.8361,1738
6.8389,1771
6.8417,1820
6.8444,1837
6.8472,1850
6.8500,1851
6.8528,1869
6.8556,1879
6.8583,1882
6.8611,1860
6.8639,1836
6.8667,1826
6.8694,1842
6.8722,1855
6.8750,1860
6.8778,1849
6.8806,1834
6.8833,1795
6.8861,1752
6.8889,1736
6.8917,1732
6.8944,1745
6.8972,1738
6.9000,1741
6.9028,1721
6.9056,1703
6.9083,1699
6.9111,1708
6.9139,1707
6.9167,1704
6.9194,1705
6.9222,1717
6.9250,1723
6.9278,1730
6.9306,1749
6.9333,1745
6.9361,1723
6.9389,1688
6.9417,1657
6.9444,1663
6.9472,1678
6.9500,1696
6.9528,1734
6.9556,1761
6.9583,1742
6.9611,1706
6.9639,1660
6.9667,1644
6.9694,1669
6.9722,1724
6.9750,1825
6.9778,1955
6.9806,2074
6.9833,2133
6.9861,2136
6.9889,2068
6.9917,1979
6.9944,1896
6.9972,1837
7.0000,1798
7.0028,1736
7.0056,1654
7.0083,1562
7.0111,1479
7.0139,1414
7.0167,1380
7.0194,1406
7.0222,1483
7.0250,1593
7.0278,1699
7.0306,1782
7.0333,1807
7.0361,1801
7.0389,1762
7.0417,1710
7.0444,1696
7.0472,1704
7.0500,1704
7.0528,1696
7.0556,1688
7.0583,1687
7.0611,1704
7.0639,1706
7.0667,1694
7.0694,1688
7.0722,1694
7.0750,1711
7.0778,1741
7.0806,1756
7.0833,1748
7.0861,1751
7.0889,1745
7.0917,1745
7.0944,1740
7.0972,1733
7.1000,1722
7.1028,1723
7.1056,1746
7.1083,1790
7.1111,1830
7.1139,1856
7.1167,1855
7.1194,1826
7.1222,1782
7.1250,1760
7.1278,1758
7.1306,1771
7.1333,1815
7.1361,1847
7.1389,1846
7.1417,1835
7.1444,1802
7.1472,1780
7.1500,1763
7.1528,1751
7.1556,1763
7.1583,1800
7.1611,1831
7.1639,1849
7.1667,1843
7.1694,1826
7.1722,1815
7.1750,1830
7.1778,1820
7.1806,1787
7.1833,1789
7.1861,1796
7.1889,1814
7.1917,1815
7.1944,1798
7.1972,1775
7.2000,1782
7.2028,1784
7.2056,1799
7.2083,1797
7.2111,1783
7.2139,1777
7.2167,1761
7.2194,1737
7.2222,1722
7.2250,1724
7.2278,1728
7.2306,1730
7.2333,1725
7.2361,1707
7.2389,1717
7.2417,1716
7.2444,1726
7.2472,1713
7.2500,1710
7.2528,1706
7.2556,1711
7.2583,1702
7.2611,1708
7.2639,1715
7.2667,1715
7.2694,1735
7.2722,1741
7.2750,1747
7.2778,1748
7.2806,1746
7.2833,1728
7.2861,1718
7.2889,1715
7.2917,1726
7.2944,1742
7.2972,1756
7.3000,1760
7.3028,1735
7.3056,1730
7.3083,1717
7.3111,1686
7.3139,1672
7.3167,1666
7.3194,1688
7.3222,1724
7.3250,1771
7.3278,1803
7.3306,1825
7.3333,1827
7.3361,1804
7.3389,1785
7.3417,1759
7.3444,1728
7.3472,1732
7.3500,1738
7.3528,1739
7.3556,1751
7.3583,1761
7.3611,1774
7.3639,1780
7.3667,1786
7.3694,1777
7.3722,1773
7.3750,1749
7.3778,1741
7.3806,1727
7.3833,1709
7.3861,1706
7.3889,1723
7.3917,1747
7.3944,1778
7.3972,1787
7.4000,1762
7.4028,1741
7.4056,1716
7.4083,1696
7.4111,1689
7.4139,1706
7.4167,1727
7.4194,1756
7.4222,1746
7.4250,1713
7.4278,1669
7.4306,1657
7.4333,1667
7.4361,1700
7.4389,1724
7.4417,1732
7.4444,1726
7.4472,1726
7.4500,1741
7.4528,1756
7.4556,1754
7.4583,1723
7.4611,1697
7.4639,1685
7.4667,1711
7.4694,1742
7.4722,1774
7.4750,1785
7.4778,1784
7.4806,1776
7.4833,1782
7.4861,1802
7.4889,1838
7.4917,1857
7.4944,1865
7.4972,1854
7.5000,1837
7.5028,1806
7.5056,1796
7.5083,1776
7.5111,1798
7.5139,1830
7.5167,1831
7.5194,1831
7.5222,1821
7.5250,1789
7.5278,1759
7.5306,1724
7.5333,1718
7.5361,1726
7.5389,1734
7.5417,1738
7.5444,1713
7.5472,1678
7.5500,1647
7.5528,1620
7.5556,1611
7.5583,1622
7.5611,1633
7.5639,1644
7.5667,1655
7.5694,1659
7.5722,1651
7.5750,1634
7.5778,1631
7.5806,1644
7.5833,1685
7.5861,1713
7.5889,1707
7.5917,1678
7.5944,1652
7.5972,1637
7.6000,1640
7.6028,1658
7.6056,1650
7.6083,1617
7.6111,1607
7.6139,1620
7.6167,1693
7.6194,1797
7.6222,1932
7.6250,2067
7.6278,2149
7.6306,2153
7.6333,2075
7.6361,1938
7.6389,1790
7.6417,1695
7.6444,1661
7.6472,1634
7.6500,1603
7.6528,1547
7.6556,1484
7.6583,1423
7.6611,1373
7.6639,1359
7.6667,1382
7.6694,1465
7.6722,1588
7.6750,1681
7.6778,1739
7.6806,1748
7.6833,1724
7.6861,1687
7.6889,1662
7.6917,1661
7.6944,1662
7.6972,1673
7.7000,1682
7.7028,1700
7.7056,1714
7.7083,1725
7.7111,1730
7.7139,1730
7.7167,1713
7.7194,1695
7.7222,1691
7.7250,1685
7.7278,1674
7.7306,1690
7.7333,1722
7.7361,1741
7.7389,1751
7.7417,1753
7.7444,1742
7.7472,1744
7.7500,1744
7.7528,1741
7.7556,1742
7.7583,1738
7.7611,1741
7.7639,1724
7.7667,1698
7.7694,1667
7.7722,1649
7.7750,1670
7.7778,1704
7.7806,1734
7.7833,1755
7.7861,1770
7.7889,1771
7.7917,1774
7.7944,1788
7.7972,1797
7.8000,1803
7.8028,1806
7.8056,1809
7.8083,1815
7.8111,1811
7.8139,1790
7.8167,1776
7.8194,1814
7.8222,1815
7.8250,1821
7.8278,1827
7.8306,1822
7.8333,1822
7.8361,1821
7.8389,1822
7.8417,1844
7.8444,1859
7.8472,1846
7.8500,1837
7.8528,1821
7.8556,1809
7.8583,1823
7.8611,1829
7.8639,1825
7.8667,1829
7.8694,1832
7.8722,1802
7.8750,1750
7.8778,1696
7.8806,1658
7.8833,1650
7.8861,1655
7.8889,1666
7.8917,1683
7.8944,1695
7.8972,1687
7.9000,1663
7.9028,1638
7.9056,1649
7.9083,1705
7.9111,1768
7.9139,1793
7.9167,1809
7.9194,1807
7.9222,1800
7.9250,1776
7.9278,1747
7.9306,1731
7.9333,1728
7.9361,1737
7.9389,1768
7.9417,1801
7.9444,1808
7.9472,1817
7.9500,1818
7.9528,1820
7.9556,1815
7.9583,1793
7.9611,1783
7.9639,1773
7.9667,1766
7.9694,1786
7.9722,1814
7.9750,1840
7.9778,1849
7.9806,1829
7.9833,1796
7.9861,1735
7.9889,1694
7.9917,1671
7.9944,1671
7.9972,1694
8.0000,1715
8.0028,1720
8.0056,1724
8.0083,1714
8.0111,1712
8.0139,1731
8.0167,1753
8.0194,1781
8.0222,1804
8.0250,1806
8.0278,1799
8.0306,1784
8.0333,1774
8.0361,1764
8.0389,1772
8.0417,1784
8.0444,1783
8.0472,1777
8.0500,1776
8.0528,1783
8.0556,1784
8.0583,1784
8.0611,1775
8.0639,1766
8.0667,1757
8.0694,1771
8.0722,1796
8.0750,1819
8.0778,1827
8.0806,1828
8.0833,1818
8.0861,1796
8.0889,1774
8.0917,1770
8.0944,1796
8.0972,1815
8.1000,1831
8.1028,1845
8.1056,1845
8.1083,1835
8.1111,1826
8.1139,1831
8.1167,1843
8.1194,1849
8.1222,1864
8.1250,1862
8.1278,1879
8.1306,1875
8.1333,1861
8.1361,1821
8.1389,1787
8.1417,1760
8.1444,1749
8.1472,1739
8.1500,1743
8.1528,1722
8.1556,1712
8.1583,1697
8.1611,1704
8.1639,1695
8.1667,1688
8.1694,1666
8.1722,1655
8.1750,1655
8.1778,1678
8.1806,1698
8.1833,1707
8.1861,1696
8.1889,1681
8.1917,1656
8.1944,1640
8.1972,1633
8.2000,1643
8.2028,1669
8.2056,1687
8.2083,1695
8.2111,1703
8.2139,1672
8.2167,1631
8.2194,1604
8.2222,1592
8.2250,1610
8.2278,1700
8.2306,1811
8.2333,1951
8.2361,2061
8.2389,2112
8.2417,2085
8.2444,1991
8.2472,1870
8.2500,1772
8.2528,1738
8.2556,1710
8.2583,1661
8.2611,1590
8.2639,1517
8.2667,1459
8.2694,1414
8.2722,1404
8.2750,1430
8.2778,1491
8.2806,1567
8.2833,1629
8.2861,1651
8.2889,1657
8.2917,1658
8.2944,1648
8.2972,1655
8.3000,1669
8.3028,1675
8.3056,1678
8.3083,1664
8.3111,1630
8.3139,1623
8.3167,1626
8.3194,1644
8.3222,1666
8.3250,1677
8.3278,1696
8.3306,1720
8.3333,1739
8.3361,1716
8.3389,1699
8.3417,1681
8.3444,1668
8.3472,1685
8.3500,1708
8.3528,1717
8.3556,1709
8.3583,1696
8.3611,1703
8.3639,1735
8.3667,1762
8.3694,1788
8.3722,1782
8.3750,1784
8.3778,1766
8.3806,1749
8.3833,1720
8.3861,1701
8.3889,1680
8.3917,1674
8.3944,1687
8.3972,1694
8.4000,1708
8.4028,1726
8.4056,1735
8.4083,1745
8.4111,1735
8.4139,1731
8.4167,1719
8.4194,1722
8.4222,1732
8.4250,1746
8.4278,1742
8.4306,1750
8.4333,1751
8.4361,1757
8.4389,1753
8.4417,1755
8.4444,1738
8.4472,1735
8.4500,1719
8.4528,1705
8.4556,1706
8.4583,1725
8.4611,1738
8.4639,1740
8.4667,1740
8.4694,1734
8.4722,1715
8.4750,1703
8.4778,1708
8.4806,1713
8.4833,1727
8.4861,1730
8.4889,1706
8.4917,1680
8.4944,1667
8.4972,1675
8.5000,1669
8.5028,1652
8.5056,1654
8.5083,1661
8.5111,1648
8.5139,1605
8.5167,1563
8.5194,1535
8.5222,1541
8.5250,1568
8.5278,1600
8.5306,1618
8.5333,1623
8.5361,1630
8.5389,1637
8.5417,1643
8.5444,1652
8.5472,1670
8.5500,1681
8.5528,1696
8.5556,1698
8.5583,1685
8.5611,1685
8.5639,1678
8.5667,1685
8.5694,1693
8.5722,1703
8.5750,1705
8.5778,1707
8.5806,1701
8.5833,1706
8.5861,1702
8.5889,1722
8.5917,1739
8.5944,1732
8.5972,1726
8.6000,1716
8.6028,1700
8.6056,1692
8.6083,1679
8.6111,1677
8.6139,1685
8.6167,1686
8.6194,1686
8.6222,1677
8.6250,1674
8.6278,1679
8.6306,1677
8.6333,1667
8.6361,1672
8.6389,1684
8.6417,1687
8.6444,1680
8.6472,1671
8.6500,1681
8.6528,1687
8.6556,1695
8.6583,1688
8.6611,1692
8.6639,1698
8.6667,1680
8.6694,1675
8.6722,1664
8.6750,1675
8.6778,1683
8.6806,1699
8.6833,1730
8.6861,1753
8.6889,1752
8.6917,1748
8.6944,1750
8.6972,1780
8.7000,1811
8.7028,1834
8.7056,1846
8.7083,1850
8.7111,1848
8.7139,1856
8.7167,1882
8.7194,1877
8.7222,1844
8.7250,1828
8.7278,1816
8.7306,1828
8.7333,1838
8.7361,1816
8.7389,1806
8.7417,1788
8.7444,1759
8.7472,1752
8.7500,1750
8.7528,1725
8.7556,1696
8.7583,1656
8.7611,1630
8.7639,1618
8.7667,1610
8.7694,1613
8.7722,1621
8.7750,1616
8.7778,1608
8.7806,1588
8.7833,1580
8.7861,1579
8.7889,1582
8.7917,1599
8.7944,1618
8.7972,1628
8.8000,1642
8.8028,1666
8.8056,1687
8.8083,1705
8.8111,1696
8.8139,1689
8.8167,1659
8.8194,1663
8.8222,1648
8.8250,1651
8.8278,1686
8.8306,1748
8.8333,1843
8.8361,1972
8.8389,2084
8.8417,2153
8.8444,2155
8.8472,2083
8.8500,1961
8.8528,1816
8.8556,1731
8.8583,1685
8.8611,1640
8.8639,1570
8.8667,1475
8.8694,1390
8.8722,1342
8.8750,1315
8.8778,1338
8.8806,1414
8.8833,1534
8.8861,1635
8.8889,1687
8.8917,1695
8.8944,1679
8.8972,1667
8.9000,1675
8.9028,1682
8.9056,1714
8.9083,1747
8.9111,1777
8.9139,1788
8.9167,1787
8.9194,1774
8.9222,1749
8.9250,1727
8.9278,1726
8.9306,1740
8.9333,1756
8.9361,1772
8.9389,1764
8.9417,1745
8.9444,1733
8.9472,1750
8.9500,1770
8.9528,1791
8.9556,1804
8.9583,1817
8.9611,1826
8.9639,1838
8.9667,1855
8.9694,1864
8.9722,1871
8.9750,1855
8.9778,1850
8.9806,1855
8.9833,1869
8.9861,1870
8.9889,1872
8.9917,1854
8.9944,1830
8.9972,1800
9.0000,1793
9.0028,1827
9.0056,1858
9.0083,1888
9.0111,1936
9.0139,1947
9.0167,1947
9.0194,1915
9.0222,1883
9.0250,1843
9.0278,1807
9.0306,1798
9.0333,1827
9.0361,1817
9.0389,1831
9.0417,1825
9.0444,1829
9.0472,1835
9.0500,1817
9.0528,1803
9.0556,1785
9.0583,1760
9.0611,1774
9.0639,1791
9.0667,1805
9.0694,1790
9.0722,1785
9.0750,1790
9.0778,1773
9.0806,1729
9.0833,1685
9.0861,1658
9.0889,1657
9.0917,1666
9.0944,1668
9.0972,1672
9.1000,1658
9.1028,1636
9.1056,1629
9.1083,1621
9.1111,1654
9.1139,1690
9.1167,1697
9.1194,1689
9.1222,1682
9.1250,1680
9.1278,1687
9.1306,1698
9.1333,1697
9.1361,1658
9.1389,1626
9.1417,1611
9.1444,1606
9.1472,1621
9.1500,1640
9.1528,1683
9.1556,1734
9.1583,1745
9.1611,1753
9.1639,1736
9.1667,1698
9.1694,1683
9.1722,1684
9.1750,1690
9.1778,1719
9.1806,1755
9.1833,1791
9.1861,1842
9.1889,1854
9.1917,1843
9.1944,1793
9.1972,1747
9.2000,1729
9.2028,1720
9.2056,1718
9.2083,1701
9.2111,1689
9.2139,1670
9.2167,1672
9.2194,1653
9.2222,1640
9.2250,1640
9.2278,1654
9.2306,1683
9.2333,1712
9.2361,1744
9.2389,1790
9.2417,1812
9.2444,1831
9.2472,1830
9.2500,1833
9.2528,1830
9.2556,1822
9.2583,1830
9.2611,1830
9.2639,1814
9.2667,1824
9.2694,1819
9.2722,1823
9.2750,1832
9.2778,1849
9.2806,1880
9.2833,1926
9.2861,1958
9.2889,1973
9.2917,1968
9.2944,1967
9.2972,1961
9.3000,1953
9.3028,1943
9.3056,1910
9.3083,1872
9.3111,1874
9.3139,1899
9.3167,1908
9.3194,1922
9.3222,1909
9.3250,1904
9.3278,1883
9.3306,1866
9.3333,1858
9.3361,1842
9.3389,1825
9.3417,1803
9.3444,1782
9.3472,1779
9.3500,1773
9.3528,1771
9.3556,1773
9.3583,1759
9.3611,1740
9.3639,1726
9.3667,1720
9.3694,1705
9.3722,1692
9.3750,1700
9.3778,1727
9.3806,1746
9.3833,1744
9.3861,1698
9.3889,1625
9.3917,1564
9.3944,1547
9.3972,1561
9.4000,1597
9.4028,1644
9.4056,1677
9.4083,1727
9.4111,1739
9.4139,1742
9.4167,1736
9.4194,1720
9.4222,1715
9.4250,1765
9.4278,1851
9.4306,1969
9.4333,2130
9.4361,2264
9.4389,2314
9.4417,2249
9.4444,2079
9.4472,1875
9.4500,1732
9.4528,1648
9.4556,1598
9.4583,1545
9.4611,1489
9.4639,1447
9.4667,1422
9.4694,1418
9.4722,1430
9.4750,1486
9.4778,1558
9.4806,1626
9.4833,1674
9.4861,1701
9.4889,1704
9.4917,1695
9.4944,1656
9.4972,1640
9.5000,1633
9.5028,1632
9.5056,1665
9.5083,1707
9.5111,1763
9.5139,1776
9.5167,1758
9.5194,1730
9.5222,1734
9.5250,1761
9.5278,1794
9.5306,1799
9.5333,1784
9.5361,1771
9.5389,1729
9.5417,1689
9.5444,1675
9.5472,1660
9.5500,1657
9.5528,1648
9.5556,1662
9.5583,1689
9.5611,1705
9.5639,1736
9.5667,1748
9.5694,1732
9.5722,1703
9.5750,1684
9.5778,1673
9.5806,1694
9.5833,1731
9.5861,1743
9.5889,1763
9.5917,1769
9.5944,1766
9.5972,1736
9.6000,1705
9.6028,1700
9.6056,1716
9.6083,1733
9.6111,1739
9.6139,1734
9.6167,1723
9.6194,1744
9.6222,1773
9.6250,1780
9.6278,1768
9.6306,1754
9.6333,1740
9.6361,1725
9.6389,1728
9.6417,1738
9.6444,1791
9.6472,1805
9.6500,1793
9.6528,1792
9.6556,1807
9.6583,1821
9.6611,1825
9.6639,1833
9.6667,1829
9.6694,1811
9.6722,1782
9.6750,1744
9.6778,1717
9.6806,1681
9.6833,1659
9.6861,1663
9.6889,1671
9.6917,1689
9.6944,1730
9.6972,1731
9.7000,1709
9.7028,1650
9.7056,1600
9.7083,1574
9.7111,1585
9.7139,1607
9.7167,1635
9.7194,1641
9.7222,1648
9.7250,1663
9.7278,1663
9.7306,1678
9.7333,1684
9.7361,1681
9.7389,1667
9.7417,1657
9.7444,1670
9.7472,1684
9.7500,1688
9.7528,1694
9.7556,1686
9.7583,1683
9.7611,1686
9.7639,1711
9.7667,1721
9.7694,1730
9.7722,1720
9.7750,1714
9.7778,1703
9.7806,1689
9.7833,1678
9.7861,1671
9.7889,1671
9.7917,1655
9.7944,1646
9.7972,1642
9.8000,1642
9.8028,1646
9.8056,1646
9.8083,1654
9.8111,1670
9.8139,1688
9.8167,1681
9.8194,1671
9.8222,1676
9.8250,1688
9.8278,1692
9.8306,1706
9.8333,1712
9.8361,1731
9.8389,1733
9.8417,1725
9.8444,1713
9.8472,1698
9.8500,1686
9.8528,1674
9.8556,1690
9.8583,1701
9.8611,1708
9.8639,1722
9.8667,1748
9.8694,1760
9.8722,1749
9.8750,1741
9.8778,1725
9.8806,1714
9.8833,1684
9.8861,1658
9.8889,1638
9.8917,1612
9.8944,1597
9.8972,1584
9.9000,1603
9.9028,1627
9.9056,1656
9.9083,1693
9.9111,1724
9.9139,1748
9.9167,1745
9.9194,1747
9.9222,1745
9.9250,1722
9.9278,1700
9.9306,1701
9.9333,1697
9.9361,1702
9.9389,1722
9.9417,1746
9.9444,1752
9.9472,1747
9.9500,1740
9.9528,1708
9.9556,1678
9.9583,1645
9.9611,1621
9.9639,1618
9.9667,1631
9.9694,1659
9.9722,1685
9.9750,1688
9.9778,1688
9.9806,1689
9.9833,1682
9.9861,1682
9.9889,1704
9.9917,1723
9.9944,1727
9.9972,1718
10.0000,1716
10.0028,1721
10.0056,1762
10.0083,1805
10.0111,1827
10.0139,1830
10.0167,1826
10.0194,1816
10.0222,1828
10.0250,1833
10.0278,1834
10.0306,1824
10.0333,1814
10.0361,1826
10.0389,1865
10.0417,1895
10.0444,1916
10.0472,1923
10.0500,1898
10.0528,1837
10.0556,1770
10.0583,1734
10.0611,1730
10.0639,1746
10.0667,1751
10.0694,1748
10.0722,1742
10.0750,1729
10.0778,1696
10.0806,1658
10.0833,1629
10.0861,1612
10.0889,1623
10.0917,1625
10.0944,1634
10.0972,1627
10.1000,1611
10.1028,1601
10.1056,1594
10.1083,1598
10.1111,1616
10.1139,1615
10.1167,1601
10.1194,1571
10.1222,1550
10.1250,1539
10.1278,1535
10.1306,1557
10.1333,1585
10.1361,1626
10.1389,1659
10.1417,1673
10.1444,1681
10.1472,1699
10.1500,1718
10.1528,1736
10.1556,1795
10.1583,1881
10.1611,1993
10.1639,2102
10.1667,2177
10.1694,2158
10.1722,2023
10.1750,1831
10.1778,1664
10.1806,1527
10.1833,1433
10.1861,1351
10.1889,1278
10.1917,1236
10.1944,1237
10.1972,1294
10.2000,1357
10.2028,1438
10.2056,1516
10.2083,1581
10.2111,1630
10.2139,1637
10.2167,1626
10.2194,1587
10.2222,1571
10.2250,1548
10.2278,1553
10.2306,1550
10.2333,1571
10.2361,1610
10.2389,1646
10.2417,1673
10.2444,1686
10.2472,1685
10.2500,1672
10.2528,1667
10.2556,1661
10.2583,1648
10.2611,1624
10.2639,1605
10.2667,1584
10.2694,1585
10.2722,1600
10.2750,1624
10.2778,1635
10.2806,1639
10.2833,1640
10.2861,1632
10.2889,1623
10.2917,1626
10.2944,1636
10.2972,1652
10.3000,1656
10.3028,1656
10.3056,1664
10.3083,1658
10.3111,1648
10.3139,1636
10.3167,1627
10.3194,1625
10.3222,1622
10.3250,1632
10.3278,1638
10.3306,1633
10.3333,1651
10.3361,1649
10.3389,1669
10.3417,1691
10.3444,1706
10.3472,1719
10.3500,1718
10.3528,1712
10.3556,1684
10.3583,1673
10.3611,1672
10.3639,1691
10.3667,1702
10.3694,1705
10.3722,1733
10.3750,1737
10.3778,1737
10.3806,1733
10.3833,1715
10.3861,1685
10.3889,1671
10.3917,1665
10.3944,1679
10.3972,1685
10.4000,1691
10.4028,1703
10.4056,1698
10.4083,1686
10.4111,1672
10.4139,1662
10.4167,1634
10.4194,1621
10.4222,1618
10.4250,1620
10.4278,1617
10.4306,1638
10.4333,1655
10.4361,1664
10.4389,1656
10.4417,1648
10.4444,1622
10.4472,1610
10.4500,1613
10.4528,1643
10.4556,1658
10.4583,1661
10.4611,1640
10.4639,1629
10.4667,1630
10.4694,1654
10.4722,1684
10.4750,1684
10.4778,1652
10.4806,1625
10.4833,1597
10.4861,1602
10.4889,1624
10.4917,1651
10.4944,1670
10.4972,1677
10.5000,1664
10.5028,1677
10.5056,1686
10.5083,1698
10.5111,1713
10.5139,1706
10.5167,1690
10.5194,1669
10.5222,1671
10.5250,1673
10.5278,1713
10.5306,1731
10.5333,1724
10.5361,1703
10.5389,1686
10.5417,1670
10.5444,1667
10.5472,1666
10.5500,1665
10.5528,1671
10.5556,1683
10.5583,1686
10.5611,1675
10.5639,1668
10.5667,1671
10.5694,1661
10.5722,1666
10.5750,1655
10.5778,1649
10.5806,1651
10.5833,1650
10.5861,1662
10.5889,1681
10.5917,1685
10.5944,1691
10.5972,1694
10.6000,1702
10.6028,1714
10.6056,1721
10.6083,1713
10.6111,1725
10.6139,1698
10.6167,1690
10.6194,1700
10.6222,1721
10.6250,1734
10.6278,1735
10.6306,1711
10.6333,1673
10.6361,1649
10.6389,1643
10.6417,1653
10.6444,1672
10.6472,1680
10.6500,1665
10.6528,1655
10.6556,1662
10.6583,1681
10.6611,1687
10.6639,1677
10.6667,1685
10.6694,1692
10.6722,1710
10.6750,1715
10.6778,1721
10.6806,1718
10.6833,1699
10.6861,1688
10.6889,1674
10.6917,1658
10.6944,1651
10.6972,1665
10.7000,1715
10.7028,1768
10.7056,1819
10.7083,1864
10.7111,1875
10.7139,1851
10.7167,1775
10.7194,1688
10.7222,1629
10.7250,1625
10.7278,1660
10.7306,1694
10.7333,1711
10.7361,1710
10.7389,1708
10.7417,1689
10.7444,1682
10.7472,1682
10.7500,1688
10.7528,1687
10.7556,1693
10.7583,1686
10.7611,1689
10.7639,1678
10.7667,1689
10.7694,1698
10.7722,1707
10.7750,1706
10.7778,1708
10.7806,1709
10.7833,1705
10.7861,1727
10.7889,1758
10.7917,1786
10.7944,1814
10.7972,1814
10.8000,1786
10.8028,1757
10.8056,1701
10.8083,1673
10.8111,1685
10.8139,1705
10.8167,1744
10.8194,1797
10.8222,1840
10.8250,1867
10.8278,1878
10.8306,1880
10.8333,1872
10.8361,1861
10.8389,1840
10.8417,1817
10.8444,1807
10.8472,1820
10.8500,1829
10.8528,1833
10.8556,1825
10.8583,1824
10.8611,1832
10.8639,1829
10.8667,1839
10.8694,1834
10.8722,1815
10.8750,1813
10.8778,1812
10.8806,1780
10.8833,1738
10.8861,1683
10.8889,1648
10.8917,1629
10.8944,1640
10.8972,1658
10.9000,1675
10.9028,1685
10.9056,1683
10.9083,1657
10.9111,1632
10.9139,1606
10.9167,1616
10.9194,1633
10.9222,1641
10.9250,1657
10.9278,1676
10.9306,1685
10.9333,1680
10.9361,1671
10.9389,1667
10.9417,1655
10.9444,1661
10.9472,1656
10.9500,1667
10.9528,1711
10.9556,1769
10.9583,1845
10.9611,1947
10.9639,2048
10.9667,2162
10.9694,2237
10.9722,2240
10.9750,2117
10.9778,1923
10.9806,1748
10.9833,1639
10.9861,1548
10.9889,1457
10.9917,1392
10.9944,1343
10.9972,1344
11.0000,1377
11.0028,1424
11.0056,1478
11.0083,1554
11.0111,1615
11.0139,1662
11.0167,1686
11.0194,1695
11.0222,1682
11.0250,1654
11.0278,1634
11.0306,1632
11.0333,1670
11.0361,1707
11.0389,1730
11.0417,1744
11.0444,1740
11.0472,1720
11.0500,1707
11.0528,1701
11.0556,1705
11.0583,1729
11.0611,1735
11.0639,1726
11.0667,1702
11.0694,1690
11.0722,1695
11.0750,1705
11.0778,1706
11.0806,1701
11.0833,1685
11.0861,1678
11.0889,1675
11.0917,1701
11.0944,1722
11.0972,1736
11.1000,1733
11.1028,1711
11.1056,1703
11.1083,1689
11.1111,1703
11.1139,1726
11.1167,1740
11.1194,1760
11.1222,1741
11.1250,1720
11.1278,1705
11.1306,1720
11.1333,1740
11.1361,1765
11.1389,1780
11.1417,1787
11.1444,1803
11.1472,1809
11.1500,1786
11.1528,1767
11.1556,1757
11.1583,1746
11.1611,1717
11.1639,1698
11.1667,1723
11.1694,1758
11.1722,1803
11.1750,1869
11.1778,1875
11.1806,1853
11.1833,1807
11.1861,1752
11.1889,1720
11.1917,1705
11.1944,1714
11.1972,1730
11.2000,1739
11.2028,1743
11.2056,1755
11.2083,1761
11.2111,1764
11.2139,1763
11.2167,1764
11.2194,1757
11.2222,1730
11.2250,1697
11.2278,1676
11.2306,1683
11.2333,1700
11.2361,1718
11.2389,1745
11.2417,1756
11.2444,1746
11.2472,1737
11.2500,1715
11.2528,1713
11.2556,1702
11.2583,1700
11.2611,1695
11.2639,1690
11.2667,1700
11.2694,1703
11.2722,1719
11.2750,1738
11.2778,1755
11.2806,1771
11.2833,1778
11.2861,1774
11.2889,1766
11.2917,1759
11.2944,1721
11.2972,1679
11.3000,1685
11.3028,1711
11.3056,1729
11.3083,1746
11.3111,1751
11.3139,1735
11.3167,1726
11.3194,1725
11.3222,1727
11.3250,1731
11.3278,1731
11.3306,1727
11.3333,1727
11.3361,1720
11.3389,1712
11.3417,1720
11.3444,1746
11.3472,1751
11.3500,1746
11.3528,1727
11.3556,1724
11.3583,1723
11.3611,1719
11.3639,1716
11.3667,1716
11.3694,1722
11.3722,1708
11.3750,1690
11.3778,1677
11.3806,1669
11.3833,1679
11.3861,1703
11.3889,1715
11.3917,1718
11.3944,1732
11.3972,1745
11.4000,1759
11.4028,1760
11.4056,1743
11.4083,1705
11.4111,1685
11.4139,1669
11.4167,1674
11.4194,1685
11.4222,1721
11.4250,1754
11.4278,1766
11.4306,1766
11.4333,1745
11.4361,1730
11.4389,1714
11.4417,1708
11.4444,1691
11.4472,1686
11.4500,1680
11.4528,1688
11.4556,1700
11.4583,1710
11.4611,1704
11.4639,1686
11.4667,1667
11.4694,1651
11.4722,1652
11.4750,1658
11.4778,1689
11.4806,1695
11.4833,1696
11.4861,1697
11.4889,1693
11.4917,1698
11.4944,1716
11.4972,1743
11.5000,1741
11.5028,1730
11.5056,1740
11.5083,1735
11.5111,1719
11.5139,1697
11.5167,1683
11.5194,1667
11.5222,1649
11.5250,1633
11.5278,1653
11.5306,1679
11.5333,1706
11.5361,1716
11.5389,1684
11.5417,1651
11.5444,1618
11.5472,1604
11.5500,1617
11.5528,1629
11.5556,1637
11.5583,1633
11.5611,1615
11.5639,1627
11.5667,1638
11.5694,1652
11.5722,1644
11.5750,1651
11.5778,1645
11.5806,1652
11.5833,1666
11.5861,1690
11.5889,1694
11.5917,1674
11.5944,1651
11.5972,1636
11.6000,1642
11.6028,1665
11.6056,1675
11.6083,1673
11.6111,1652
11.6139,1630
11.6167,1635
11.6194,1646
11.6222,1657
11.6250,1644
11.6278,1632
11.6306,1623
11.6333,1635
11.6361,1655
11.6389,1661
11.6417,1639
11.6444,1599
11.6472,1579
11.6500,1574
11.6528,1606
11.6556,1652
11.6583,1668
11.6611,1682
11.6639,1688
11.6667,1690
11.6694,1693
11.6722,1699
11.6750,1700
11.6778,1711
11.6806,1716
11.6833,1714
11.6861,1715
11.6889,1710
11.6917,1699
11.6944,1691
11.6972,1671
11.7000,1664
11.7028,1664
11.7056,1674
11.7083,1678
11.7111,1669
11.7139,1642
11.7167,1610
11.7194,1563
11.7222,1527
11.7250,1537
11.7278,1567
11.7306,1606
11.7333,1648
11.7361,1686
11.7389,1708
11.7417,1701
11.7444,1674
11.7472,1647
11.7500,1638
11.7528,1636
11.7556,1653
11.7583,1667
11.7611,1687
11.7639,1694
11.7667,1716
11.7694,1717
11.7722,1727
11.7750,1743
11.7778,1768
11.7806,1778
11.7833,1781
11.7861,1760
11.7889,1738
11.7917,1715
11.7944,1714
11.7972,1708
11.8000,1727
11.8028,1733
11.8056,1745
11.8083,1747
11.8111,1754
11.8139,1760
11.8167,1751
11.8194,1770
11.8222,1802
11.8250,1832
11.8278,1834
11.8306,1806
11.8333,1764
11.8361,1721
11.8389,1690
11.8417,1682
11.8444,1686
11.8472,1685
11.8500,1686
11.8528,1688
11.8556,1685
11.8583,1682
11.8611,1689
11.8639,1701
11.8667,1711
11.8694,1724
11.8722,1709
11.8750,1673
11.8778,1634
11.8806,1609
11.8833,1609
11.8861,1620
11.8889,1627
11.8917,1639
11.8944,1657
11.8972,1663
11.9000,1677
11.9028,1688
11.9056,1687
11.9083,1694
11.9111,1711
11.9139,1730
11.9167,1750
11.9194,1737
11.9222,1721
11.9250,1704
11.9278,1702
11.9306,1713
11.9333,1787
11.9361,1915
11.9389,2046
11.9417,2143
11.9444,2163
11.9472,2074
11.9500,1923
11.9528,1781
11.9556,1689
11.9583,1660
11.9611,1625
11.9639,1566
11.9667,1509
11.9694,1447
11.9722,1408
11.9750,1407
11.9778,1420
11.9806,1476
11.9833,1551
11.9861,1627
11.9889,1691
11.9917,1722
11.9944,1724
11.9972,1714
12.0000,1704
12.0028,1710
12.0056,1725
12.0083,1766
12.0111,1802
12.0139,1836
12.0167,1823
12.0194,1812
12.0222,1795
12.0250,1788
12.0278,1764
12.0306,1758
12.0333,1734
12.0361,1719
12.0389,1736
12.0417,1763
12.0444,1782
12.0472,1792
12.0500,1804
12.0528,1808
12.0556,1799
12.0583,1788
12.0611,1790
12.0639,1798
12.0667,1805
12.0694,1801
12.0722,1792
12.0750,1772
12.0778,1741
12.0806,1729
12.0833,1742
12.0861,1768
12.0889,1788
12.0917,1802
12.0944,1815
12.0972,1837
12.1000,1863
12.1028,1877
12.1056,1875
12.1083,1857
12.1111,1826
12.1139,1816
12.1167,1794
12.1194,1767
12.1222,1748
12.1250,1735
12.1278,1736
12.1306,1769
12.1333,1796
12.1361,1796
12.1389,1777
12.1417,1776
12.1444,1785
12.1472,1804
12.1500,1813
12.1528,1818
12.1556,1804
12.1583,1799
12.1611,1806
12.1639,1812
12.1667,1842
12.1694,1855
12.1722,1847
12.1750,1821
12.1778,1788
12.1806,1767
12.1833,1755
12.1861,1760
12.1889,1783
12.1917,1807
12.1944,1838
12.1972,1852
12.2000,1871
12.2028,1871
12.2056,1841
12.2083,1788
12.2111,1767
12.2139,1767
12.2167,1784
12.2194,1794
12.2222,1802
12.2250,1802
12.2278,1798
12.2306,1797
12.2333,1786
12.2361,1773
12.2389,1775
12.2417,1777
12.2444,1782
12.2472,1778
12.2500,1787
12.2528,1791
12.2556,1805
12.2583,1809
12.2611,1816
12.2639,1819
12.2667,1821
12.2694,1825
12.2722,1827
12.2750,1825
12.2778,1829
12.2806,1831
12.2833,1832
12.2861,1841
12.2889,1853
12.2917,1864
12.2944,1869
12.2972,1881
12.3000,1886
12.3028,1886
12.3056,1896
12.3083,1896
12.3111,1897
12.3139,1877
12.3167,1846
12.3194,1795
12.3222,1754
12.3250,1746
12.3278,1754
12.3306,1785
12.3333,1804
12.3361,1813
12.3389,1825
12.3417,1822
12.3444,1816
12.3472,1807
12.3500,1788
12.3528,1788
12.3556,1783
12.3583,1786
12.3611,1798
12.3639,1799
12.3667,1802
12.3694,1817
12.3722,1831
12.3750,1842
12.3778,1831
12.3806,1815
12.3833,1786
12.3861,1763
12.3889,1765
12.3917,1765
12.3944,1762
12.3972,1760
12.4000,1805
12.4028,1833
12.4056,1846
12.4083,1832
12.4111,1804
12.4139,1766
12.4167,1749
12.4194,1730
12.4222,1738
12.4250,1739
12.4278,1745
12.4306,1766
12.4333,1796
12.4361,1803
12.4389,1803
12.4417,1787
12.4444,1769
12.4472,1751
12.4500,1736
12.4528,1753
12.4556,1770
12.4583,1778
12.4611,1792
12.4639,1777
12.4667,1768
12.4694,1746
12.4722,1738
12.4750,1739
12.4778,1752
12.4806,1776
12.4833,1794
12.4861,1817
12.4889,1816
12.4917,1800
12.4944,1797
12.4972,1775
12.5000,1772
12.5028,1760
12.5056,1746
12.5083,1729
12.5111,1721
12.5139,1725
12.5167,1749
12.5194,1751
12.5222,1754
12.5250,1764
12.5278,1781
12.5306,1794
12.5333,1784
12.5361,1777
12.5389,1789
12.5417,1790
12.5444,1776
12.5472,1759
12.5500,1730
12.5528,1737
12.5556,1748
12.5583,1752
12.5611,1772
12.5639,1779
12.5667,1788
12.5694,1776
12.5722,1744
12.5750,1726
12.5778,1715
12.5806,1714
12.5833,1741
12.5861,1746
12.5889,1770
12.5917,1795
12.5944,1803
12.5972,1802
12.6000,1791
12.6028,1756
12.6056,1738
12.6083,1724
12.6111,1705
12.6139,1700
12.6167,1714
12.6194,1733
12.6222,1746
12.6250,1770
12.6278,1778
12.6306,1774
12.6333,1771
12.6361,1779
12.6389,1764
12.6417,1746
12.6444,1738
12.6472,1759
12.6500,1802
12.6528,1820
12.6556,1829
12.6583,1815
12.6611,1793
12.6639,1785
12.6667,1768
12.6694,1755
12.6722,1753
12.6750,1753
12.6778,1748
12.6806,1748
12.6833,1764
12.6861,1778
12.6889,1779
12.6917,1753
12.6944,1718
12.6972,1698
12.7000,1686
12.7028,1685
12.7056,1695
12.7083,1700
12.7111,1722
12.7139,1750
12.7167,1766
12.7194,1787
12.7222,1799
12.7250,1818
12.7278,1834
12.7306,1836
12.7333,1849
12.7361,1858
12.7389,1845
12.7417,1839
12.7444,1829
12.7472,1826
12.7500,1823
12.7528,1823
12.7556,1825
12.7583,1808
12.7611,1808
12.7639,1794
12.7667,1789
12.7694,1791
12.7722,1783
12.7750,1750
12.7778,1712
12.7806,1679
12.7833,1682
12.7861,1717
12.7889,1758
12.7917,1778
12.7944,1773
12.7972,1771
12.8000,1743
12.8028,1698
12.8056,1665
12.8083,1642
12.8111,1643
12.8139,1665
12.8167,1694
12.8194,1708
12.8222,1710
12.8250,1707
12.8278,1699
12.8306,1681
12.8333,1661
12.8361,1654
12.8389,1667
12.8417,1695
12.8444,1723
12.8472,1730
12.8500,1720
12.8528,1721
12.8556,1731
12.8583,1772
12.8611,1881
12.8639,2034
12.8667,2178
12.8694,2282
12.8722,2289
12.8750,2186
12.8778,2040
12.8806,1894
12.8833,1784
12.8861,1697
12.8889,1607
12.8917,1529
12.8944,1479
12.8972,1455
12.9000,1452
12.9028,1462
12.9056,1508
12.9083,1561
12.9111,1597
12.9139,1618
12.9167,1635
12.9194,1635
12.9222,1631
12.9250,1640
12.9278,1641
12.9306,1644
12.9333,1657
12.9361,1666
12.9389,1684
12.9417,1703
12.9444,1718
12.9472,1721
12.9500,1732
12.9528,1733
12.9556,1738
12.9583,1743
12.9611,1729
12.9639,1721
12.9667,1723
12.9694,1727
12.9722,1729
12.9750,1739
12.9778,1756
12.9806,1782
12.9833,1796
12.9861,1811
12.9889,1800
12.9917,1781
12.9944,1763
12.9972,1770
13.0000,1774
13.0028,1752
13.0056,1721
13.0083,1675
13.0111,1644
13.0139,1642
13.0167,1658
13.0194,1693
13.0222,1701
13.0250,1713
13.0278,1734
13.0306,1753
13.0333,1762
13.0361,1761
13.0389,1750
13.0417,1734
13.0444,1726
13.0472,1728
13.0500,1712
13.0528,1719
13.0556,1734
13.0583,1753
13.0611,1758
13.0639,1757
13.0667,1740
13.0694,1712
13.0722,1712
13.0750,1750
13.0778,1781
13.0806,1812
13.0833,1827
13.0861,1822
13.0889,1809
13.0917,1787
13.0944,1753
13.0972,1718
13.1000,1677
13.1028,1658
13.1056,1664
13.1083,1689
13.1111,1712
13.1139,1740
13.1167,1722
13.1194,1681
13.1222,1640
13.1250,1609
13.1278,1591
13.1306,1589
13.1333,1611
13.1361,1622
13.1389,1621
13.1417,1599
13.1444,1597
13.1472,1597
13.1500,1616
13.1528,1639
13.1556,1662
13.1583,1676
13.1611,1679
13.1639,1649
13.1667,1627
13.1694,1617
13.1722,1634
13.1750,1668
13.1778,1695
13.1806,1697
13.1833,1669
13.1861,1620
13.1889,1614
13.1917,1636
13.1944,1656
13.1972,1674
13.2000,1679
13.2028,1673
13.2056,1679
13.2083,1676
13.2111,1676
13.2139,1669
13.2167,1664
13.2194,1663
13.2222,1670
13.2250,1699
13.2278,1748
13.2306,1763
13.2333,1760
13.2361,1753
13.2389,1737
13.2417,1710
13.2444,1692
13.2472,1682
13.2500,1693
13.2528,1710
13.2556,1744
13.2583,1779
13.2611,1809
13.2639,1799
13.2667,1755
13.2694,1707
13.2722,1665
13.2750,1632
13.2778,1634
13.2806,1660
13.2833,1678
13.2861,1713
13.2889,1728
13.2917,1731
13.2944,1741
13.2972,1722
13.3000,1714
13.3028,1710
13.3056,1711
13.3083,1707
13.3111,1715
13.3139,1725
13.3167,1739
13.3194,1764
13.3222,1796
13.3250,1812
13.3278,1812
13.3306,1786
13.3333,1760
13.3361,1721
13.3389,1662
13.3417,1655
13.3444,1669
13.3472,1722
13.3500,1766
13.3528,1778
13.3556,1787
13.3583,1757
13.3611,1734
13.3639,1727
13.3667,1715
13.3694,1711
13.3722,1702
13.3750,1698
13.3778,1705
13.3806,1726
13.3833,1733
13.3861,1747
13.3889,1772
13.3917,1785
13.3944,1802
13.3972,1810
13.4000,1807
13.4028,1806
13.4056,1789
13.4083,1761
13.4111,1737
13.4139,1737
13.4167,1743
13.4194,1755
13.4222,1769
13.4250,1761
13.4278,1761
13.4306,1760
13.4333,1768
13.4361,1802
13.4389,1818
13.4417,1808
13.4444,1764
13.4472,1702
13.4500,1673
13.4528,1662
13.4556,1665
13.4583,1691
13.4611,1693
13.4639,1709
13.4667,1739
13.4694,1752
13.4722,1772
13.4750,1787
13.4778,1802
13.4806,1809
13.4833,1811
13.4861,1804
13.4889,1797
13.4917,1780
13.4944,1779
13.4972,1796
13.5000,1812
13.5028,1816
13.5056,1810
13.5083,1823
13.5111,1848
13.5139,1876
13.5167,1904
13.5194,1910
13.5222,1886
13.5250,1845
13.5278,1825
13.5306,1820
13.5333,1812
13.5361,1814
13.5389,1827
13.5417,1834
13.5444,1853
13.5472,1884
13.5500,1921
13.5528,1924
13.5556,1927
13.5583,1892
13.5611,1870
13.5639,1851
13.5667,1863
13.5694,1882
13.5722,1866
13.5750,1810
13.5778,1733
13.5806,1664
13.5833,1618
13.5861,1600
13.5889,1615
13.5917,1651
13.5944,1686
13.5972,1729
13.6000,1781
13.6028,1830
13.6056,1842
13.6083,1821
13.6111,1777
13.6139,1708
13.6167,1646
13.6194,1614
13.6222,1605
13.6250,1624
13.6278,1641
13.6306,1683
13.6333,1715
13.6361,1717
13.6389,1692
13.6417,1665
13.6444,1664
13.6472,1690
13.6500,1759
13.6528,1889
13.6556,2037
13.6583,2160
13.6611,2244
13.6639,2233
13.6667,2125
13.6694,1976
13.6722,1856
13.6750,1777
13.6778,1722
13.6806,1669
13.6833,1606
13.6861,1536
13.6889,1474
13.6917,1417
13.6944,1391
13.6972,1412
13.7000,1494
13.7028,1599
13.7056,1701
13.7083,1787
13.7111,1842
13.7139,1847
13.7167,1812
13.7194,1745
13.7222,1690
13.7250,1655
13.7278,1651
13.7306,1680
13.7333,1705
13.7361,1723
13.7389,1739
13.7417,1750
13.7444,1763
13.7472,1772
13.7500,1762
13.7528,1762
13.7556,1767
13.7583,1764
13.7611,1758
13.7639,1748
13.7667,1752
13.7694,1736
13.7722,1729
13.7750,1727
13.7778,1726
13.7806,1720
13.7833,1730
13.7861,1731
13.7889,1750
13.7917,1746
13.7944,1749
13.7972,1758
13.8000,1784
13.8028,1806
13.8056,1824
13.8083,1817
13.8111,1801
13.8139,1782
13.8167,1770
13.8194,1753
13.8222,1744
13.8250,1741
13.8278,1743
13.8306,1744
13.8333,1738
13.8361,1743
13.8389,1755
13.8417,1747
13.8444,1734
13.8472,1718
13.8500,1706
13.8528,1787
13.8556,1775
13.8583,1754
13.8611,1766
13.8639,1791
13.8667,1805
13.8694,1799
13.8722,1784
13.8750,1768
13.8778,1765
13.8806,1756
13.8833,1762
13.8861,1768
13.8889,1788
13.8917,1787
13.8944,1777
13.8972,1753
13.9000,1740
13.9028,1738
13.9056,1739
13.9083,1752
13.9111,1751
13.9139,1748
13.9167,1749
13.9194,1762
13.9222,1779
13.9250,1799
13.9278,1804
13.9306,1782
13.9333,1764
13.9361,1731
13.9389,1711
13.9417,1691
13.9444,1702
13.9472,1714
13.9500,1708
13.9528,1700
13.9556,1709
13.9583,1712
13.9611,1722
13.9639,1728
13.9667,1732
13.9694,1730
13.9722,1735
13.9750,1729
13.9778,1731
13.9806,1742
13.9833,1743
13.9861,1744
13.9889,1746
13.9917,1758
13.9944,1765
13.9972,1771
14.0000,1776
14.0028,1780
14.0056,1773
14.0083,1786
14.0111,1773
14.0139,1771
14.0167,1768
14.0194,1776
14.0222,1804
14.0250,1837
14.0278,1863
14.0306,1865
14.0333,1856
14.0361,1843
14.0389,1817
14.0417,1795
14.0444,1756
14.0472,1691
14.0500,1638
14.0528,1607
14.0556,1615
14.0583,1639
14.0611,1666
14.0639,1696
14.0667,1711
14.0694,1736
14.0722,1755
14.0750,1757
14.0778,1750
14.0806,1753
14.0833,1746
14.0861,1735
14.0889,1725
14.0917,1718
14.0944,1714
14.0972,1714
14.1000,1721
14.1028,1735
14.1056,1742
14.1083,1752
14.1111,1765
14.1139,1775
14.1167,1790
14.1194,1765
14.1222,1757
14.1250,1747
14.1278,1760
14.1306,1782
14.1333,1782
14.1361,1754
14.1389,1707
14.1417,1662
14.1444,1625
14.1472,1613
14.1500,1626
14.1528,1645
14.1556,1661
14.1583,1671
14.1611,1679
14.1639,1682
14.1667,1685
14.1694,1703
14.1722,1726
14.1750,1738
14.1778,1751
14.1806,1763
14.1833,1767
14.1861,1767
14.1889,1765
14.1917,1756
14.1944,1766
14.1972,1763
14.2000,1781
14.2028,1797
14.2056,1816
14.2083,1834
14.2111,1844
14.2139,1849
14.2167,1856
14.2194,1892
14.2222,1932
14.2250,1964
14.2278,1976
14.2306,1965
14.2333,1934
14.2361,1888
14.2389,1849
14.2417,1817
14.2444,1797
14.2472,1794
14.2500,1800
14.2528,1792
14.2556,1797
14.2583,1809
14.2611,1801
14.2639,1773
14.2667,1755
14.2694,1744
14.2722,1725
14.2750,1703
14.2778,1693
14.2806,1683
14.2833,1678
14.2861,1681
14.2889,1681
14.2917,1672
14.2944,1673
14.2972,1667
14.3000,1665
14.3028,1677
14.3056,1688
14.3083,1699
14.3111,1710
14.3139,1724
14.3167,1719
14.3194,1733
14.3222,1750
14.3250,1772
14.3278,1783
14.3306,1795
14.3333,1784
14.3361,1746
14.3389,1691
14.3417,1633
14.3444,1572
14.3472,1562
14.3500,1624
14.3528,1736
14.3556,1899
14.3583,2041
14.3611,2132
14.3639,2141
14.3667,2066
14.3694,1942
14.3722,1834
14.3750,1740
14.3778,1692
14.3806,1642
14.3833,1575
14.3861,1514
14.3889,1458
14.3917,1415
14.3944,1408
14.3972,1432
14.4000,1510
14.4028,1600
14.4056,1675
14.4083,1729
14.4111,1756
14.4139,1776
14.4167,1773
14.4194,1764
14.4222,1759
14.4250,1760
14.4278,1764
14.4306,1760
14.4333,1760
14.4361,1735
14.4389,1721
14.4417,1714
14.4444,1714
14.4472,1710
14.4500,1718
14.4528,1719
14.4556,1709
14.4583,1705
14.4611,1691
14.4639,1685
14.4667,1689
14.4694,1693
14.4722,1701
14.4750,1692
14.4778,1707
14.4806,1733
14.4833,1768
14.4861,1789
14.4889,1813
14.4917,1829
14.4944,1824
14.4972,1812
14.5000,1807
14.5028,1793
14.5056,1796
14.5083,1787
14.5111,1801
14.5139,1821
14.5167,1842
14.5194,1850
14.5222,1835
14.5250,1811
14.5278,1783
14.5306,1753
14.5333,1743
14.5361,1728
14.5389,1720
14.5417,1726
14.5444,1729
14.5472,1722
14.5500,1738
14.5528,1763
14.5556,1755
14.5583,1751
14.5611,1759
14.5639,1775
14.5667,1781
14.5694,1779
14.5722,1767
14.5750,1752
14.5778,1749
14.5806,1731
14.5833,1726
14.5861,1716
14.5889,1705
14.5917,1687
14.5944,1677
14.5972,1682
14.6000,1673
14.6028,1683
14.6056,1714
14.6083,1770
14.6111,1808
14.6139,1799
14.6167,1764
14.6194,1699
14.6222,1635
14.6250,1597
14.6278,1585
14.6306,1592
14.6333,1610
14.6361,1633
14.6389,1667
14.6417,1683
14.6444,1698
14.6472,1704
14.6500,1688
14.6528,1671
14.6556,1648
14.6583,1649
14.6611,1679
14.6639,1712
14.6667,1729
14.6694,1766
14.6722,1787
14.6750,1769
14.6778,1744
14.6806,1706
14.6833,1671
14.6861,1653
14.6889,1663
14.6917,1665
14.6944,1657
14.6972,1663
14.7000,1665
14.7028,1696
14.7056,1727
14.7083,1740
14.7111,1715
14.7139,1685
14.7167,1649
14.7194,1639
14.7222,1642
14.7250,1663
14.7278,1688
14.7306,1709
14.7333,1726
14.7361,1744
14.7389,1758
14.7417,1755
14.7444,1749
14.7472,1739
14.7500,1715
14.7528,1685
14.7556,1686
14.7583,1685
14.7611,1723
14.7639,1749
14.7667,1752
14.7694,1763
14.7722,1768
14.7750,1770
14.7778,1736
14.7806,1702
14.7833,1668
14.7861,1641
14.7889,1631
14.7917,1639
14.7944,1633
14.7972,1613
14.8000,1611
14.8028,1592
14.8056,1586
14.8083,1604
14.8111,1632
14.8139,1662
14.8167,1692
14.8194,1718
14.8222,1718
14.8250,1702
14.8278,1683
14.8306,1665
14.8333,1650
14.8361,1657
14.8389,1667
14.8417,1687
14.8444,1701
14.8472,1701
14.8500,1702
14.8528,1710
14.8556,1729
14.8583,1747
14.8611,1762
14.8639,1758
14.8667,1735
14.8694,1734
14.8722,1739
14.8750,1746
14.8778,1749
14.8806,1729
14.8833,1717
14.8861,1732
14.8889,1742
14.8917,1771
14.8944,1798
14.8972,1816
14.9000,1819
14.9028,1829
14.9056,1819
14.9083,1805
14.9111,1793
14.9139,1779
14.9167,1754
14.9194,1729
14.9222,1710
14.9250,1699
14.9278,1698
14.9306,1689
14.9333,1686
14.9361,1673
14.9389,1654
14.9417,1637
14.9444,1610
14.9472,1598
14.9500,1600
14.9528,1604
14.9556,1599
14.9583,1609
14.9611,1595
14.9639,1582
14.9667,1566
14.9694,1566
14.9722,1563
14.9750,1589
14.9778,1618
14.9806,1638
14.9833,1658
14.9861,1667
14.9889,1679
14.9917,1667
14.9944,1640
14.9972,1626
15.0000,1650
15.0028,1709
15.0056,1826
15.0083,1980
15.0111,2093
15.0139,2155
15.0167,2111
15.0194,2005
15.0222,1900
15.0250,1796
15.0278,1709
15.0306,1636
15.0333,1548
15.0361,1451
15.0389,1373
15.0417,1311
15.0444,1285
15.0472,1293
15.0500,1344
15.0528,1415
15.0556,1484
15.0583,1558
15.0611,1623
15.0639,1661
15.0667,1699
15.0694,1695
15.0722,1692
15.0750,1692
15.0778,1684
15.0806,1691
15.0833,1699
15.0861,1678
15.0889,1658
15.0917,1637
15.0944,1628
15.0972,1638
15.1000,1671
15.1028,1698
15.1056,1715
15.1083,1720
15.1111,1726
15.1139,1702
15.1167,1688
15.1194,1668
15.1222,1672
15.1250,1675
15.1278,1684
15.1306,1686
15.1333,1687
15.1361,1694
15.1389,1711
15.1417,1722
15.1444,1729
15.1472,1725
15.1500,1714
15.1528,1710
15.1556,1720
15.1583,1734
15.1611,1761
15.1639,1804
15.1667,1821
15.1694,1793
15.1722,1741
15.1750,1689
15.1778,1693
15.1806,1726
15.1833,1769
15.1861,1781
15.1889,1772
15.1917,1741
15.1944,1699
15.1972,1686
15.2000,1697
15.2028,1720
15.2056,1785
15.2083,1780
15.2111,1770
15.2139,1752
15.2167,1732
15.2194,1738
15.2222,1748
15.2250,1748
15.2278,1746
15.2306,1738
15.2333,1731
15.2361,1735
15.2389,1749
15.2417,1743
15.2444,1729
15.2472,1710
15.2500,1696
15.2528,1684
15.2556,1700
15.2583,1712
15.2611,1713
15.2639,1711
15.2667,1718
15.2694,1723
15.2722,1735
15.2750,1761
15.2778,1755
15.2806,1741
15.2833,1730
15.2861,1733
15.2889,1717
15.2917,1697
15.2944,1678
15.2972,1651
15.3000,1644
15.3028,1655
15.3056,1682
15.3083,1706
15.3111,1692
15.3139,1681
15.3167,1676
15.3194,1664
15.3222,1667
15.3250,1686
15.3278,1705
15.3306,1730
15.3333,1747
15.3361,1756
15.3389,1766
15.3417,1761
15.3444,1747
15.3472,1731
15.3500,1749
15.3528,1753
15.3556,1775
15.3583,1808
15.3611,1823
15.3639,1814
15.3667,1764
15.3694,1726
15.3722,1686
15.3750,1663
15.3778,1679
15.3806,1709
15.3833,1745
15.3861,1769
15.3889,1767
15.3917,1745
15.3944,1723
15.3972,1696
15.4000,1685
15.4028,1666
15.4056,1662
15.4083,1669
15.4111,1684
15.4139,1696
15.4167,1717
15.4194,1729
15.4222,1722
15.4250,1702
15.4278,1690
15.4306,1701
15.4333,1725
15.4361,1746
15.4389,1756
15.4417,1770
15.4444,1773
15.4472,1760
15.4500,1725
15.4528,1666
15.4556,1636
15.4583,1639
15.4611,1658
15.4639,1683
15.4667,1702
15.4694,1721
15.4722,1726
15.4750,1731
15.4778,1743
15.4806,1761
15.4833,1781
15.4861,1793
15.4889,1787
15.4917,1809
15.4944,1819
15.4972,1822
15.5000,1812
15.5028,1808
15.5056,1799
15.5083,1793
15.5111,1803
15.5139,1826
15.5167,1835
15.5194,1829
15.5222,1831
15.5250,1838
15.5278,1836
15.5306,1830
15.5333,1801
15.5361,1741
15.5389,1694
15.5417,1658
15.5444,1620
15.5472,1625
15.5500,1641
15.5528,1658
15.5556,1657
15.5583,1637
15.5611,1614
15.5639,1603
15.5667,1582
15.5694,1565
15.5722,1555
15.5750,1550
15.5778,1565
15.5806,1575
15.5833,1579
15.5861,1578
15.5889,1592
15.5917,1620
15.5944,1636
15.5972,1668
15.6000,1703
15.6028,1744
15.6056,1756
15.6083,1713
15.6111,1631
15.6139,1565
15.6167,1548
15.6194,1598
15.6222,1726
15.6250,1888
15.6278,2022
15.6306,2091
15.6333,2085
15.6361,1972
15.6389,1843
15.6417,1728
15.6444,1628
15.6472,1566
15.6500,1500
15.6528,1437
15.6556,1390
15.6583,1327
15.6611,1288
15.6639,1275
15.6667,1317
15.6694,1388
15.6722,1489
15.6750,1577
15.6778,1639
15.6806,1671
15.6833,1673
15.6861,1658
15.6889,1641
15.6917,1649
15.6944,1657
15.6972,1673
15.7000,1688
15.7028,1707
15.7056,1707
15.7083,1696
15.7111,1696
15.7139,1717
15.7167,1732
15.7194,1749
15.7222,1749
15.7250,1717
15.7278,1665
15.7306,1640
15.7333,1645
15.7361,1672
15.7389,1693
15.7417,1695
15.7444,1685
15.7472,1648
15.7500,1634
15.7528,1630
15.7556,1657
15.7583,1686
15.7611,1716
15.7639,1725
15.7667,1721
15.7694,1716
15.7722,1728
15.7750,1732
15.7778,1732
15.7806,1725
15.7833,1713
15.7861,1700
15.7889,1711
15.7917,1740
15.7944,1760
15.7972,1790
15.8000,1786
15.8028,1788
15.8056,1794
15.8083,1829
15.8111,1840
15.8139,1850
15.8167,1857
15.8194,1846
15.8222,1826
15.8250,1810
15.8278,1820
15.8306,1843
15.8333,1865
15.8361,1878
15.8389,1864
15.8417,1845
15.8444,1821
15.8472,1795
15.8500,1792
15.8528,1804
15.8556,1811
15.8583,1816
15.8611,1794
15.8639,1765
15.8667,1739
15.8694,1736
15.8722,1722
15.8750,1715
15.8778,1712
15.8806,1710
15.8833,1727
15.8861,1729
15.8889,1720
15.8917,1707
15.8944,1690
15.8972,1690
15.9000,1712
15.9028,1716
15.9056,1720
15.9083,1716
15.9111,1701
15.9139,1693
15.9167,1715
15.9194,1732
15.9222,1750
15.9250,1767
15.9278,1780
15.9306,1789
15.9333,1786
15.9361,1784
15.9389,1767
15.9417,1775
15.9444,1778
15.9472,1766
15.9500,1759
15.9528,1747
15.9556,1757
15.9583,1775
15.9611,1784
15.9639,1776
15.9667,1761
15.9694,1747
15.9722,1761
15.9750,1773
15.9778,1793
15.9806,1796
15.9833,1802
15.9861,1778
15.9889,1759
15.9917,1731
15.9944,1700
15.9972,1700
16.0000,1700
16.0028,1700
16.0056,1716
16.0083,1719
16.0111,1745
16.0139,1758
16.0167,1760
16.0194,1749
16.0222,1751
16.0250,1742
16.0278,1741
16.0306,1747
16.0333,1753
16.0361,1769
16.0389,1791
16.0417,1820
16.0444,1839
16.0472,1848
16.0500,1843
16.0528,1820
16.0556,1779
16.0583,1727
16.0611,1703
16.0639,1708
16.0667,1735
16.0694,1797
16.0722,1847
16.0750,1889
16.0778,1895
16.0806,1889
16.0833,1859
16.0861,1837
16.0889,1824
16.0917,1834
16.0944,1851
16.0972,1871
16.1000,1878
16.1028,1886
16.1056,1891
16.1083,1896
16.1111,1873
16.1139,1860
16.1167,1852
16.1194,1845
16.1222,1826
16.1250,1787
16.1278,1759
16.1306,1743
16.1333,1730
16.1361,1713
16.1389,1698
16.1417,1702
16.1444,1712
16.1472,1710
16.1500,1708
16.1528,1695
16.1556,1699
16.1583,1693
16.1611,1694
16.1639,1683
16.1667,1690
16.1694,1686
16.1722,1680
16.1750,1687
16.1778,1695
16.1806,1718
16.1833,1742
16.1861,1744
16.1889,1719
16.1917,1699
16.1944,1670
16.1972,1650
16.2000,1630
16.2028,1620
16.2056,1600
16.2083,1636
16.2111,1697
16.2139,1807
16.2167,1950
16.2194,2070
16.2222,2136
16.2250,2086
16.2278,1982
16.2306,1870
16.2333,1781
16.2361,1713
16.2389,1650
16.2417,1558
16.2444,1463
16.2472,1399
16.2500,1352
16.2528,1341
16.2556,1378
16.2583,1436
16.2611,1534
16.2639,1639
16.2667,1719
16.2694,1760
16.2722,1755
16.2750,1741
16.2778,1704
16.2806,1663
16.2833,1639
16.2861,1617
16.2889,1629
16.2917,1654
16.2944,1663
16.2972,1674
16.3000,1688
16.3028,1715
16.3056,1748
16.3083,1778
16.3111,1802
16.3139,1779
16.3167,1743
16.3194,1704
16.3222,1660
16.3250,1652
16.3278,1666
16.3306,1683
16.3333,1706
16.3361,1724
16.3389,1752
16.3417,1774
16.3444,1779
16.3472,1784
16.3500,1783
16.3528,1762
16.3556,1751
16.3583,1749
16.3611,1746
16.3639,1745
16.3667,1741
16.3694,1740
16.3722,1770
16.3750,1794
16.3778,1806
16.3806,1813
16.3833,1814
16.3861,1828
16.3889,1865
16.3917,1881
16.3944,1862
16.3972,1793
16.4000,1730
16.4028,1694
16.4056,1702
16.4083,1725
16.4111,1766
16.4139,1764
16.4167,1774
16.4194,1791
16.4222,1807
16.4250,1820
16.4278,1819
16.4306,1824
16.4333,1823
16.4361,1831
16.4389,1810
16.4417,1773
16.4444,1723
16.4472,1680
16.4500,1668
16.4528,1682
16.4556,1713
16.4583,1738
16.4611,1746
16.4639,1730
16.4667,1711
16.4694,1687
16.4722,1670
16.4750,1639
16.4778,1624
16.4806,1646
16.4833,1666
16.4861,1698
16.4889,1733
16.4917,1755
16.4944,1761
16.4972,1757
16.5000,1750
16.5028,1743
16.5056,1749
16.5083,1751
16.5111,1746
16.5139,1725
16.5167,1698
16.5194,1667
16.5222,1640
16.5250,1641
16.5278,1646
16.5306,1669
16.5333,1674
16.5361,1666
16.5389,1655
16.5417,1654
16.5444,1675
16.5472,1690
16.5500,1697
16.5528,1698
16.5556,1687
16.5583,1687
16.5611,1695
16.5639,1684
16.5667,1691
16.5694,1690
16.5722,1711
16.5750,1727
16.5778,1740
16.5806,1736
16.5833,1743
16.5861,1751
16.5889,1759
16.5917,1757
16.5944,1764
16.5972,1749
16.6000,1733
16.6028,1692
16.6056,1676
16.6083,1656
16.6111,1656
16.6139,1680
16.6167,1696
16.6194,1706
16.6222,1703
16.6250,1692
16.6278,1683
16.6306,1691
16.6333,1690
16.6361,1681
16.6389,1676
16.6417,1668
16.6444,1651
16.6472,1640
16.6500,1654
16.6528,1685
16.6556,1705
16.6583,1736
16.6611,1763
16.6639,1796
16.6667,1805
16.6694,1796
16.6722,1787
16.6750,1777
16.6778,1784
16.6806,1799
16.6833,1810
16.6861,1814
16.6889,1813
16.6917,1819
16.6944,1834
16.6972,1830
16.7000,1830
16.7028,1818
16.7056,1803
16.7083,1791
16.7111,1747
16.7139,1719
16.7167,1699
16.7194,1673
16.7222,1655
16.7250,1634
16.7278,1626
16.7306,1626
16.7333,1629
16.7361,1633
16.7389,1637
16.7417,1650
16.7444,1662
16.7472,1679
16.7500,1687
16.7528,1676
16.7556,1649
16.7583,1630
16.7611,1604
16.7639,1580
16.7667,1565
16.7694,1564
16.7722,1560
16.7750,1591
16.7778,1658
16.7806,1711
16.7833,1720
16.7861,1674
16.7889,1610
16.7917,1542
16.7944,1542
16.7972,1581
16.8000,1678
16.8028,1803
16.8056,1951
16.8083,2056
16.8111,2084
16.8139,2015
16.8167,1918
16.8194,1809
16.8222,1735
16.8250,1674
16.8278,1640
16.8306,1573
16.8333,1485
16.8361,1414
16.8389,1366
16.8417,1343
16.8444,1356
16.8472,1393
16.8500,1455
16.8528,1514
16.8556,1586
16.8583,1639
16.8611,1676
16.8639,1698
16.8667,1710
16.8694,1711
16.8722,1716
16.8750,1712
16.8778,1701
16.8806,1689
16.8833,1682
16.8861,1678
16.8889,1669
16.8917,1671
16.8944,1677
16.8972,1681
16.9000,1692
16.9028,1700
16.9056,1705
16.9083,1714
16.9111,1721
16.9139,1716
16.9167,1715
16.9194,1714
16.9222,1715
16.9250,1710
16.9278,1727
16.9306,1749
16.9333,1760
16.9361,1792
16.9389,1821
16.9417,1846
16.9444,1840
16.9472,1806
16.9500,1742
16.9528,1705
16.9556,1693
16.9583,1683
16.9611,1681
16.9639,1693
16.9667,1715
16.9694,1746
16.9722,1768
16.9750,1777
16.9778,1764
16.9806,1744
16.9833,1723
16.9861,1720
16.9889,1721
16.9917,1736
16.9944,1766
16.9972,1785
17.0000,1735
17.0028,1731
17.0056,1736
17.0083,1740
17.0111,1746
17.0139,1738
17.0167,1761
17.0194,1773
17.0222,1781
17.0250,1781
17.0278,1767
17.0306,1748
17.0333,1714
17.0361,1702
17.0389,1712
17.0417,1723
17.0444,1734
17.0472,1753
17.0500,1767
17.0528,1755
17.0556,1730
17.0583,1715
17.0611,1703
17.0639,1716
17.0667,1717
17.0694,1698
17.0722,1696
17.0750,1689
17.0778,1698
17.0806,1713
17.0833,1725
17.0861,1731
17.0889,1733
17.0917,1721
17.0944,1707
17.0972,1708
17.1000,1709
17.1028,1713
17.1056,1705
17.1083,1696
17.1111,1703
17.1139,1708
17.1167,1710
17.1194,1713
17.1222,1709
17.1250,1701
17.1278,1694
17.1306,1698
17.1333,1706
17.1361,1710
17.1389,1718
17.1417,1731
17.1444,1744
17.1472,1735
17.1500,1717
17.1528,1711
17.1556,1719
17.1583,1733
17.1611,1730
17.1639,1733
17.1667,1733
17.1694,1735
17.1722,1743
17.1750,1744
17.1778,1745
17.1806,1726
17.1833,1721
17.1861,1701
17.1889,1687
17.1917,1681
17.1944,1702
17.1972,1718
17.2000,1736
17.2028,1731
17.2056,1713
17.2083,1691
17.2111,1679
17.2139,1677
17.2167,1686
17.2194,1684
17.2222,1697
17.2250,1693
17.2278,1704
17.2306,1688
17.2333,1676
17.2361,1667
17.2389,1664
17.2417,1674
17.2444,1680
17.2472,1686
17.2500,1696
17.2528,1724
17.2556,1747
17.2583,1765
17.2611,1763
17.2639,1751
17.2667,1738
17.2694,1736
17.2722,1757
17.2750,1774
17.2778,1792
17.2806,1794
17.2833,1794
17.2861,1782
17.2889,1806
17.2917,1828
17.2944,1834
17.2972,1848
17.3000,1843
17.3028,1846
17.3056,1846
17.3083,1833
17.3111,1823
17.3139,1794
17.3167,1771
17.3194,1763
17.3222,1764
17.3250,1785
17.3278,1798
17.3306,1818
17.3333,1798
17.3361,1765
17.3389,1720
17.3417,1695
17.3444,1691
17.3472,1689
17.3500,1696
17.3528,1713
17.3556,1722
17.3583,1717
17.3611,1700
17.3639,1681
17.3667,1662
17.3694,1648
17.3722,1648
17.3750,1650
17.3778,1656
17.3806,1668
17.3833,1676
17.3861,1692
17.3889,1704
17.3917,1726
17.3944,1738
17.3972,1726
17.4000,1718
17.4028,1715
17.4056,1700
17.4083,1668
17.4111,1633
17.4139,1611
17.4167,1626
17.4194,1669
17.4222,1734
17.4250,1836
17.4278,1961
17.4306,2036
17.4333,2071
17.4361,2013
17.4389,1914
17.4417,1830
17.4444,1754
17.4472,1707
17.4500,1690
17.4528,1667
17.4556,1623
17.4583,1562
17.4611,1484
17.4639,1407
17.4667,1379
17.4694,1410
17.4722,1501
17.4750,1598
17.4778,1676
17.4806,1712
17.4833,1725
17.4861,1723
17.4889,1714
17.4917,1719
17.4944,1734
17.4972,1750
17.5000,1754
17.5028,1749
17.5056,1736
17.5083,1704
17.5111,1664
17.5139,1639
17.5167,1643
17.5194,1671
17.5222,1704
17.5250,1714
17.5278,1718
17.5306,1713
17.5333,1725
17.5361,1738
17.5389,1763
17.5417,1754
17.5444,1753
17.5472,1742
17.5500,1735
17.5528,1747
17.5556,1774
17.5583,1788
17.5611,1795
17.5639,1809
17.5667,1805
17.5694,1797
17.5722,1790
17.5750,1778
17.5778,1780
17.5806,1784
17.5833,1776
17.5861,1777
17.5889,1781
17.5917,1781
17.5944,1771
17.5972,1770
17.6000,1787
17.6028,1795
17.6056,1809
17.6083,1813
17.6111,1822
17.6139,1813
17.6167,1803
17.6194,1805
17.6222,1802
17.6250,1803
17.6278,1780
17.6306,1756
17.6333,1747
17.6361,1754
17.6389,1783
17.6417,1819
17.6444,1839
17.6472,1830
17.6500,1794
17.6528,1743
17.6556,1715
17.6583,1687
17.6611,1688
17.6639,1709
17.6667,1718
17.6694,1725
17.6722,1730
17.6750,1737
17.6778,1728
17.6806,1719
17.6833,1702
17.6861,1661
17.6889,1629
17.6917,1620
17.6944,1627
17.6972,1629
17.7000,1628
17.7028,1633
17.7056,1648
17.7083,1666
17.7111,1673
17.7139,1678
17.7167,1692
17.7194,1722
17.7222,1720
17.7250,1729
17.7278,1730
17.7306,1724
17.7333,1720
17.7361,1738
17.7389,1761
17.7417,1762
17.7444,1758
17.7472,1742
17.7500,1730
17.7528,1717
17.7556,1711
17.7583,1712
17.7611,1700
17.7639,1694
17.7667,1688
17.7694,1681
17.7722,1689
17.7750,1692
17.7778,1722
17.7806,1728
17.7833,1732
17.7861,1717
17.7889,1690
17.7917,1678
17.7944,1685
17.7972,1683
17.8000,1682
17.8028,1690
17.8056,1705
17.8083,1734
17.8111,1734
17.8139,1728
17.8167,1718
17.8194,1723
17.8222,1727
17.8250,1739
17.8278,1745
17.8306,1740
17.8333,1743
17.8361,1736
17.8389,1724
17.8417,1724
17.8444,1732
17.8472,1740
17.8500,1746
17.8528,1737
17.8556,1727
17.8583,1723
17.8611,1714
17.8639,1703
17.8667,1692
17.8694,1699
17.8722,1709
17.8750,1741
17.8778,1768
17.8806,1786
17.8833,1819
17.8861,1818
17.8889,1828
17.8917,1835
17.8944,1845
17.8972,1859
17.9000,1865
17.9028,1873
17.9056,1898
17.9083,1907
17.9111,1898
17.9139,1865
17.9167,1842
17.9194,1840
17.9222,1846
17.9250,1859
17.9278,1865
17.9306,1843
17.9333,1818
17.9361,1811
17.9389,1799
17.9417,1786
17.9444,1776
17.9472,1764
17.9500,1743
17.9528,1708
17.9556,1696
17.9583,1693
17.9611,1700
17.9639,1718
17.9667,1726
17.9694,1732
17.9722,1738
17.9750,1705
17.9778,1679
17.9806,1654
17.9833,1641
17.9861,1648
17.9889,1651
17.9917,1648
17.9944,1644
17.9972,1655
18.0000,1680
18.0028,1692
18.0056,1715
18.0083,1720
18.0111,1721
18.0139,1713
18.0167,1691
18.0194,1672
18.0222,1672
18.0250,1705
18.0278,1774
18.0306,1881
18.0333,1963
18.0361,2001
18.0389,1956
18.0417,1892
18.0444,1816
18.0472,1771
18.0500,1767
18.0528,1785
18.0556,1771
18.0583,1725
18.0611,1654
18.0639,1560
18.0667,1439
18.0694,1346
18.0722,1330
18.0750,1378
18.0778,1496
18.0806,1614
18.0833,1688
18.0861,1733
18.0889,1743
18.0917,1738
18.0944,1735
18.0972,1724
18.1000,1721
18.1028,1713
18.1056,1722
18.1083,1720
18.1111,1715
18.1139,1708
18.1167,1714
18.1194,1711
18.1222,1717
18.1250,1736
18.1278,1744
18.1306,1758
18.1333,1752
18.1361,1729
18.1389,1724
18.1417,1704
18.1444,1707
18.1472,1720
18.1500,1729
18.1528,1748
18.1556,1756
18.1583,1754
18.1611,1740
18.1639,1725
18.1667,1731
18.1694,1742
18.1722,1738
18.1750,1725
18.1778,1713
18.1806,1717
18.1833,1712
18.1861,1714
18.1889,1715
18.1917,1725
18.1944,1725
18.1972,1729
18.2000,1739
18.2028,1747
18.2056,1761
18.2083,1772
18.2111,1797
18.2139,1830
18.2167,1843
18.2194,1850
18.2222,1830
18.2250,1809
18.2278,1781
18.2306,1786
18.2333,1785
18.2361,1793
18.2389,1812
18.2417,1809
18.2444,1815
18.2472,1807
18.2500,1794
18.2528,1778
18.2556,1773
18.2583,1775
18.2611,1827
18.2639,1819
18.2667,1840
18.2694,1840
18.2722,1825
18.2750,1800
18.2778,1772
18.2806,1748
18.2833,1740
18.2861,1734
18.2889,1729
18.2917,1723
18.2944,1723
18.2972,1736
18.3000,1728
18.3028,1731
18.3056,1719
18.3083,1702
18.3111,1707
18.3139,1715
18.3167,1728
18.3194,1732
18.3222,1726
18.3250,1735
18.3278,1722
18.3306,1707
18.3333,1675
18.3361,1658
18.3389,1669
18.3417,1723
18.3444,1789
18.3472,1834
18.3500,1839
18.3528,1809
18.3556,1768
18.3583,1750
18.3611,1723
18.3639,1715
18.3667,1726
18.3694,1750
18.3722,1778
18.3750,1786
18.3778,1777
18.3806,1756
18.3833,1739
18.3861,1719
18.3889,1729
18.3917,1738
18.3944,1762
18.3972,1772
18.4000,1792
18.4028,1797
18.4056,1772
18.4083,1743
18.4111,1710
18.4139,1695
18.4167,1691
18.4194,1705
18.4222,1711
18.4250,1718
18.4278,1730
18.4306,1756
18.4333,1759
18.4361,1748
18.4389,1748
18.4417,1741
18.4444,1718
18.4472,1712
18.4500,1726
18.4528,1744
18.4556,1757
18.4583,1763
18.4611,1738
18.4639,1753
18.4667,1771
18.4694,1796
18.4722,1810
18.4750,1821
18.4778,1830
18.4806,1843
18.4833,1832
18.4861,1837
18.4889,1829
18.4917,1835
18.4944,1849
18.4972,1873
18.5000,1892
18.5028,1886
18.5056,1882
18.5083,1868
18.5111,1858
18.5139,1857
18.5167,1839
18.5194,1813
18.5222,1802
18.5250,1775
18.5278,1736
18.5306,1675
18.5333,1612
18.5361,1573
18.5389,1557
18.5417,1571
18.5444,1591
18.5472,1606
18.5500,1618
18.5528,1653
18.5556,1677
18.5583,1681
18.5611,1677
18.5639,1667
18.5667,1653
18.5694,1635
18.5722,1639
18.5750,1666
18.5778,1698
18.5806,1703
18.5833,1707
18.5861,1698
18.5889,1698
18.5917,1691
18.5944,1676
18.5972,1668
18.6000,1649
18.6028,1656
18.6056,1699
18.6083,1758
18.6111,1873
18.6139,2003
18.6167,2114
18.6194,2161
18.6222,2102
18.6250,1975
18.6278,1850
18.6306,1773
18.6333,1751
18.6361,1746
18.6389,1687
18.6417,1618
18.6444,1546
18.6472,1469
18.6500,1397
18.6528,1346
18.6556,1339
18.6583,1413
18.6611,1507
18.6639,1606
18.6667,1678
18.6694,1715
18.6722,1713
18.6750,1702
18.6778,1701
18.6806,1712
18.6833,1715
18.6861,1726
18.6889,1733
18.6917,1732
18.6944,1741
18.6972,1742
18.7000,1753
18.7028,1771
18.7056,1789
18.7083,1798
18.7111,1792
18.7139,1773
18.7167,1748
18.7194,1746
18.7222,1762
18.7250,1773
18.7278,1784
18.7306,1785
18.7333,1769
18.7361,1745
18.7389,1740
18.7417,1744
18.7444,1760
18.7472,1765
18.7500,1775
18.7528,1771
18.7556,1775
18.7583,1778
18.7611,1777
18.7639,1773
18.7667,1792
18.7694,1796
18.7722,1808
18.7750,1800
18.7778,1786
18.7806,1764
18.7833,1741
18.7861,1724
18.7889,1731
18.7917,1739
18.7944,1753
18.7972,1785
18.8000,1810
18.8028,1815
18.8056,1818
18.8083,1794
18.8111,1793
18.8139,1786
18.8167,1793
18.8194,1783
18.8222,1789
18.8250,1799
18.8278,1801
18.8306,1808
18.8333,1793
18.8361,1786
18.8389,1779
18.8417,1780
18.8444,1760
18.8472,1742
18.8500,1722
18.8528,1725
18.8556,1737
18.8583,1746
18.8611,1748
18.8639,1757
18.8667,1736
18.8694,1724
18.8722,1716
18.8750,1721
18.8778,1720
18.8806,1724
18.8833,1731
18.8861,1719
18.8889,1706
18.8917,1694
18.8944,1701
18.8972,1723
18.9000,1732
18.9028,1734
18.9056,1719
18.9083,1682
18.9111,1660
18.9139,1653
18.9167,1668
18.9194,1691
18.9222,1703
18.9250,1708
18.9278,1723
18.9306,1730
18.9333,1748
18.9361,1747
18.9389,1728
18.9417,1716
18.9444,1727
18.9472,1748
18.9500,1768
18.9528,1770
18.9556,1763
18.9583,1752
18.9611,1734
18.9639,1712
18.9667,1697
18.9694,1702
18.9722,1716
18.9750,1728
18.9778,1732
18.9806,1734
18.9833,1741
18.9861,1750
18.9889,1756
18.9917,1757
18.9944,1740
18.9972,1735
19.0000,1721
19.0028,1713
19.0056,1731
19.0083,1747
19.0111,1756
19.0139,1748
19.0167,1727
19.0194,1715
19.0222,1716
19.0250,1717
19.0278,1735
19.0306,1754
19.0333,1785
19.0361,1816
19.0389,1814
19.0417,1826
19.0444,1813
19.0472,1821
19.0500,1820
19.0528,1806
19.0556,1808
19.0583,1806
19.0611,1807
19.0639,1810
19.0667,1827
19.0694,1852
19.0722,1864
19.0750,1860
19.0778,1853
19.0806,1843
19.0833,1828
19.0861,1827
19.0889,1831
19.0917,1820
19.0944,1789
19.0972,1767
19.1000,1749
19.1028,1735
19.1056,1739
19.1083,1713
19.1111,1720
19.1139,1732
19.1167,1747
19.1194,1732
19.1222,1679
19.1250,1643
19.1278,1630
19.1306,1647
19.1333,1663
19.1361,1649
19.1389,1611
19.1417,1600
19.1444,1587
19.1472,1586
19.1500,1597
19.1528,1599
19.1556,1598
19.1583,1604
19.1611,1618
19.1639,1650
19.1667,1671
19.1694,1667
19.1722,1665
19.1750,1653
19.1778,1659
19.1806,1686
19.1833,1724
19.1861,1822
19.1889,1940
19.1917,2044
19.1944,2087
19.1972,2049
19.2000,1936
19.2028,1813
19.2056,1712
19.2083,1651
19.2111,1609
19.2139,1569
19.2167,1509
19.2194,1451
19.2222,1405
19.2250,1382
19.2278,1372
19.2306,1388
19.2333,1441
19.2361,1515
19.2389,1575
19.2417,1641
19.2444,1693
19.2472,1704
19.2500,1671
19.2528,1627
19.2556,1605
19.2583,1595
19.2611,1615
19.2639,1636
19.2667,1646
19.2694,1656
19.2722,1670
19.2750,1672
19.2778,1678
19.2806,1682
19.2833,1670
19.2861,1658
19.2889,1650
19.2917,1643
19.2944,1637
19.2972,1650
19.3000,1674
19.3028,1706
19.3056,1731
19.3083,1722
19.3111,1706
19.3139,1685
19.3167,1677
19.3194,1688
19.3222,1720
19.3250,1750
19.3278,1769
19.3306,1756
19.3333,1732
19.3361,1710
19.3389,1724
19.3417,1729
19.3444,1761
19.3472,1773
19.3500,1776
19.3528,1764
19.3556,1764
19.3583,1753
19.3611,1750
19.3639,1760
19.3667,1763
19.3694,1756
19.3722,1749
19.3750,1744
19.3778,1752
19.3806,1764
19.3833,1782
19.3861,1788
19.3889,1794
19.3917,1799
19.3944,1814
19.3972,1816
19.4000,1811
19.4028,1808
19.4056,1805
19.4083,1788
19.4111,1768
19.4139,1765
19.4167,1766
19.4194,1787
19.4222,1813
19.4250,1821
19.4278,1835
19.4306,1840
19.4333,1826
19.4361,1802
19.4389,1761
19.4417,1738
19.4444,1719
19.4472,1715
19.4500,1704
19.4528,1706
19.4556,1719
19.4583,1708
19.4611,1684
19.4639,1673
19.4667,1668
19.4694,1666
19.4722,1674
19.4750,1693
19.4778,1722
19.4806,1749
19.4833,1755
19.4861,1752
19.4889,1730
19.4917,1720
19.4944,1730
19.4972,1761
19.5000,1764
19.5028,1767
19.5056,1759
19.5083,1751
19.5111,1743
19.5139,1750
19.5167,1750
19.5194,1744
19.5222,1734
19.5250,1739
19.5278,1755
19.5306,1779
19.5333,1801
19.5361,1828
19.5389,1840
19.5417,1822
19.5444,1785
19.5472,1751
19.5500,1702
19.5528,1661
19.5556,1633
19.5583,1632
19.5611,1649
19.5639,1655
19.5667,1668
19.5694,1655
19.5722,1653
19.5750,1660
19.5778,1659
19.5806,1692
19.5833,1712
19.5861,1738
19.5889,1754
19.5917,1763
19.5944,1763
19.5972,1747
19.6000,1738
19.6028,1740
19.6056,1744
19.6083,1756
19.6111,1758
19.6139,1795
19.6167,1841
19.6194,1864
19.6222,1867
19.6250,1868
19.6278,1856
19.6306,1829
19.6333,1834
19.6361,1856
19.6389,1876
19.6417,1882
19.6444,1885
19.6472,1869
19.6500,1857
19.6528,1847
19.6556,1829
19.6583,1805
19.6611,1768
19.6639,1737
19.6667,1695
19.6694,1684
19.6722,1695
19.6750,1721
19.6778,1731
19.6806,1725
19.6833,1695
19.6861,1655
19.6889,1626
19.6917,1599
19.6944,1604
19.6972,1611
19.7000,1622
19.7028,1634
19.7056,1643
19.7083,1647
19.7111,1642
19.7139,1631
19.7167,1609
19.7194,1615
19.7222,1625
19.7250,1643
19.7278,1655
19.7306,1641
19.7333,1647
19.7361,1667
19.7389,1713
19.7417,1768
19.7444,1793
19.7472,1776
19.7500,1738
19.7528,1710
19.7556,1720
19.7583,1789
19.7611,1885
19.7639,1987
19.7667,2069
19.7694,2068
19.7722,1964
19.7750,1818
19.7778,1684
19.7806,1600
19.7833,1555
19.7861,1521
19.7889,1460
19.7917,1405
19.7944,1356
19.7972,1314
19.8000,1301
19.8028,1352
19.8056,1461
19.8083,1584
19.8111,1668
19.8139,1679
19.8167,1680
19.8194,1656
19.8222,1641
19.8250,1655
19.8278,1661
19.8306,1659
19.8333,1650
19.8361,1636
19.8389,1631
19.8417,1628
19.8444,1634
19.8472,1646
19.8500,1671
19.8528,1678
19.8556,1678
19.8583,1666
19.8611,1665
19.8639,1658
19.8667,1662
19.8694,1670
19.8722,1679
19.8750,1682
19.8778,1675
19.8806,1682
19.8833,1694
19.8861,1726
19.8889,1743
19.8917,1750
19.8944,1743
19.8972,1720
19.9000,1707
19.9028,1706
19.9056,1692
19.9083,1691
19.9111,1707
19.9139,1724
19.9167,1722
19.9194,1726
19.9222,1715
19.9250,1708
19.9278,1715
19.9306,1729
19.9333,1748
19.9361,1758
19.9389,1751
19.9417,1747
19.9444,1740
19.9472,1732
19.9500,1735
19.9528,1754
19.9556,1763
19.9583,1766
19.9611,1758
19.9639,1753
19.9667,1756
19.9694,1763
19.9722,1755
19.9750,1774
19.9778,1777
19.9806,1771
19.9833,1771
19.9861,1756
19.9889,1738
19.9917,1733
19.9944,1738
19.9972,1740
20.0000,1748
20.0028,1745
20.0056,1731
20.0083,1713
20.0111,1703
20.0139,1712
20.0167,1720
20.0194,1715
20.0222,1694
20.0250,1666
20.0278,1634
20.0306,1614
20.0333,1623
20.0361,1648
20.0389,1672
20.0417,1676
20.0444,1670
20.0472,1651
20.0500,1645
20.0528,1649
20.0556,1663
20.0583,1670
20.0611,1664
20.0639,1674
20.0667,1680
20.0694,1691
20.0722,1712
20.0750,1726
20.0778,1733
20.0806,1752
20.0833,1755
20.0861,1762
20.0889,1768
20.0917,1763
20.0944,1758
20.0972,1766
20.1000,1768
20.1028,1772
20.1056,1759
20.1083,1725
20.1111,1686
20.1139,1635
20.1167,1604
20.1194,1631
20.1222,1668
20.1250,1693
20.1278,1694
20.1306,1683
20.1333,1669
20.1361,1673
20.1389,1673
20.1417,1693
20.1444,1689
20.1472,1684
20.1500,1671
20.1528,1678
20.1556,1686
20.1583,1692
20.1611,1683
20.1639,1686
20.1667,1686
20.1694,1690
20.1722,1692
20.1750,1693
20.1778,1707
20.1806,1712
20.1833,1714
20.1861,1715
20.1889,1743
20.1917,1780
20.1944,1823
20.1972,1844
20.2000,1854
20.2028,1866
20.2056,1853
20.2083,1846
20.2111,1834
20.2139,1812
20.2167,1812
20.2194,1796
20.2222,1786
20.2250,1787
20.2278,1790
20.2306,1803
20.2333,1812
20.2361,1824
20.2389,1835
20.2417,1843
20.2444,1827
20.2472,1811
20.2500,1775
20.2528,1734
20.2556,1709
20.2583,1705
20.2611,1700
20.2639,1695
20.2667,1692
20.2694,1699
20.2722,1697
20.2750,1692
20.2778,1673
20.2806,1649
20.2833,1628
20.2861,1620
20.2889,1629
20.2917,1654
20.2944,1672
20.2972,1676
20.3000,1656
20.3028,1626
20.3056,1599
20.3083,1576
20.3111,1597
20.3139,1634
20.3167,1639
20.3194,1642
20.3222,1634
20.3250,1631
20.3278,1645
20.3306,1672
20.3333,1692
20.3361,1700
20.3389,1728
20.3417,1768
20.3444,1859
20.3472,1963
20.3500,2051
20.3528,2091
20.3556,2041
20.3583,1942
20.3611,1812
20.3639,1711
20.3667,1642
20.3694,1573
20.3722,1499
20.3750,1436
20.3778,1400
20.3806,1376
20.3833,1362
20.3861,1363
20.3889,1411
20.3917,1500
20.3944,1615
20.3972,1685
20.4000,1711
20.4028,1689
20.4056,1667
20.4083,1653
20.4111,1641
20.4139,1654
20.4167,1670
20.4194,1674
20.4222,1673
20.4250,1663
20.4278,1675
20.4306,1675
20.4333,1686
20.4361,1701
20.4389,1707
20.4417,1707
20.4444,1708
20.4472,1702
20.4500,1712
20.4528,1717
20.4556,1735
20.4583,1757
20.4611,1763
20.4639,1765
20.4667,1754
20.4694,1746
20.4722,1731
20.4750,1725
20.4778,1735
20.4806,1750
20.4833,1754
20.4861,1761
20.4889,1744
20.4917,1744
20.4944,1767
20.4972,1789
20.5000,1787
20.5028,1769
20.5056,1724
20.5083,1690
20.5111,1674
20.5139,1691
20.5167,1708
20.5194,1740
20.5222,1768
20.5250,1787
20.5278,1792
20.5306,1784
20.5333,1777
20.5361,1755
20.5389,1767
20.5417,1778
20.5444,1806
20.5472,1824
20.5500,1826
20.5528,1812
20.5556,1797
20.5583,1773
20.5611,1771
20.5639,1772
20.5667,1769
20.5694,1729
20.5722,1687
20.5750,1666
20.5778,1672
20.5806,1687
20.5833,1691
20.5861,1701
20.5889,1705
20.5917,1719
20.5944,1726
20.5972,1716
20.6000,1685
20.6028,1651
20.6056,1637
20.6083,1650
20.6111,1661
20.6139,1680
20.6167,1686
20.6194,1691
20.6222,1700
20.6250,1699
20.6278,1675
20.6306,1636
20.6333,1620
20.6361,1612
20.6389,1625
20.6417,1650
20.6444,1683
20.6472,1713
20.6500,1727
20.6528,1730
20.6556,1714
20.6583,1685
20.6611,1661
20.6639,1640
20.6667,1631
20.6694,1629
20.6722,1642
20.6750,1667
20.6778,1695
20.6806,1706
20.6833,1706
20.6861,1695
20.6889,1671
20.6917,1640
20.6944,1643
20.6972,1652
20.7000,1675
20.7028,1679
20.7056,1688
20.7083,1701
20.7111,1708
20.7139,1712
20.7167,1728
20.7194,1731
20.7222,1738
20.7250,1729
20.7278,1715
20.7306,1713
20.7333,1701
20.7361,1679
20.7389,1645
20.7417,1639
20.7444,1654
20.7472,1686
20.7500,1695
20.7528,1704
20.7556,1700
20.7583,1696
20.7611,1689
20.7639,1673
20.7667,1656
20.7694,1654
20.7722,1667
20.7750,1699
20.7778,1726
20.7806,1720
20.7833,1703
20.7861,1683
20.7889,1671
20.7917,1669
20.7944,1687
20.7972,1699
20.8000,1721
20.8028,1745
20.8056,1759
20.8083,1780
20.8111,1800
20.8139,1825
20.8167,1850
20.8194,1871
20.8222,1883
20.8250,1891
20.8278,1879
20.8306,1877
20.8333,1867
20.8361,1865
20.8389,1866
20.8417,1848
20.8444,1829
20.8472,1802
20.8500,1789
20.8528,1778
20.8556,1772
20.8583,1745
20.8611,1717
20.8639,1682
20.8667,1662
20.8694,1650
20.8722,1644
20.8750,1634
20.8778,1638
20.8806,1628
20.8833,1605
20.8861,1577
20.8889,1568
20.8917,1584
20.8944,1621
20.8972,1662
20.9000,1698
20.9028,1715
20.9056,1719
20.9083,1698
20.9111,1675
20.9139,1658
20.9167,1653
20.9194,1643
20.9222,1645
20.9250,1654
20.9278,1681
20.9306,1709
20.9333,1730
20.9361,1728
20.9389,1712
20.9417,1710
20.9444,1733
20.9472,1801
20.9500,1911
20.9528,2026
20.9556,2116
20.9583,2125
20.9611,2059
20.9639,1923
20.9667,1773
20.9694,1669
20.9722,1601
20.9750,1549
20.9778,1483
20.9806,1413
20.9833,1359
20.9861,1324
20.9889,1319
20.9917,1353
20.9944,1418
20.9972,1520
21.0000,1612
21.0028,1671
21.0056,1699
21.0083,1696
21.0111,1672
21.0139,1661
21.0167,1670
21.0194,1683
21.0222,1700
21.0250,1722
21.0278,1731
21.0306,1749
21.0333,1748
21.0361,1726
21.0389,1715
21.0417,1711
21.0444,1715
21.0472,1718
21.0500,1738
21.0528,1748
21.0556,1772
21.0583,1797
21.0611,1800
21.0639,1781
21.0667,1759
21.0694,1730
21.0722,1693
21.0750,1652
21.0778,1638
21.0806,1654
21.0833,1682
21.0861,1699
21.0889,1687
21.0917,1672
21.0944,1647
21.0972,1629
21.1000,1640
21.1028,1670
21.1056,1709
21.1083,1744
21.1111,1775
21.1139,1788
21.1167,1783
21.1194,1781
21.1222,1768
21.1250,1753
21.1278,1750
21.1306,1750
21.1333,1753
21.1361,1749
21.1389,1773
21.1417,1788
21.1444,1818
21.1472,1830
21.1500,1837
21.1528,1841
21.1556,1827
21.1583,1813
21.1611,1803
21.1639,1771
21.1667,1778
21.1694,1786
21.1722,1793
21.1750,1818
21.1778,1827
21.1806,1816
21.1833,1784
21.1861,1737
21.1889,1704
21.1917,1681
21.1944,1666
21.1972,1659
21.2000,1650
21.2028,1646
21.2056,1661
21.2083,1663
21.2111,1668
21.2139,1684
21.2167,1688
21.2194,1698
21.2222,1691
21.2250,1697
21.2278,1703
21.2306,1706
21.2333,1697
21.2361,1701
21.2389,1694
21.2417,1694
21.2444,1698
21.2472,1702
21.2500,1716
21.2528,1709
21.2556,1698
21.2583,1687
21.2611,1696
21.2639,1716
21.2667,1760
21.2694,1783
21.2722,1787
21.2750,1777
21.2778,1748
21.2806,1716
21.2833,1688
21.2861,1660
21.2889,1670
21.2917,1690
21.2944,1719
21.2972,1737
21.3000,1728
21.3028,1711
21.3056,1714
21.3083,1704
21.3111,1683
21.3139,1663
21.3167,1648
21.3194,1648
21.3222,1653
21.3250,1672
21.3278,1688
21.3306,1690
21.3333,1690
21.3361,1684
21.3389,1686
21.3417,1690
21.3444,1690
21.3472,1702
21.3500,1713
21.3528,1722
21.3556,1721
21.3583,1711
21.3611,1702
21.3639,1688
21.3667,1697
21.3694,1711
21.3722,1709
21.3750,1701
21.3778,1693
21.3806,1698
21.3833,1722
21.3861,1766
21.3889,1798
21.3917,1785
21.3944,1757
21.3972,1729
21.4000,1695
21.4028,1670
21.4056,1663
21.4083,1655
21.4111,1644
21.4139,1639
21.4167,1637
21.4194,1667
21.4222,1727
21.4250,1765
21.4278,1799
21.4306,1813
21.4333,1817
21.4361,1841
21.4389,1858
21.4417,1865
21.4444,1861
21.4472,1854
21.4500,1828
21.4528,1816
21.4556,1807
21.4583,1807
21.4611,1832
21.4639,1856
21.4667,1870
21.4694,1856
21.4722,1845
21.4750,1819
21.4778,1795
21.4806,1777
21.4833,1756
21.4861,1735
21.4889,1703
21.4917,1662
21.4944,1652
21.4972,1689
21.5000,1722
21.5028,1743
21.5056,1724
21.5083,1672
21.5111,1620
21.5139,1592
21.5167,1603
21.5194,1603
21.5222,1606
21.5250,1606
21.5278,1605
21.5306,1610
21.5333,1624
21.5361,1635
21.5389,1634
21.5417,1644
21.5444,1646
21.5472,1660
21.5500,1689
21.5528,1698
21.5556,1703
21.5583,1691
21.5611,1696
21.5639,1731
21.5667,1811
21.5694,1912
21.5722,2046
21.5750,2152
21.5778,2193
21.5806,2149
21.5833,2016
21.5861,1865
21.5889,1758
21.5917,1689
21.5944,1643
21.5972,1579
21.6000,1531
21.6028,1498
21.6056,1476
21.6083,1450
21.6111,1432
21.6139,1455
21.6167,1507
21.6194,1584
21.6222,1643
21.6250,1672
21.6278,1697
21.6306,1705
21.6333,1701
21.6361,1687
21.6389,1705
21.6417,1716
21.6444,1744
21.6472,1754
21.6500,1767
21.6528,1763
21.6556,1755
21.6583,1746
21.6611,1764
21.6639,1771
21.6667,1778
21.6694,1784
21.6722,1779
21.6750,1757
21.6778,1747
21.6806,1755
21.6833,1740
21.6861,1737
21.6889,1741
21.6917,1760
21.6944,1760
21.6972,1760
21.7000,1748
21.7028,1741
21.7056,1750
21.7083,1762
21.7111,1768
21.7139,1770
21.7167,1770
21.7194,1768
21.7222,1774
21.7250,1780
21.7278,1788
21.7306,1784
21.7333,1760
21.7361,1743
21.7389,1734
21.7417,1739
21.7444,1761
21.7472,1778
21.7500,1787
21.7528,1793
21.7556,1790
21.7583,1796
21.7611,1796
21.7639,1809
21.7667,1809
21.7694,1814
21.7722,1836
21.7750,1848
21.7778,1862
21.7806,1877
21.7833,1733
21.7861,1753
21.7889,1774
21.7917,1776
21.7944,1766
21.7972,1756
21.8000,1746
21.8028,1737
21.8056,1738
21.8083,1734
21.8111,1729
21.8139,1730
21.8167,1735
21.8194,1744
21.8222,1779
21.8250,1813
21.8278,1839
21.8306,1802
21.8333,1755
21.8361,1710
21.8389,1651
21.8417,1628
21.8444,1640
21.8472,1671
21.8500,1703
21.8528,1739
21.8556,1765
21.8583,1763
21.8611,1720
21.8639,1682
21.8667,1654
21.8694,1637
21.8722,1646
21.8750,1668
21.8778,1692
21.8806,1698
21.8833,1693
21.8861,1690
21.8889,1692
21.8917,1701
21.8944,1710
21.8972,1716
21.9000,1730
21.9028,1749
21.9056,1750
21.9083,1753
21.9111,1737
21.9139,1728
21.9167,1732
21.9194,1733
21.9222,1745
21.9250,1752
21.9278,1763
21.9306,1809
21.9333,1850
21.9361,1879
21.9389,1866
21.9417,1819
21.9444,1751
21.9472,1692
21.9500,1646
21.9528,1618
21.9556,1597
21.9583,1585
21.9611,1608
21.9639,1640
21.9667,1665
21.9694,1674
21.9722,1670
21.9750,1671
21.9778,1682
21.9806,1696
21.9833,1714
21.9861,1729
21.9889,1734
21.9917,1736
21.9944,1742
21.9972,1750
22.0000,1735
22.0028,1719
22.0056,1690
22.0083,1688
22.0111,1691
22.0139,1698
22.0167,1714
22.0194,1726
22.0222,1735
22.0250,1763
22.0278,1788
22.0306,1809
22.0333,1808
22.0361,1781
22.0389,1742
22.0417,1713
22.0444,1705
22.0472,1716
22.0500,1726
22.0528,1749
22.0556,1756
22.0583,1769
22.0611,1799
22.0639,1825
22.0667,1836
22.0694,1834
22.0722,1825
22.0750,1814
22.0778,1809
22.0806,1824
22.0833,1835
22.0861,1834
22.0889,1821
22.0917,1808
22.0944,1787
22.0972,1759
22.1000,1734
22.1028,1716
22.1056,1722
22.1083,1732
22.1111,1731
22.1139,1722
22.1167,1716
22.1194,1725
22.1222,1737
22.1250,1748
22.1278,1720
22.1306,1669
22.1333,1605
22.1361,1562
22.1389,1549
22.1417,1556
22.1444,1577
22.1472,1583
22.1500,1607
22.1528,1628
22.1556,1653
22.1583,1673
22.1611,1666
22.1639,1649
22.1667,1626
22.1694,1626
22.1722,1629
22.1750,1631
22.1778,1606
22.1806,1579
22.1833,1600
22.1861,1632
22.1889,1706
22.1917,1818
22.1944,1957
22.1972,2075
22.2000,2138
22.2028,2125
22.2056,2002
22.2083,1855
22.2111,1742
22.2139,1663
22.2167,1610
22.2194,1542
22.2222,1481
22.2250,1452
22.2278,1410
22.2306,1404
22.2333,1411
22.2361,1447
22.2389,1526
22.2417,1602
22.2444,1656
22.2472,1666
22.2500,1667
22.2528,1652
22.2556,1633
22.2583,1619
22.2611,1612
22.2639,1604
22.2667,1587
22.2694,1573
22.2722,1572
22.2750,1585
22.2778,1596
22.2806,1616
22.2833,1630
22.2861,1642
22.2889,1663
22.2917,1664
22.2944,1670
22.2972,1663
22.3000,1662
22.3028,1670
22.3056,1661
22.3083,1651
22.3111,1655
22.3139,1668
22.3167,1679
22.3194,1687
22.3222,1702
22.3250,1730
22.3278,1735
22.3306,1720
22.3333,1706
22.3361,1693
22.3389,1691
22.3417,1697
22.3444,1721
22.3472,1732
22.3500,1728
22.3528,1715
22.3556,1699
22.3583,1692
22.3611,1708
22.3639,1711
22.3667,1718
22.3694,1727
22.3722,1723
22.3750,1722
22.3778,1711
22.3806,1702
22.3833,1708
22.3861,1720
22.3889,1758
22.3917,1760
22.3944,1756
22.3972,1754
22.4000,1756
22.4028,1775
22.4056,1793
22.4083,1799
22.4111,1789
22.4139,1764
22.4167,1741
22.4194,1728
22.4222,1723
22.4250,1726
22.4278,1753
22.4306,1772
22.4333,1773
22.4361,1766
22.4389,1756
22.4417,1755
22.4444,1766
22.4472,1780
22.4500,1786
22.4528,1791
22.4556,1804
22.4583,1803
22.4611,1786
22.4639,1761
22.4667,1761
22.4694,1774
22.4722,1790
22.4750,1811
22.4778,1819
22.4806,1827
22.4833,1831
22.4861,1831
22.4889,1821
22.4917,1783
22.4944,1728
22.4972,1688
22.5000,1674
22.5028,1689
22.5056,1699
22.5083,1733
22.5111,1761
22.5139,1773
22.5167,1766
22.5194,1765
22.5222,1763
22.5250,1770
22.5278,1787
22.5306,1793
22.5333,1793
22.5361,1782
22.5389,1769
22.5417,1777
22.5444,1776
22.5472,1785
22.5500,1793
22.5528,1798
22.5556,1793
22.5583,1798
22.5611,1804
22.5639,1807
22.5667,1797
22.5694,1803
22.5722,1812
22.5750,1811
22.5778,1822
22.5806,1835
22.5833,1816
22.5861,1788
22.5889,1770
22.5917,1758
22.5944,1768
22.5972,1792
22.6000,1816
22.6028,1826
22.6056,1811
22.6083,1783
22.6111,1747
22.6139,1725
22.6167,1717
22.6194,1728
22.6222,1754
22.6250,1756
22.6278,1765
22.6306,1752
22.6333,1758
22.6361,1748
22.6389,1765
22.6417,1768
22.6444,1769
22.6472,1780
22.6500,1786
22.6528,1787
22.6556,1790
22.6583,1792
22.6611,1792
22.6639,1798
22.6667,1811
22.6694,1834
22.6722,1855
22.6750,1878
22.6778,1897
22.6806,1913
22.6833,1927
22.6861,1946
22.6889,1935
22.6917,1920
22.6944,1898
22.6972,1877
22.7000,1870
22.7028,1910
22.7056,1946
22.7083,1972
22.7111,1976
22.7139,1963
22.7167,1923
22.7194,1861
22.7222,1807
22.7250,1770
22.7278,1743
22.7306,1732
22.7333,1723
22.7361,1722
22.7389,1717
22.7417,1696
22.7444,1678
22.7472,1677
22.7500,1685
22.7528,1696
22.7556,1697
22.7583,1679
22.7611,1696
22.7639,1689
22.7667,1699
22.7694,1710
22.7722,1716
22.7750,1709
22.7778,1709
22.7806,1702
22.7833,1696
22.7861,1703
22.7889,1710
22.7917,1705
22.7944,1696
22.7972,1673
22.8000,1642
22.8028,1607
22.8056,1573
22.8083,1576
22.8111,1615
22.8139,1715
22.8167,1854
22.8194,1994
22.8222,2092
22.8250,2111
22.8278,2053
22.8306,1954
22.8333,1833
22.8361,1751
22.8389,1707
22.8417,1673
22.8444,1617
22.8472,1560
22.8500,1513
22.8528,1431
22.8556,1376
22.8583,1340
22.8611,1383
22.8639,1476
22.8667,1580
22.8694,1650
22.8722,1683
22.8750,1709
22.8778,1711
22.8806,1717
22.8833,1697
22.8861,1675
22.8889,1662
22.8917,1647
22.8944,1651
22.8972,1660
22.9000,1656
22.9028,1641
22.9056,1629
22.9083,1636
22.9111,1644
22.9139,1650
22.9167,1650
22.9194,1643
22.9222,1630
22.9250,1636
22.9278,1648
22.9306,1660
22.9333,1680
22.9361,1686
22.9389,1702
22.9417,1720
22.9444,1726
22.9472,1724
22.9500,1743
22.9528,1743
22.9556,1735
22.9583,1722
22.9611,1698
22.9639,1686
22.9667,1685
22.9694,1690
22.9722,1703
22.9750,1698
22.9778,1688
22.9806,1673
22.9833,1681
22.9861,1692
22.9889,1714
22.9917,1725
22.9944,1750
22.9972,1764
23.0000,1766
23.0028,1758
23.0056,1753
23.0083,1756
23.0111,1762
23.0139,1822
23.0167,1819
23.0194,1811
23.0222,1796
23.0250,1803
23.0278,1827
23.0306,1834
23.0333,1836
23.0361,1827
23.0389,1804
23.0417,1794
23.0444,1782
23.0472,1793
23.0500,1796
23.0528,1797
23.0556,1779
23.0583,1779
23.0611,1775
23.0639,1773
23.0667,1775
23.0694,1780
23.0722,1788
23.0750,1776
23.0778,1756
23.0806,1762
23.0833,1790
23.0861,1816
23.0889,1809
23.0917,1784
23.0944,1736
23.0972,1696
23.1000,1672
23.1028,1666
23.1056,1682
23.1083,1695
23.1111,1713
23.1139,1717
23.1167,1715
23.1194,1715
23.1222,1726
23.1250,1723
23.1278,1728
23.1306,1726
23.1333,1733
23.1361,1739
23.1389,1741
23.1417,1733
23.1444,1737
23.1472,1747
23.1500,1750
23.1528,1755
23.1556,1770
23.1583,1768
23.1611,1770
23.1639,1770
23.1667,1771
23.1694,1769
23.1722,1769
23.1750,1773
23.1778,1780
23.1806,1768
23.1833,1757
23.1861,1717
23.1889,1677
23.1917,1658
23.1944,1659
23.1972,1665
23.2000,1683
23.2028,1704
23.2056,1713
23.2083,1725
23.2111,1709
23.2139,1695
23.2167,1688
23.2194,1683
23.2222,1689
23.2250,1702
23.2278,1729
23.2306,1730
23.2333,1745
23.2361,1742
23.2389,1740
23.2417,1729
23.2444,1716
23.2472,1730
23.2500,1733
23.2528,1742
23.2556,1737
23.2583,1720
23.2611,1710
23.2639,1691
23.2667,1708
23.2694,1710
23.2722,1713
23.2750,1724
23.2778,1712
23.2806,1714
23.2833,1716
23.2861,1723
23.2889,1730
23.2917,1754
23.2944,1772
23.2972,1798
23.3000,1803
23.3028,1816
23.3056,1805
23.3083,1804
23.3111,1802
23.3139,1790
23.3167,1794
23.3194,1799
23.3222,1804
23.3250,1816
23.3278,1829
23.3306,1841
23.3333,1840
23.3361,1840
23.3389,1820
23.3417,1800
23.3444,1766
23.3472,1726
23.3500,1703
23.3528,1689
23.3556,1696
23.3583,1686
23.3611,1670
23.3639,1665
23.3667,1671
23.3694,1665
23.3722,1659
23.3750,1649
23.3778,1625
23.3806,1601
23.3833,1596
23.3861,1599
23.3889,1620
23.3917,1632
23.3944,1628
23.3972,1629
23.4000,1632
23.4028,1650
23.4056,1661
23.4083,1667
23.4111,1641
23.4139,1625
23.4167,1612
23.4194,1599
23.4222,1589
23.4250,1581
23.4278,1573
23.4306,1592
23.4333,1641
23.4361,1726
23.4389,1863
23.4417,1994
23.4444,2078
23.4472,2115
23.4500,2044
23.4528,1933
23.4556,1848
23.4583,1791
23.4611,1733
23.4639,1652
23.4667,1562
23.4694,1475
23.4722,1415
23.4750,1364
23.4778,1344
23.4806,1358
23.4833,1428
23.4861,1530
23.4889,1619
23.4917,1676
23.4944,1718
23.4972,1737
23.5000,1748
23.5028,1740
23.5056,1727
23.5083,1708
23.5111,1698
23.5139,1686
23.5167,1683
23.5194,1673
23.5222,1655
23.5250,1659
23.5278,1667
23.5306,1686
23.5333,1694
23.5361,1716
23.5389,1731
23.5417,1738
23.5444,1744
23.5472,1749
23.5500,1760
23.5528,1758
23.5556,1747
23.5583,1741
23.5611,1738
23.5639,1736
23.5667,1748
23.5694,1752
23.5722,1758
23.5750,1774
23.5778,1781
23.5806,1799
23.5833,1800
23.5861,1820
23.5889,1830
23.5917,1829
23.5944,1811
23.5972,1792
23.6000,1768
23.6028,1751
23.6056,1743
23.6083,1740
23.6111,1762
23.6139,1786
23.6167,1803
23.6194,1799
23.6222,1793
23.6250,1782
23.6278,1781
23.6306,1798
23.6333,1826
23.6361,1851
23.6389,1850
23.6417,1828
23.6444,1802
23.6472,1782
23.6500,1777
23.6528,1771
23.6556,1776
23.6583,1796
23.6611,1807
23.6639,1806
23.6667,1802
23.6694,1792
23.6722,1797
23.6750,1792
23.6778,1773
23.6806,1754
23.6833,1761
23.6861,1765
23.6889,1785
23.6917,1794
23.6944,1808
23.6972,1812
23.7000,1795
23.7028,1763
23.7056,1754
23.7083,1740
23.7111,1769
23.7139,1799
23.7167,1806
23.7194,1790
23.7222,1768
23.7250,1743
23.7278,1727
23.7306,1719
23.7333,1725
23.7361,1737
23.7389,1734
23.7417,1744
23.7444,1746
23.7472,1756
23.7500,1763
23.7528,1761
23.7556,1755
23.7583,1749
23.7611,1739
23.7639,1732
23.7667,1727
23.7694,1726
23.7722,1716
23.7750,1722
23.7778,1731
23.7806,1742
23.7833,1752
23.7861,1766
23.7889,1763
23.7917,1769
23.7944,1747
23.7972,1736
23.8000,1730
23.8028,1726
23.8056,1742
23.8083,1740
23.8111,1746
23.8139,1741
23.8167,1751
23.8194,1765
23.8222,1771
23.8250,1769
23.8278,1742
23.8306,1715
23.8333,1686
23.8361,1675
23.8389,1681
23.8417,1700
23.8444,1706
23.8472,1715
23.8500,1716
23.8528,1719
23.8556,1728
23.8583,1741
23.8611,1720
23.8639,1729
23.8667,1728
23.8694,1743
23.8722,1749
23.8750,1746
23.8778,1755
23.8806,1753
23.8833,1740
23.8861,1750
23.8889,1748
23.8917,1754
23.8944,1758
23.8972,1775
23.9000,1765
23.9028,1770
23.9056,1766
23.9083,1777
23.9111,1791
23.9139,1805
23.9167,1805
23.9194,1795
23.9222,1768
23.9250,1740
23.9278,1732
23.9306,1723
23.9333,1750
23.9361,1792
23.9389,1841
23.9417,1853
23.9444,1846
23.9472,1837
23.9500,1809
23.9528,1793
23.9556,1805
23.9583,1828
23.9611,1831
23.9639,1838
23.9667,1840
23.9694,1836
23.9722,1828
23.9750,1812
23.9778,1803
23.9806,1801
23.9833,1813
23.9861,1830
23.9889,1839
23.9917,1842
23.9944,1824
23.9972,1801
24.0000,1781
24.0028,1766
24.0056,1740
24.0083,1724
24.0111,1716
24.0139,1737
24.0167,1723
24.0194,1706
24.0222,1680
24.0250,1650
24.0278,1616
24.0306,1620
24.0333,1641
24.0361,1647
24.0389,1651
24.0417,1658
24.0444,1648
24.0472,1643
24.0500,1641
24.0528,1648
24.0556,1659
24.0583,1654
24.0611,1670
24.0639,1682
24.0667,1683
24.0694,1676
24.0722,1665
24.0750,1668
24.0778,1679
24.0806,1734
24.0833,1849
24.0861,1996
24.0889,2109
24.0917,2152
24.0944,2097
24.0972,1979
24.1000,1866
24.1028,1773
24.1056,1699
24.1083,1637
24.1111,1547
24.1139,1458
24.1167,1411
24.1194,1387
24.1222,1380
24.1250,1412
24.1278,1479
24.1306,1571
24.1333,1653
24.1361,1688
24.1389,1696
24.1417,1700
24.1444,1686
24.1472,1676
24.1500,1708
24.1528,1738
24.1556,1759
24.1583,1755
24.1611,1740
24.1639,1696
24.1667,1649
24.1694,1614
24.1722,1623
24.1750,1633
24.1778,1657
24.1806,1661
24.1833,1673
24.1861,1685
24.1889,1692
24.1917,1695
24.1944,1683
24.1972,1690
24.2000,1689
24.2028,1705
24.2056,1711
24.2083,1716
24.2111,1715
24.2139,1709
24.2167,1695
24.2194,1705
24.2222,1712
24.2250,1717
24.2278,1729
24.2306,1726
24.2333,1741
24.2361,1753
24.2389,1768
24.2417,1785
24.2444,1789
24.2472,1790
24.2500,1800
24.2528,1795
24.2556,1793
24.2583,1787
24.2611,1773
24.2639,1765
24.2667,1751
24.2694,1752
24.2722,1749
24.2750,1752
24.2778,1763
24.2806,1783
24.2833,1780
24.2861,1822
24.2889,1847
24.2917,1863
24.2944,1862
24.2972,1857
24.3000,1839
24.3028,1801
24.3056,1766
24.3083,1733
24.3111,1700
24.3139,1681
24.3167,1671
24.3194,1657
24.3222,1664
24.3250,1663
24.3278,1670
24.3306,1680
24.3333,1696
24.3361,1701
24.3389,1709
24.3417,1724
24.3444,1724
24.3472,1721
24.3500,1712
24.3528,1709
24.3556,1699
24.3583,1699
24.3611,1699
24.3639,1701
24.3667,1713
24.3694,1731
24.3722,1753
24.3750,1762
24.3778,1757
24.3806,1745
24.3833,1728
24.3861,1709
24.3889,1717
24.3917,1721
24.3944,1722
24.3972,1721
24.4000,1724
24.4028,1725
24.4056,1719
24.4083,1702
24.4111,1681
24.4139,1671
24.4167,1678
24.4194,1682
24.4222,1688
24.4250,1694
24.4278,1696
24.4306,1692
24.4333,1692
24.4361,1696
24.4389,1696
24.4417,1710
24.4444,1718
24.4472,1717
24.4500,1708
24.4528,1707
24.4556,1717
24.4583,1718
24.4611,1716
24.4639,1722
24.4667,1747
24.4694,1752
24.4722,1760
24.4750,1745
24.4778,1726
24.4806,1717
24.4833,1721
24.4861,1744
24.4889,1758
24.4917,1748
24.4944,1752
24.4972,1730
24.5000,1705
24.5028,1666
24.5056,1648
24.5083,1640
24.5111,1645
24.5139,1679
24.5167,1694
24.5194,1711
24.5222,1708
24.5250,1693
24.5278,1674
24.5306,1673
24.5333,1680
24.5361,1712
24.5389,1733
24.5417,1739
24.5444,1741
24.5472,1731
24.5500,1730
24.5528,1711
24.5556,1704
24.5583,1700
24.5611,1704
24.5639,1705
24.5667,1725
24.5694,1742
24.5722,1767
24.5750,1788
24.5778,1805
24.5806,1826
24.5833,1829
24.5861,1858
24.5889,1875
24.5917,1880
24.5944,1879
24.5972,1868
24.6000,1861
24.6028,1844
24.6056,1810
24.6083,1773
24.6111,1760
24.6139,1769
24.6167,1779
24.6194,1782
24.6222,1762
24.6250,1725
24.6278,1690
24.6306,1669
24.6333,1670
24.6361,1664
24.6389,1662
24.6417,1664
24.6444,1661
24.6472,1657
24.6500,1654
24.6528,1652
24.6556,1650
24.6583,1647
24.6611,1642
24.6639,1650
24.6667,1663
24.6694,1686
24.6722,1697
24.6750,1690
24.6778,1695
24.6806,1684
24.6833,1686
24.6861,1690
24.6889,1678
24.6917,1678
24.6944,1674
24.6972,1694
24.7000,1692
24.7028,1673
24.7056,1667
24.7083,1669
24.7111,1689
24.7139,1740
24.7167,1856
24.7194,1980
24.7222,2078
24.7250,2111
24.7278,2053
24.7306,1956
24.7333,1860
24.7361,1798
24.7389,1742
24.7417,1674
24.7444,1592
24.7472,1518
24.7500,1455
24.7528,1420
24.7556,1415
24.7583,1431
24.7611,1484
24.7639,1582
24.7667,1672
24.7694,1741
24.7722,1771
24.7750,1786
24.7778,1760
24.7806,1749
24.7833,1740
24.7861,1745
24.7889,1723
24.7917,1690
24.7944,1668
24.7972,1655
24.8000,1651
24.8028,1651
24.8056,1662
24.8083,1685
24.8111,1694
24.8139,1703
24.8167,1718
24.8194,1727
24.8222,1722
24.8250,1728
24.8278,1729
24.8306,1733
24.8333,1727
24.8361,1723
24.8389,1718
24.8417,1711
24.8444,1710
24.8472,1716
24.8500,1728
24.8528,1752
24.8556,1760
24.8583,1758
24.8611,1750
24.8639,1745
24.8667,1745
24.8694,1742
24.8722,1751
24.8750,1756
24.8778,1761
24.8806,1760
24.8833,1783
24.8861,1814
24.8889,1847
24.8917,1851
24.8944,1839
24.8972,1797
24.9000,1752
24.9028,1707
24.9056,1684
24.9083,1661
24.9111,1665
24.9139,1744
24.9167,1738
24.9194,1749
24.9222,1779
24.9250,1801
24.9278,1807
24.9306,1799
24.9333,1771
24.9361,1740
24.9389,1706
24.9417,1696
24.9444,1682
24.9472,1667
24.9500,1663
24.9528,1650
24.9556,1625
24.9583,1609
24.9611,1608
24.9639,1615
24.9667,1645
24.9694,1650
24.9722,1646
24.9750,1645
24.9778,1640
24.9806,1654
24.9833,1668
24.9861,1684
24.9889,1683
24.9917,1680
24.9944,1658
24.9972,1627
25.0000,1603
25.0028,1595
25.0056,1609
25.0083,1619
25.0111,1633
25.0139,1641
25.0167,1652
25.0194,1654
25.0222,1663
25.0250,1656
25.0278,1654
25.0306,1657
25.0333,1662
25.0361,1681
25.0389,1680
25.0417,1691
25.0444,1666
25.0472,1650
25.0500,1644
25.0528,1648
25.0556,1643
25.0583,1645
25.0611,1641
25.0639,1636
25.0667,1631
25.0694,1619
25.0722,1633
25.0750,1643
25.0778,1651
25.0806,1640
25.0833,1656
25.0861,1653
25.0889,1662
25.0917,1667
25.0944,1677
25.0972,1695
25.1000,1723
25.1028,1717
25.1056,1719
25.1083,1705
25.1111,1690
25.1139,1696
25.1167,1677
25.1194,1680
25.1222,1680
25.1250,1681
25.1278,1674
25.1306,1670
25.1333,1677
25.1361,1669
25.1389,1670
25.1417,1676
25.1444,1688
25.1472,1703
25.1500,1718
25.1528,1733
25.1556,1725
25.1583,1719
25.1611,1702
25.1639,1699
25.1667,1702
25.1694,1694
25.1722,1682
25.1750,1676
25.1778,1690
25.1806,1714
25.1833,1752
25.1861,1755
25.1889,1754
25.1917,1767
25.1944,1786
25.1972,1828
25.2000,1854
25.2028,1851
25.2056,1870
25.2083,1871
25.2111,1882
25.2139,1870
25.2167,1854
25.2194,1850
25.2222,1823
25.2250,1795
25.2278,1781
25.2306,1783
25.2333,1780
25.2361,1780
25.2389,1771
25.2417,1758
25.2444,1758
25.2472,1753
25.2500,1750
25.2528,1744
25.2556,1715
25.2583,1695
25.2611,1685
25.2639,1684
25.2667,1680
25.2694,1682
25.2722,1671
25.2750,1662
25.2778,1655
25.2806,1642
25.2833,1642
25.2861,1657
25.2889,1673
25.2917,1693
25.2944,1700
25.2972,1706
25.3000,1697
25.3028,1689
25.3056,1680
25.3083,1692
25.3111,1690
25.3139,1686
25.3167,1645
25.3194,1615
25.3222,1603
25.3250,1618
25.3278,1666
25.3306,1776
25.3333,1930
25.3361,2060
25.3389,2111
25.3417,2087
25.3444,1989
25.3472,1887
25.3500,1787
25.3528,1695
25.3556,1620
25.3583,1554
25.3611,1495
25.3639,1460
25.3667,1437
25.3694,1424
25.3722,1432
25.3750,1470
25.3778,1536
25.3806,1607
25.3833,1679
25.3861,1741
25.3889,1789
25.3917,1795
25.3944,1771
25.3972,1737
25.4000,1707
25.4028,1703
25.4056,1706
25.4083,1718
25.4111,1735
25.4139,1737
25.4167,1735
25.4194,1741
25.4222,1747
25.4250,1740
25.4278,1745
25.4306,1727
25.4333,1720
25.4361,1727
25.4389,1743
25.4417,1767
25.4444,1783
25.4472,1775
25.4500,1747
25.4528,1728
25.4556,1709
25.4583,1720
25.4611,1735
25.4639,1757
25.4667,1780
25.4694,1794
25.4722,1788
25.4750,1783
25.4778,1779
25.4806,1788
25.4833,1792
25.4861,1806
25.4889,1822
25.4917,1818
25.4944,1820
25.4972,1806
25.5000,1789
25.5028,1796
25.5056,1804
25.5083,1819
25.5111,1828
25.5139,1834
25.5167,1824
25.5194,1824
25.5222,1816
25.5250,1819
25.5278,1821
25.5306,1843
25.5333,1836
25.5361,1837
25.5389,1846
25.5417,1836
25.5444,1830
25.5472,1846
25.5500,1856
25.5528,1846
25.5556,1843
25.5583,1836
25.5611,1816
25.5639,1805
25.5667,1793
25.5694,1803
25.5722,1813
25.5750,1824
25.5778,1847
25.5806,1864
25.5833,1860
25.5861,1836
25.5889,1800
25.5917,1768
25.5944,1740
25.5972,1738
25.6000,1736
25.6028,1768
25.6056,1786
25.6083,1799
25.6111,1801
25.6139,1798
25.6167,1808
25.6194,1815
25.6222,1798
25.6250,1788
25.6278,1790
25.6306,1783
25.6333,1784
25.6361,1779
25.6389,1772
25.6417,1779
25.6444,1791
25.6472,1804
25.6500,1813
25.6528,1812
25.6556,1820
25.6583,1818
25.6611,1821
25.6639,1822
25.6667,1828
25.6694,1841
25.6722,1840
25.6750,1832
25.6778,1822
25.6806,1814
25.6833,1802
25.6861,1804
25.6889,1798
25.6917,1802
25.6944,1804
25.6972,1804
25.7000,1806
25.7028,1804
25.7056,1807
25.7083,1797
25.7111,1788
25.7139,1785
25.7167,1772
25.7194,1766
25.7222,1774
25.7250,1777
25.7278,1784
25.7306,1802
25.7333,1810
25.7361,1826
25.7389,1834
25.7417,1821
25.7444,1793
25.7472,1785
25.7500,1761
25.7528,1753
25.7556,1734
25.7583,1728
25.7611,1731
25.7639,1746
25.7667,1758
25.7694,1752
25.7722,1746
25.7750,1746
25.7778,1746
25.7806,1756
25.7833,1767
25.7861,1773
25.7889,1781
25.7917,1798
25.7944,1785
25.7972,1787
25.8000,1784
25.8028,1783
25.8056,1798
25.8083,1806
25.8111,1811
25.8139,1824
25.8167,1845
25.8194,1857
25.8222,1892
25.8250,1912
25.8278,1916
25.8306,1918
25.8333,1889
25.8361,1882
25.8389,1876
25.8417,1875
25.8444,1885
25.8472,1896
25.8500,1902
25.8528,1903
25.8556,1895
25.8583,1884
25.8611,1876
25.8639,1857
25.8667,1841
25.8694,1811
25.8722,1794
25.8750,1753
25.8778,1739
25.8806,1718
25.8833,1701
25.8861,1709
25.8889,1699
25.8917,1691
25.8944,1690
25.8972,1684
25.9000,1663
25.9028,1664
25.9056,1650
25.9083,1665
25.9111,1691
25.9139,1717
25.9167,1736
25.9194,1735
25.9222,1716
25.9250,1700
25.9278,1675
25.9306,1658
25.9333,1653
25.9361,1667
25.9389,1679
25.9417,1684
25.9444,1687
25.9472,1660
25.9500,1643
25.9528,1663
25.9556,1731
25.9583,1843
25.9611,1993
25.9639,2123
25.9667,2208
25.9694,2180
25.9722,2064
25.9750,1920
25.9778,1806
25.9806,1723
25.9833,1668
25.9861,1607
25.9889,1505
25.9917,1413
25.9944,1356
25.9972,1330
26.0000,1342
26.0028,1392
26.0056,1474
26.0083,1575
26.0111,1665
26.0139,1729
26.0167,1749
26.0194,1755
26.0222,1757
26.0250,1767
26.0278,1759
26.0306,1764
26.0333,1759
26.0361,1739
26.0389,1736
26.0417,1723
26.0444,1717
26.0472,1714
26.0500,1714
26.0528,1727
26.0556,1721
26.0583,1726
26.0611,1713
26.0639,1713
26.0667,1715
26.0694,1715
26.0722,1739
26.0750,1757
26.0778,1775
26.0806,1781
26.0833,1762
26.0861,1743
26.0889,1721
26.0917,1705
26.0944,1704
26.0972,1699
26.1000,1705
26.1028,1712
26.1056,1708
26.1083,1717
26.1111,1719
26.1139,1730
26.1167,1758
26.1194,1766
26.1222,1781
26.1250,1798
26.1278,1805
26.1306,1811
26.1333,1810
26.1361,1794
26.1389,1780
26.1417,1765
26.1444,1760
26.1472,1759
26.1500,1772
26.1528,1788
26.1556,1803
26.1583,1781
26.1611,1777
26.1639,1785
26.1667,1793
26.1694,1789
26.1722,1788
26.1750,1778
26.1778,1768
26.1806,1749
26.1833,1752
26.1861,1754
26.1889,1764
26.1917,1775
26.1944,1780
26.1972,1775
26.2000,1743
26.2028,1734
26.2056,1740
26.2083,1739
26.2111,1733
26.2139,1732
26.2167,1734
26.2194,1738
26.2222,1754
26.2250,1756
26.2278,1753
26.2306,1738
26.2333,1726
26.2361,1711
26.2389,1685
26.2417,1677
26.2444,1675
26.2472,1696
26.2500,1729
26.2528,1752
26.2556,1771
26.2583,1769
26.2611,1765
26.2639,1748
26.2667,1746
26.2694,1741
26.2722,1706
26.2750,1680
26.2778,1667
26.2806,1659
26.2833,1677
26.2861,1685
26.2889,1700
26.2917,1725
26.2944,1739
26.2972,1740
26.3000,1740
26.3028,1741
26.3056,1736
26.3083,1724
26.3111,1712
26.3139,1717
26.3167,1731
26.3194,1726
26.3222,1714
26.3250,1698
26.3278,1696
26.3306,1701
26.3333,1697
26.3361,1702
26.3389,1719
26.3417,1726
26.3444,1724
26.3472,1720
26.3500,1723
26.3528,1713
26.3556,1706
26.3583,1705
26.3611,1697
26.3639,1699
26.3667,1686
26.3694,1685
26.3722,1696
26.3750,1704
26.3778,1699
26.3806,1689
26.3833,1664
26.3861,1657
26.3889,1651
26.3917,1664
26.3944,1693
26.3972,1711
26.4000,1726
26.4028,1729
26.4056,1707
