Tiempo(s),Valor_ADC
0.0028,1780
0.0056,1774
0.0083,1798
0.0111,1817
0.0139,1817
0.0167,1796
0.0194,1776
0.0222,1744
0.0250,1736
0.0278,1744
0.0306,1749
0.0333,1737
0.0361,1727
0.0389,1752
0.0417,1770
0.0444,1786
0.0472,1800
0.0500,1808
0.0528,1791
0.0556,1771
0.0583,1755
0.0611,1747
0.0639,1744
0.0667,1726
0.0694,1733
0.0722,1775
0.0750,1828
0.0778,1878
0.0806,1900
0.0833,1887
0.0861,1874
0.0889,1878
0.0917,1881
0.0944,1866
0.0972,1864
0.1000,1855
0.1028,1853
0.1056,1856
0.1083,1870
0.1111,1882
0.1139,1882
0.1167,1879
0.1194,1886
0.1222,1904
0.1250,1899
0.1278,1891
0.1306,1897
0.1333,1879
0.1361,1872
0.1389,1897
0.1417,1927
0.1444,1955
0.1472,1980
0.1500,2041
0.1528,2019
0.1556,1978
0.1583,1954
0.1611,1922
0.1639,1928
0.1667,1948
0.1694,1974
0.1722,1973
0.1750,1948
0.1778,1904
0.1806,1869
0.1833,1870
0.1861,1894
0.1889,1915
0.1917,1897
0.1944,1839
0.1972,1799
0.2000,1768
0.2028,1780
0.2056,1797
0.2083,1832
0.2111,1838
0.2139,1795
0.2167,1734
0.2194,1701
0.2222,1681
0.2250,1666
0.2278,1691
0.2306,1708
0.2333,1708
0.2361,1705
0.2389,1689
0.2417,1657
0.2444,1629
0.2472,1631
0.2500,1639
0.2528,1631
0.2556,1632
0.2583,1636
0.2611,1633
0.2639,1634
0.2667,1645
0.2694,1671
0.2722,1668
0.2750,1651
0.2778,1648
0.2806,1622
0.2833,1600
0.2861,1620
0.2889,1632
0.2917,1647
0.2944,1649
0.2972,1691
0.3000,1710
0.3028,1702
0.3056,1682
0.3083,1657
0.3111,1646
0.3139,1663
0.3167,1703
0.3194,1715
0.3222,1707
0.3250,1684
0.3278,1690
0.3306,1698
0.3333,1703
0.3361,1707
0.3389,1706
0.3417,1687
0.3444,1667
0.3472,1686
0.3500,1704
0.3528,1702
0.3556,1692
0.3583,1687
0.3611,1680
0.3639,1673
0.3667,1696
0.3694,1713
0.3722,1729
0.3750,1741
0.3778,1742
0.3806,1727
0.3833,1711
0.3861,1708
0.3889,1722
0.3917,1718
0.3944,1703
0.3972,1693
0.4000,1672
0.4028,1675
0.4056,1679
0.4083,1693
0.4111,1688
0.4139,1688
0.4167,1705
0.4194,1732
0.4222,1747
0.4250,1737
0.4278,1750
0.4306,1757
0.4333,1752
0.4361,1740
0.4389,1725
0.4417,1703
0.4444,1691
0.4472,1717
0.4500,1729
0.4528,1727
0.4556,1700
0.4583,1697
0.4611,1667
0.4639,1642
0.4667,1657
0.4694,1705
0.4722,1745
0.4750,1760
0.4778,1778
0.4806,1767
0.4833,1733
0.4861,1728
0.4889,1755
0.4917,1749
0.4944,1708
0.4972,1701
0.5000,1711
0.5028,1740
0.5056,1752
0.5083,1763
0.5111,1754
0.5139,1747
0.5167,1748
0.5194,1740
0.5222,1717
0.5250,1700
0.5278,1708
0.5306,1711
0.5333,1706
0.5361,1694
0.5389,1696
0.5417,1700
0.5444,1693
0.5472,1701
0.5500,1699
0.5528,1685
0.5556,1660
0.5583,1646
0.5611,1632
0.5639,1657
0.5667,1696
0.5694,1730
0.5722,1757
0.5750,1773
0.5778,1783
0.5806,1779
0.5833,1751
0.5861,1745
0.5889,1743
0.5917,1718
0.5944,1723
0.5972,1744
0.6000,1751
0.6028,1736
0.6056,1724
0.6083,1710
0.6111,1715
0.6139,1714
0.6167,1735
0.6194,1767
0.6222,1771
0.6250,1756
0.6278,1742
0.6306,1719
0.6333,1688
0.6361,1674
0.6389,1667
0.6417,1663
0.6444,1678
0.6472,1702
0.6500,1705
0.6528,1706
0.6556,1674
0.6583,1645
0.6611,1635
0.6639,1649
0.6667,1668
0.6694,1671
0.6722,1666
0.6750,1681
0.6778,1693
0.6806,1697
0.6833,1698
0.6861,1706
0.6889,1697
0.6917,1704
0.6944,1684
0.6972,1678
0.7000,1669
0.7028,1661
0.7056,1657
0.7083,1674
0.7111,1680
0.7139,1652
0.7167,1627
0.7194,1572
0.7222,1506
0.7250,1479
0.7278,1497
0.7306,1566
0.7333,1652
0.7361,1761
0.7389,1879
0.7417,2037
0.7444,2278
0.7472,2536
0.7500,2731
0.7528,2776
0.7556,2651
0.7583,2399
0.7611,2145
0.7639,1963
0.7667,1893
0.7694,1889
0.7722,1871
0.7750,1850
0.7778,1841
0.7806,1841
0.7833,1777
0.7861,1720
0.7889,1657
0.7917,1629
0.7944,1604
0.7972,1633
0.8000,1652
0.8028,1654
0.8056,1673
0.8083,1648
0.8111,1625
0.8139,1596
0.8167,1586
0.8194,1596
0.8222,1607
0.8250,1632
0.8278,1640
0.8306,1624
0.8333,1602
0.8361,1606
0.8389,1621
0.8417,1626
0.8444,1629
0.8472,1632
0.8500,1622
0.8528,1622
0.8556,1609
0.8583,1605
0.8611,1581
0.8639,1584
0.8667,1595
0.8694,1612
0.8722,1612
0.8750,1615
0.8778,1615
0.8806,1617
0.8833,1599
0.8861,1597
0.8889,1608
0.8917,1620
0.8944,1662
0.8972,1690
0.9000,1701
0.9028,1678
0.9056,1651
0.9083,1644
0.9111,1643
0.9139,1644
0.9167,1682
0.9194,1704
0.9222,1702
0.9250,1692
0.9278,1680
0.9306,1662
0.9333,1647
0.9361,1669
0.9389,1694
0.9417,1738
0.9444,1780
0.9472,1806
0.9500,1812
0.9528,1808
0.9556,1791
0.9583,1773
0.9611,1723
0.9639,1725
0.9667,1730
0.9694,1721
0.9722,1713
0.9750,1687
0.9778,1670
0.9806,1634
0.9833,1600
0.9861,1593
0.9889,1613
0.9917,1623
0.9944,1629
0.9972,1633
1.0000,1601
1.0028,1579
1.0056,1561
1.0083,1563
1.0111,1558
1.0139,1558
1.0167,1552
1.0194,1543
1.0222,1525
1.0250,1523
1.0278,1549
1.0306,1563
1.0333,1580
1.0361,1578
1.0389,1573
1.0417,1558
1.0444,1573
1.0472,1598
1.0500,1598
1.0528,1578
1.0556,1573
1.0583,1586
1.0611,1596
1.0639,1593
1.0667,1602
1.0694,1591
1.0722,1574
1.0750,1568
1.0778,1555
1.0806,1550
1.0833,1533
1.0861,1539
1.0889,1552
1.0917,1556
1.0944,1551
1.0972,1551
1.1000,1544
1.1028,1547
1.1056,1568
1.1083,1606
1.1111,1593
1.1139,1569
1.1167,1575
1.1194,1563
1.1222,1535
1.1250,1533
1.1278,1551
1.1306,1565
1.1333,1596
1.1361,1605
1.1389,1595
1.1417,1573
1.1444,1551
1.1472,1543
1.1500,1539
1.1528,1541
1.1556,1561
1.1583,1585
1.1611,1600
1.1639,1614
1.1667,1618
1.1694,1614
1.1722,1603
1.1750,1583
1.1778,1554
1.1806,1562
1.1833,1563
1.1861,1582
1.1889,1586
1.1917,1586
1.1944,1564
1.1972,1550
1.2000,1554
1.2028,1545
1.2056,1557
1.2083,1567
1.2111,1567
1.2139,1564
1.2167,1560
1.2194,1566
1.2222,1561
1.2250,1580
1.2278,1578
1.2306,1574
1.2333,1559
1.2361,1567
1.2389,1580
1.2417,1577
1.2444,1571
1.2472,1558
1.2500,1552
1.2528,1554
1.2556,1573
1.2583,1601
1.2611,1601
1.2639,1609
1.2667,1591
1.2694,1580
1.2722,1559
1.2750,1567
1.2778,1572
1.2806,1578
1.2833,1573
1.2861,1580
1.2889,1576
1.2917,1550
1.2944,1551
1.2972,1566
1.3000,1582
1.3028,1575
1.3056,1584
1.3083,1588
1.3111,1595
1.3139,1583
1.3167,1588
1.3194,1576
1.3222,1573
1.3250,1594
1.3278,1592
1.3306,1595
1.3333,1579
1.3361,1584
1.3389,1568
1.3417,1533
1.3444,1534
1.3472,1564
1.3500,1585
1.3528,1587
1.3556,1596
1.3583,1596
1.3611,1607
1.3639,1611
1.3667,1619
1.3694,1600
1.3722,1593
1.3750,1570
1.3778,1576
1.3806,1600
1.3833,1616
1.3861,1618
1.3889,1615
1.3917,1606
1.3944,1591
1.3972,1591
1.4000,1595
1.4028,1588
1.4056,1587
1.4083,1605
1.4111,1616
1.4139,1645
1.4167,1667
1.4194,1680
1.4222,1675
1.4250,1661
1.4278,1651
1.4306,1631
1.4333,1620
1.4361,1621
1.4389,1617
1.4417,1609
1.4444,1599
1.4472,1589
1.4500,1551
1.4528,1527
1.4556,1543
1.4583,1558
1.4611,1567
1.4639,1577
1.4667,1579
1.4694,1553
1.4722,1529
1.4750,1515
1.4778,1528
1.4806,1561
1.4833,1593
1.4861,1602
1.4889,1601
1.4917,1595
1.4944,1574
1.4972,1566
1.5000,1558
1.5028,1557
1.5056,1584
1.5083,1593
1.5111,1592
1.5139,1582
1.5167,1552
1.5194,1495
1.5222,1430
1.5250,1389
1.5278,1409
1.5306,1491
1.5333,1588
1.5361,1698
1.5389,1805
1.5417,1957
1.5444,2183
1.5472,2438
1.5500,2630
1.5528,2668
1.5556,2504
1.5583,2254
1.5611,2010
1.5639,1852
1.5667,1786
1.5694,1768
1.5722,1780
1.5750,1795
1.5778,1790
1.5806,1765
1.5833,1705
1.5861,1638
1.5889,1586
1.5917,1549
1.5944,1531
1.5972,1543
1.6000,1542
1.6028,1540
1.6056,1537
1.6083,1565
1.6111,1569
1.6139,1553
1.6167,1554
1.6194,1553
1.6222,1559
1.6250,1551
1.6278,1530
1.6306,1516
1.6333,1492
1.6361,1493
1.6389,1502
1.6417,1520
1.6444,1541
1.6472,1588
1.6500,1595
1.6528,1591
1.6556,1572
1.6583,1579
1.6611,1590
1.6639,1593
1.6667,1586
1.6694,1579
1.6722,1564
1.6750,1554
1.6778,1586
1.6806,1594
1.6833,1616
1.6861,1611
1.6889,1609
1.6917,1600
1.6944,1606
1.6972,1626
1.7000,1626
1.7028,1619
1.7056,1623
1.7083,1619
1.7111,1609
1.7139,1598
1.7167,1600
1.7194,1615
1.7222,1623
1.7250,1649
1.7278,1673
1.7306,1670
1.7333,1660
1.7361,1658
1.7389,1653
1.7417,1772
1.7444,1793
1.7472,1812
1.7500,1802
1.7528,1776
1.7556,1747
1.7583,1726
1.7611,1716
1.7639,1705
1.7667,1682
1.7694,1666
1.7722,1642
1.7750,1633
1.7778,1639
1.7806,1612
1.7833,1572
1.7861,1588
1.7889,1623
1.7917,1650
1.7944,1639
1.7972,1621
1.8000,1604
1.8028,1615
1.8056,1629
1.8083,1622
1.8111,1613
1.8139,1610
1.8167,1605
1.8194,1598
1.8222,1604
1.8250,1615
1.8278,1622
1.8306,1614
1.8333,1600
1.8361,1584
1.8389,1576
1.8417,1578
1.8444,1584
1.8472,1586
1.8500,1567
1.8528,1555
1.8556,1579
1.8583,1594
1.8611,1617
1.8639,1602
1.8667,1573
1.8694,1571
1.8722,1559
1.8750,1555
1.8778,1551
1.8806,1578
1.8833,1613
1.8861,1637
1.8889,1639
1.8917,1629
1.8944,1639
1.8972,1641
1.9000,1640
1.9028,1626
1.9056,1616
1.9083,1599
1.9111,1608
1.9139,1630
1.9167,1633
1.9194,1617
1.9222,1602
1.9250,1588
1.9278,1568
1.9306,1556
1.9333,1587
1.9361,1602
1.9389,1599
1.9417,1594
1.9444,1599
1.9472,1601
1.9500,1606
1.9528,1587
1.9556,1584
1.9583,1600
1.9611,1604
1.9639,1599
1.9667,1574
1.9694,1571
1.9722,1596
1.9750,1641
1.9778,1667
1.9806,1653
1.9833,1643
1.9861,1634
1.9889,1615
1.9917,1596
1.9944,1599
1.9972,1606
2.0000,1604
2.0028,1587
2.0056,1542
2.0083,1534
2.0111,1548
2.0139,1583
2.0167,1612
2.0194,1621
2.0222,1641
2.0250,1669
2.0278,1677
2.0306,1646
2.0333,1625
2.0361,1577
2.0389,1565
2.0417,1576
2.0444,1605
2.0472,1616
2.0500,1610
2.0528,1622
2.0556,1625
2.0583,1635
2.0611,1630
2.0639,1615
2.0667,1602
2.0694,1591
2.0722,1600
2.0750,1611
2.0778,1613
2.0806,1602
2.0833,1613
2.0861,1651
2.0889,1665
2.0917,1639
2.0944,1637
2.0972,1633
2.1000,1637
2.1028,1628
2.1056,1639
2.1083,1621
2.1111,1599
2.1139,1591
2.1167,1608
2.1194,1615
2.1222,1647
2.1250,1678
2.1278,1708
2.1306,1697
2.1333,1685
2.1361,1672
2.1389,1668
2.1417,1675
2.1444,1668
2.1472,1643
2.1500,1623
2.1528,1635
2.1556,1653
2.1583,1687
2.1611,1707
2.1639,1739
2.1667,1735
2.1694,1735
2.1722,1726
2.1750,1722
2.1778,1701
2.1806,1667
2.1833,1638
2.1861,1636
2.1889,1633
2.1917,1634
2.1944,1631
2.1972,1624
2.2000,1604
2.2028,1613
2.2056,1631
2.2083,1649
2.2111,1636
2.2139,1641
2.2167,1627
2.2194,1612
2.2222,1576
2.2250,1574
2.2278,1579
2.2306,1613
2.2333,1638
2.2361,1644
2.2389,1656
2.2417,1659
2.2444,1659
2.2472,1666
2.2500,1679
2.2528,1678
2.2556,1675
2.2583,1644
2.2611,1610
2.2639,1585
2.2667,1536
2.2694,1501
2.2722,1497
2.2750,1545
2.2778,1607
2.2806,1630
2.2833,1666
2.2861,1732
2.2889,1909
2.2917,2166
2.2944,2449
2.2972,2677
2.3000,2709
2.3028,2544
2.3056,2274
2.3083,2033
2.3111,1884
2.3139,1830
2.3167,1835
2.3194,1838
2.3222,1852
2.3250,1848
2.3278,1813
2.3306,1756
2.3333,1680
2.3361,1607
2.3389,1556
2.3417,1555
2.3444,1595
2.3472,1623
2.3500,1609
2.3528,1586
2.3556,1551
2.3583,1536
2.3611,1530
2.3639,1556
2.3667,1618
2.3694,1679
2.3722,1728
2.3750,1713
2.3778,1675
2.3806,1649
2.3833,1684
2.3861,1677
2.3889,1657
2.3917,1628
2.3944,1623
2.3972,1639
2.4000,1656
2.4028,1668
2.4056,1677
2.4083,1685
2.4111,1678
2.4139,1661
2.4167,1613
2.4194,1593
2.4222,1618
2.4250,1653
2.4278,1687
2.4306,1698
2.4333,1699
2.4361,1691
2.4389,1705
2.4417,1708
2.4444,1714
2.4472,1739
2.4500,1725
2.4528,1688
2.4556,1660
2.4583,1669
2.4611,1674
2.4639,1692
2.4667,1697
2.4694,1712
2.4722,1716
2.4750,1743
2.4778,1769
2.4806,1777
2.4833,1789
2.4861,1807
2.4889,1907
2.4917,1881
2.4944,1828
2.4972,1734
2.5000,1668
2.5028,1663
2.5056,1710
2.5083,1768
2.5111,1805
2.5139,1835
2.5167,1825
2.5194,1814
2.5222,1814
2.5250,1811
2.5278,1773
2.5306,1696
2.5333,1633
2.5361,1603
2.5389,1621
2.5417,1669
2.5444,1717
2.5472,1753
2.5500,1750
2.5528,1707
2.5556,1627
2.5583,1565
2.5611,1541
2.5639,1564
2.5667,1606
2.5694,1652
2.5722,1677
2.5750,1682
2.5778,1671
2.5806,1652
2.5833,1659
2.5861,1668
2.5889,1638
2.5917,1617
2.5944,1605
2.5972,1604
2.6000,1618
2.6028,1645
2.6056,1661
2.6083,1663
2.6111,1643
2.6139,1644
2.6167,1661
2.6194,1676
2.6222,1685
2.6250,1691
2.6278,1665
2.6306,1642
2.6333,1636
2.6361,1623
2.6389,1612
2.6417,1632
2.6444,1669
2.6472,1687
2.6500,1704
2.6528,1695
2.6556,1680
2.6583,1672
2.6611,1703
2.6639,1738
2.6667,1775
2.6694,1770
2.6722,1751
2.6750,1706
2.6778,1657
2.6806,1613
2.6833,1624
2.6861,1633
2.6889,1655
2.6917,1666
2.6944,1685
2.6972,1673
2.7000,1661
2.7028,1653
2.7056,1630
2.7083,1639
2.7111,1679
2.7139,1722
2.7167,1746
2.7194,1748
2.7222,1741
2.7250,1733
2.7278,1716
2.7306,1707
2.7333,1709
2.7361,1705
2.7389,1711
2.7417,1714
2.7444,1732
2.7472,1739
2.7500,1725
2.7528,1712
2.7556,1712
2.7583,1698
2.7611,1686
2.7639,1702
2.7667,1717
2.7694,1743
2.7722,1737
2.7750,1703
2.7778,1655
2.7806,1642
2.7833,1672
2.7861,1719
2.7889,1727
2.7917,1700
2.7944,1699
2.7972,1701
2.8000,1708
2.8028,1702
2.8056,1700
2.8083,1696
2.8111,1702
2.8139,1703
2.8167,1715
2.8194,1716
2.8222,1730
2.8250,1755
2.8278,1784
2.8306,1796
2.8333,1800
2.8361,1777
2.8389,1748
2.8417,1727
2.8444,1744
2.8472,1801
2.8500,1848
2.8528,1860
2.8556,1846
2.8583,1831
2.8611,1784
2.8639,1761
2.8667,1725
2.8694,1702
2.8722,1706
2.8750,1710
2.8778,1718
2.8806,1709
2.8833,1701
2.8861,1667
2.8889,1620
2.8917,1603
2.8944,1642
2.8972,1727
2.9000,1805
2.9028,1844
2.9056,1838
2.9083,1787
2.9111,1744
2.9139,1729
2.9167,1708
2.9194,1667
2.9222,1669
2.9250,1674
2.9278,1688
2.9306,1710
2.9333,1726
2.9361,1715
2.9389,1693
2.9417,1670
2.9444,1679
2.9472,1675
2.9500,1637
2.9528,1624
2.9556,1628
2.9583,1662
2.9611,1718
2.9639,1770
2.9667,1805
2.9694,1845
2.9722,1953
2.9750,2126
2.9778,2347
2.9806,2555
2.9833,2673
2.9861,2618
2.9889,2406
2.9917,2160
2.9944,1963
2.9972,1868
3.0000,1810
3.0028,1845
3.0056,1923
3.0083,1963
3.0111,1957
3.0139,1898
3.0167,1834
3.0194,1761
3.0222,1738
3.0250,1728
3.0278,1739
3.0306,1755
3.0333,1761
3.0361,1751
3.0389,1745
3.0417,1755
3.0444,1789
3.0472,1793
3.0500,1775
3.0528,1757
3.0556,1746
3.0583,1725
3.0611,1702
3.0639,1684
3.0667,1697
3.0694,1738
3.0722,1777
3.0750,1788
3.0778,1785
3.0806,1764
3.0833,1718
3.0861,1660
3.0889,1678
3.0917,1746
3.0944,1806
3.0972,1831
3.1000,1801
3.1028,1764
3.1056,1727
3.1083,1703
3.1111,1728
3.1139,1773
3.1167,1809
3.1194,1836
3.1222,1868
3.1250,1872
3.1278,1890
3.1306,1870
3.1333,1862
3.1361,1848
3.1389,1842
3.1417,1843
3.1444,1863
3.1472,1869
3.1500,1866
3.1528,1885
3.1556,1911
3.1583,1915
3.1611,1889
3.1639,1903
3.1667,1905
3.1694,1913
3.1722,1933
3.1750,1961
3.1778,1968
3.1806,1950
3.1833,1945
3.1861,1953
3.1889,1934
3.1917,1925
3.1944,1892
3.1972,1856
3.2000,1864
3.2028,1888
3.2056,1907
3.2083,1901
3.2111,1907
3.2139,1881
3.2167,1836
3.2194,1790
3.2222,1777
3.2250,1780
3.2278,1758
3.2306,1731
3.2333,1725
3.2361,1718
3.2389,1751
3.2417,1788
3.2444,1832
3.2472,1834
3.2500,1808
3.2528,1776
3.2556,1753
3.2583,1728
3.2611,1719
3.2639,1730
3.2667,1725
3.2694,1709
3.2722,1704
3.2750,1713
3.2778,1707
3.2806,1733
3.2833,1761
3.2861,1784
3.2889,1793
3.2917,1797
3.2944,1772
3.2972,1757
3.3000,1727
3.3028,1724
3.3056,1736
3.3083,1745
3.3111,1749
3.3139,1747
3.3167,1734
3.3194,1735
3.3222,1738
3.3250,1755
3.3278,1779
3.3306,1767
3.3333,1744
3.3361,1716
3.3389,1696
3.3417,1692
3.3444,1683
3.3472,1665
3.3500,1681
3.3528,1722
3.3556,1722
3.3583,1702
3.3611,1693
3.3639,1714
3.3667,1716
3.3694,1729
3.3722,1738
3.3750,1717
3.3778,1700
3.3806,1679
3.3833,1685
3.3861,1694
3.3889,1701
3.3917,1710
3.3944,1701
3.3972,1669
3.4000,1628
3.4028,1601
3.4056,1608
3.4083,1613
3.4111,1658
3.4139,1691
3.4167,1715
3.4194,1723
3.4222,1724
3.4250,1714
3.4278,1687
3.4306,1675
3.4333,1672
3.4361,1669
3.4389,1657
3.4417,1639
3.4444,1631
3.4472,1640
3.4500,1660
3.4528,1687
3.4556,1680
3.4583,1682
3.4611,1678
3.4639,1691
3.4667,1664
3.4694,1640
3.4722,1617
3.4750,1612
3.4778,1622
3.4806,1656
3.4833,1696
3.4861,1706
3.4889,1695
3.4917,1702
3.4944,1703
3.4972,1660
3.5000,1638
3.5028,1638
3.5056,1637
3.5083,1634
3.5111,1636
3.5139,1619
3.5167,1584
3.5194,1570
3.5222,1561
3.5250,1566
3.5278,1550
3.5306,1533
3.5333,1526
3.5361,1517
3.5389,1515
3.5417,1528
3.5444,1544
3.5472,1549
3.5500,1549
3.5528,1541
3.5556,1521
3.5583,1501
3.5611,1521
3.5639,1553
3.5667,1561
3.5694,1568
3.5722,1570
3.5750,1569
3.5778,1578
3.5806,1589
3.5833,1606
3.5861,1606
3.5889,1593
3.5917,1583
3.5944,1549
3.5972,1481
3.6000,1441
3.6028,1430
3.6056,1454
3.6083,1478
3.6111,1530
3.6139,1576
3.6167,1632
3.6194,1745
3.6222,1930
3.6250,2182
3.6278,2403
3.6306,2511
3.6333,2424
3.6361,2164
3.6389,1894
3.6417,1731
3.6444,1665
3.6472,1661
3.6500,1705
3.6528,1752
3.6556,1775
3.6583,1759
3.6611,1707
3.6639,1645
3.6667,1586
3.6694,1544
3.6722,1531
3.6750,1523
3.6778,1517
3.6806,1527
3.6833,1537
3.6861,1526
3.6889,1501
3.6917,1521
3.6944,1523
3.6972,1529
3.7000,1531
3.7028,1516
3.7056,1489
3.7083,1455
3.7111,1452
3.7139,1464
3.7167,1497
3.7194,1515
3.7222,1535
3.7250,1545
3.7278,1541
3.7306,1520
3.7333,1483
3.7361,1485
3.7389,1510
3.7417,1529
3.7444,1538
3.7472,1539
3.7500,1547
3.7528,1553
3.7556,1563
3.7583,1562
3.7611,1560
3.7639,1560
3.7667,1543
3.7694,1550
3.7722,1575
3.7750,1607
3.7778,1630
3.7806,1635
3.7833,1638
3.7861,1613
3.7889,1596
3.7917,1596
3.7944,1599
3.7972,1611
3.8000,1614
3.8028,1603
3.8056,1599
3.8083,1605
3.8111,1624
3.8139,1669
3.8167,1704
3.8194,1637
3.8222,1662
3.8250,1659
3.8278,1684
3.8306,1699
3.8333,1674
3.8361,1620
3.8389,1620
3.8417,1664
3.8444,1721
3.8472,1729
3.8500,1718
3.8528,1704
3.8556,1652
3.8583,1612
3.8611,1607
3.8639,1601
3.8667,1580
3.8694,1572
3.8722,1599
3.8750,1621
3.8778,1599
3.8806,1581
3.8833,1573
3.8861,1575
3.8889,1574
3.8917,1573
3.8944,1554
3.8972,1529
3.9000,1535
3.9028,1543
3.9056,1564
3.9083,1574
3.9111,1588
3.9139,1577
3.9167,1562
3.9194,1559
3.9222,1572
3.9250,1575
3.9278,1581
3.9306,1576
3.9333,1569
3.9361,1559
3.9389,1580
3.9417,1599
3.9444,1601
3.9472,1610
3.9500,1604
3.9528,1596
3.9556,1589
3.9583,1588
3.9611,1610
3.9639,1639
3.9667,1653
3.9694,1649
3.9722,1638
3.9750,1635
3.9778,1626
3.9806,1622
3.9833,1610
3.9861,1601
3.9889,1606
3.9917,1630
3.9944,1655
3.9972,1637
4.0000,1639
4.0028,1617
4.0056,1612
4.0083,1602
4.0111,1605
4.0139,1601
4.0167,1600
4.0194,1624
4.0222,1640
4.0250,1653
4.0278,1618
4.0306,1568
4.0333,1546
4.0361,1567
4.0389,1630
4.0417,1711
4.0444,1749
4.0472,1730
4.0500,1704
4.0528,1670
4.0556,1672
4.0583,1683
4.0611,1704
4.0639,1713
4.0667,1716
4.0694,1718
4.0722,1722
4.0750,1717
4.0778,1707
4.0806,1719
4.0833,1725
4.0861,1723
4.0889,1727
4.0917,1735
4.0944,1723
4.0972,1691
4.1000,1677
4.1028,1670
4.1056,1675
4.1083,1676
4.1111,1683
4.1139,1679
4.1167,1650
4.1194,1639
4.1222,1647
4.1250,1649
4.1278,1635
4.1306,1626
4.1333,1617
4.1361,1601
4.1389,1605
4.1417,1632
4.1444,1642
4.1472,1638
4.1500,1636
4.1528,1648
4.1556,1662
4.1583,1663
4.1611,1663
4.1639,1648
4.1667,1633
4.1694,1627
4.1722,1597
4.1750,1567
4.1778,1557
4.1806,1572
4.1833,1604
4.1861,1634
4.1889,1635
4.1917,1620
4.1944,1598
4.1972,1581
4.2000,1609
4.2028,1654
4.2056,1691
4.2083,1756
4.2111,1879
4.2139,2067
4.2167,2308
4.2194,2547
4.2222,2699
4.2250,2687
4.2278,2490
4.2306,2251
4.2333,2056
4.2361,1937
4.2389,1903
4.2417,1901
4.2444,1925
4.2472,1932
4.2500,1918
4.2528,1882
4.2556,1785
4.2583,1689
4.2611,1637
4.2639,1604
4.2667,1621
4.2694,1667
4.2722,1710
4.2750,1720
4.2778,1728
4.2806,1741
4.2833,1737
4.2861,1704
4.2889,1690
4.2917,1691
4.2944,1690
4.2972,1690
4.3000,1691
4.3028,1717
4.3056,1729
4.3083,1709
4.3111,1684
4.3139,1684
4.3167,1686
4.3194,1717
4.3222,1729
4.3250,1736
4.3278,1739
4.3306,1744
4.3333,1732
4.3361,1711
4.3389,1711
4.3417,1729
4.3444,1730
4.3472,1707
4.3500,1700
4.3528,1748
4.3556,1774
4.3583,1787
4.3611,1806
4.3639,1814
4.3667,1809
4.3694,1801
4.3722,1802
4.3750,1776
4.3778,1758
4.3806,1753
4.3833,1749
4.3861,1754
4.3889,1784
4.3917,1819
4.3944,1833
4.3972,1830
4.4000,1837
4.4028,1840
4.4056,1822
4.4083,1819
4.4111,1827
4.4139,1848
4.4167,1878
4.4194,1868
4.4222,1879
4.4250,1866
4.4278,1851
4.4306,1825
4.4333,1802
4.4361,1792
4.4389,1799
4.4417,1806
4.4444,1799
4.4472,1799
4.4500,1818
4.4528,1813
4.4556,1788
4.4583,1778
4.4611,1773
4.4639,1764
4.4667,1755
4.4694,1733
4.4722,1716
4.4750,1716
4.4778,1718
4.4806,1720
4.4833,1735
4.4861,1737
4.4889,1739
4.4917,1723
4.4944,1693
4.4972,1671
4.5000,1684
4.5028,1720
4.5056,1735
4.5083,1756
4.5111,1765
4.5139,1747
4.5167,1716
4.5194,1720
4.5222,1720
4.5250,1711
4.5278,1713
4.5306,1737
4.5333,1749
4.5361,1748
4.5389,1746
4.5417,1756
4.5444,1753
4.5472,1750
4.5500,1749
4.5528,1746
4.5556,1728
4.5583,1721
4.5611,1725
4.5639,1744
4.5667,1759
4.5694,1777
4.5722,1785
4.5750,1776
4.5778,1751
4.5806,1744
4.5833,1733
4.5861,1712
4.5889,1715
4.5917,1738
4.5944,1751
4.5972,1773
4.6000,1790
4.6028,1780
4.6056,1774
4.6083,1771
4.6111,1775
4.6139,1765
4.6167,1747
4.6194,1747
4.6222,1760
4.6250,1772
4.6278,1774
4.6306,1771
4.6333,1719
4.6361,1690
4.6389,1700
4.6417,1729
4.6444,1753
4.6472,1745
4.6500,1767
4.6528,1786
4.6556,1800
4.6583,1808
4.6611,1811
4.6639,1799
4.6667,1797
4.6694,1807
4.6722,1806
4.6750,1804
4.6778,1818
4.6806,1818
4.6833,1820
4.6861,1811
4.6889,1829
4.6917,1829
4.6944,1821
4.6972,1813
4.7000,1825
4.7028,1824
4.7056,1816
4.7083,1794
4.7111,1761
4.7139,1740
4.7167,1735
4.7194,1736
4.7222,1725
4.7250,1694
4.7278,1679
4.7306,1680
4.7333,1690
4.7361,1694
4.7389,1722
4.7417,1723
4.7444,1721
4.7472,1735
4.7500,1760
4.7528,1764
4.7556,1760
4.7583,1764
4.7611,1776
4.7639,1771
4.7667,1758
4.7694,1761
4.7722,1751
4.7750,1749
4.7778,1748
4.7806,1756
4.7833,1752
4.7861,1754
4.7889,1765
4.7917,1763
4.7944,1733
4.7972,1688
4.8000,1648
4.8028,1622
4.8056,1609
4.8083,1620
4.8111,1681
4.8139,1735
4.8167,1812
4.8194,1931
4.8222,2129
4.8250,2364
4.8278,2603
4.8306,2793
4.8333,2836
4.8361,2656
4.8389,2381
4.8417,2128
4.8444,1957
4.8472,1893
4.8500,1918
4.8528,1960
4.8556,1996
4.8583,2010
4.8611,1963
4.8639,1880
4.8667,1784
4.8694,1739
4.8722,1721
4.8750,1702
4.8778,1717
4.8806,1722
4.8833,1736
4.8861,1715
4.8889,1692
4.8917,1691
4.8944,1694
4.8972,1720
4.9000,1781
4.9028,1796
4.9056,1779
4.9083,1742
4.9111,1715
4.9139,1700
4.9167,1713
4.9194,1741
4.9222,1764
4.9250,1753
4.9278,1738
4.9306,1725
4.9333,1714
4.9361,1714
4.9389,1725
4.9417,1751
4.9444,1757
4.9472,1752
4.9500,1751
4.9528,1730
4.9556,1719
4.9583,1751
4.9611,1772
4.9639,1750
4.9667,1719
4.9694,1732
4.9722,1752
4.9750,1783
4.9778,1823
4.9806,1859
4.9833,1856
4.9861,1854
4.9889,1852
4.9917,1848
4.9944,1846
4.9972,1853
5.0000,1851
5.0028,1871
5.0056,1857
5.0083,1845
5.0111,1844
5.0139,1842
5.0167,1827
5.0194,1836
5.0222,1979
5.0250,1949
5.0278,1934
5.0306,1916
5.0333,1878
5.0361,1860
5.0389,1863
5.0417,1868
5.0444,1881
5.0472,1873
5.0500,1855
5.0528,1808
5.0556,1783
5.0583,1798
5.0611,1811
5.0639,1796
5.0667,1774
5.0694,1743
5.0722,1708
5.0750,1676
5.0778,1678
5.0806,1737
5.0833,1767
5.0861,1777
5.0889,1764
5.0917,1746
5.0944,1736
5.0972,1727
5.1000,1727
5.1028,1736
5.1056,1740
5.1083,1743
5.1111,1753
5.1139,1751
5.1167,1757
5.1194,1781
5.1222,1782
5.1250,1762
5.1278,1742
5.1306,1717
5.1333,1693
5.1361,1707
5.1389,1738
5.1417,1757
5.1444,1750
5.1472,1738
5.1500,1727
5.1528,1732
5.1556,1731
5.1583,1743
5.1611,1741
5.1639,1739
5.1667,1726
5.1694,1728
5.1722,1731
5.1750,1715
5.1778,1739
5.1806,1787
5.1833,1812
5.1861,1806
5.1889,1792
5.1917,1781
5.1944,1766
5.1972,1771
5.2000,1780
5.2028,1775
5.2056,1759
5.2083,1763
5.2111,1753
5.2139,1750
5.2167,1743
5.2194,1749
5.2222,1758
5.2250,1762
5.2278,1766
5.2306,1738
5.2333,1685
5.2361,1668
5.2389,1708
5.2417,1760
5.2444,1793
5.2472,1822
5.2500,1830
5.2528,1801
5.2556,1776
5.2583,1768
5.2611,1772
5.2639,1769
5.2667,1748
5.2694,1743
5.2722,1724
5.2750,1735
5.2778,1766
5.2806,1804
5.2833,1823
5.2861,1812
5.2889,1821
5.2917,1820
5.2944,1788
5.2972,1779
5.3000,1793
5.3028,1794
5.3056,1797
5.3083,1811
5.3111,1825
5.3139,1844
5.3167,1833
5.3194,1835
5.3222,1821
5.3250,1795
5.3278,1771
5.3306,1742
5.3333,1720
5.3361,1714
5.3389,1732
5.3417,1745
5.3444,1734
5.3472,1724
5.3500,1719
5.3528,1725
5.3556,1741
5.3583,1772
5.3611,1757
5.3639,1736
5.3667,1715
5.3694,1705
5.3722,1715
5.3750,1707
5.3778,1729
5.3806,1744
5.3833,1761
5.3861,1732
5.3889,1732
5.3917,1737
5.3944,1744
5.3972,1750
5.4000,1747
5.4028,1744
5.4056,1746
5.4083,1755
5.4111,1748
5.4139,1724
5.4167,1693
5.4194,1651
5.4222,1623
5.4250,1610
5.4278,1633
5.4306,1687
5.4333,1720
5.4361,1769
5.4389,1844
5.4417,1983
5.4444,2190
5.4472,2452
5.4500,2665
5.4528,2752
5.4556,2667
5.4583,2448
5.4611,2217
5.4639,2020
5.4667,1918
5.4694,1896
5.4722,1901
5.4750,1904
5.4778,1920
5.4806,1916
5.4833,1863
5.4861,1784
5.4889,1713
5.4917,1655
5.4944,1633
5.4972,1674
5.5000,1725
5.5028,1743
5.5056,1732
5.5083,1736
5.5111,1728
5.5139,1722
5.5167,1713
5.5194,1725
5.5222,1714
5.5250,1708
5.5278,1700
5.5306,1698
5.5333,1687
5.5361,1709
5.5389,1739
5.5417,1757
5.5444,1744
5.5472,1730
5.5500,1725
5.5528,1724
5.5556,1722
5.5583,1731
5.5611,1740
5.5639,1733
5.5667,1732
5.5694,1737
5.5722,1732
5.5750,1715
5.5778,1712
5.5806,1721
5.5833,1735
5.5861,1729
5.5889,1733
5.5917,1722
5.5944,1719
5.5972,1728
5.6000,1752
5.6028,1762
5.6056,1767
5.6083,1782
5.6111,1772
5.6139,1758
5.6167,1761
5.6194,1773
5.6222,1784
5.6250,1795
5.6278,1835
5.6306,1847
5.6333,1835
5.6361,1841
5.6389,1854
5.6417,1955
5.6444,1921
5.6472,1885
5.6500,1847
5.6528,1842
5.6556,1844
5.6583,1856
5.6611,1849
5.6639,1829
5.6667,1809
5.6694,1786
5.6722,1772
5.6750,1763
5.6778,1770
5.6806,1785
5.6833,1753
5.6861,1721
5.6889,1693
5.6917,1668
5.6944,1656
5.6972,1668
5.7000,1680
5.7028,1695
5.7056,1718
5.7083,1728
5.7111,1704
5.7139,1682
5.7167,1693
5.7194,1709
5.7222,1723
5.7250,1720
5.7278,1730
5.7306,1720
5.7333,1704
5.7361,1722
5.7389,1720
5.7417,1728
5.7444,1724
5.7472,1732
5.7500,1716
5.7528,1698
5.7556,1687
5.7583,1712
5.7611,1709
5.7639,1704
5.7667,1678
5.7694,1646
5.7722,1626
5.7750,1622
5.7778,1631
5.7806,1648
5.7833,1669
5.7861,1700
5.7889,1716
5.7917,1716
5.7944,1726
5.7972,1724
5.8000,1711
5.8028,1696
5.8056,1687
5.8083,1705
5.8111,1703
5.8139,1694
5.8167,1697
5.8194,1721
5.8222,1739
5.8250,1748
5.8278,1744
5.8306,1738
5.8333,1718
5.8361,1725
5.8389,1753
5.8417,1751
5.8444,1731
5.8472,1715
5.8500,1707
5.8528,1695
5.8556,1692
5.8583,1697
5.8611,1706
5.8639,1711
5.8667,1708
5.8694,1704
5.8722,1697
5.8750,1703
5.8778,1724
5.8806,1735
5.8833,1711
5.8861,1695
5.8889,1688
5.8917,1688
5.8944,1706
5.8972,1726
5.9000,1734
5.9028,1718
5.9056,1695
5.9083,1675
5.9111,1664
5.9139,1670
5.9167,1687
5.9194,1720
5.9222,1740
5.9250,1747
5.9278,1737
5.9306,1713
5.9333,1699
5.9361,1700
5.9389,1700
5.9417,1697
5.9444,1715
5.9472,1722
5.9500,1722
5.9528,1724
5.9556,1729
5.9583,1745
5.9611,1759
5.9639,1733
5.9667,1727
5.9694,1720
5.9722,1715
5.9750,1702
5.9778,1698
5.9806,1691
5.9833,1695
5.9861,1682
5.9889,1689
5.9917,1697
5.9944,1709
5.9972,1722
6.0000,1737
6.0028,1752
6.0056,1764
6.0083,1775
6.0111,1748
6.0139,1707
6.0167,1720
6.0194,1750
6.0222,1756
6.0250,1763
6.0278,1789
6.0306,1802
6.0333,1817
6.0361,1819
6.0389,1827
6.0417,1806
6.0444,1796
6.0472,1782
6.0500,1767
6.0528,1739
6.0556,1739
6.0583,1728
6.0611,1709
6.0639,1688
6.0667,1677
6.0694,1675
6.0722,1672
6.0750,1684
6.0778,1715
6.0806,1728
6.0833,1728
6.0861,1709
6.0889,1698
6.0917,1679
6.0944,1656
6.0972,1658
6.1000,1689
6.1028,1710
6.1056,1733
6.1083,1735
6.1111,1724
6.1139,1689
6.1167,1680
6.1194,1673
6.1222,1686
6.1250,1708
6.1278,1727
6.1306,1738
6.1333,1713
6.1361,1687
6.1389,1655
6.1417,1634
6.1444,1621
6.1472,1653
6.1500,1703
6.1528,1771
6.1556,1855
6.1583,2007
6.1611,2222
6.1639,2464
6.1667,2670
6.1694,2766
6.1722,2655
6.1750,2403
6.1778,2172
6.1806,2010
6.1833,1912
6.1861,1889
6.1889,1912
6.1917,1920
6.1944,1902
6.1972,1878
6.2000,1814
6.2028,1735
6.2056,1678
6.2083,1665
6.2111,1670
6.2139,1692
6.2167,1733
6.2194,1745
6.2222,1713
6.2250,1682
6.2278,1692
6.2306,1701
6.2333,1705
6.2361,1701
6.2389,1736
6.2417,1719
6.2444,1713
6.2472,1704
6.2500,1682
6.2528,1661
6.2556,1671
6.2583,1697
6.2611,1718
6.2639,1717
6.2667,1704
6.2694,1682
6.2722,1673
6.2750,1696
6.2778,1695
6.2806,1690
6.2833,1697
6.2861,1712
6.2889,1703
6.2917,1710
6.2944,1723
6.2972,1761
6.3000,1764
6.3028,1748
6.3056,1731
6.3083,1734
6.3111,1723
6.3139,1740
6.3167,1782
6.3194,1820
6.3222,1834
6.3250,1823
6.3278,1811
6.3306,1793
6.3333,1792
6.3361,1777
6.3389,1774
6.3417,1790
6.3444,1794
6.3472,1796
6.3500,1793
6.3528,1790
6.3556,1799
6.3583,1891
6.3611,1875
6.3639,1848
6.3667,1836
6.3694,1827
6.3722,1833
6.3750,1859
6.3778,1870
6.3806,1855
6.3833,1830
6.3861,1825
6.3889,1786
6.3917,1766
6.3944,1757
6.3972,1766
6.4000,1776
6.4028,1779
6.4056,1790
6.4083,1789
6.4111,1759
6.4139,1743
6.4167,1755
6.4194,1776
6.4222,1764
6.4250,1738
6.4278,1697
6.4306,1683
6.4333,1682
6.4361,1705
6.4389,1727
6.4417,1717
6.4444,1697
6.4472,1681
6.4500,1679
6.4528,1695
6.4556,1729
6.4583,1755
6.4611,1745
6.4639,1717
6.4667,1685
6.4694,1655
6.4722,1638
6.4750,1660
6.4778,1691
6.4806,1719
6.4833,1707
6.4861,1705
6.4889,1695
6.4917,1702
6.4944,1720
6.4972,1755
6.5000,1768
6.5028,1752
6.5056,1747
6.5083,1731
6.5111,1698
6.5139,1684
6.5167,1686
6.5194,1720
6.5222,1742
6.5250,1765
6.5278,1758
6.5306,1737
6.5333,1713
6.5361,1725
6.5389,1726
6.5417,1718
6.5444,1721
6.5472,1730
6.5500,1723
6.5528,1696
6.5556,1693
6.5583,1706
6.5611,1679
6.5639,1661
6.5667,1640
6.5694,1636
6.5722,1645
6.5750,1691
6.5778,1761
6.5806,1773
6.5833,1729
6.5861,1696
6.5889,1690
6.5917,1704
6.5944,1734
6.5972,1766
6.6000,1778
6.6028,1780
6.6056,1773
6.6083,1757
6.6111,1729
6.6139,1691
6.6167,1692
6.6194,1693
6.6222,1701
6.6250,1702
6.6278,1730
6.6306,1739
6.6333,1729
6.6361,1719
6.6389,1699
6.6417,1676
6.6444,1672
6.6472,1685
6.6500,1706
6.6528,1709
6.6556,1715
6.6583,1693
6.6611,1672
6.6639,1659
6.6667,1676
6.6694,1687
6.6722,1706
6.6750,1699
6.6778,1689
6.6806,1677
6.6833,1677
6.6861,1666
6.6889,1676
6.6917,1662
6.6944,1648
6.6972,1646
6.7000,1635
6.7028,1614
6.7056,1607
6.7083,1607
6.7111,1617
6.7139,1602
6.7167,1599
6.7194,1618
6.7222,1657
6.7250,1656
6.7278,1662
6.7306,1661
6.7333,1658
6.7361,1671
6.7389,1672
6.7417,1655
6.7444,1634
6.7472,1621
6.7500,1602
6.7528,1611
6.7556,1649
6.7583,1654
6.7611,1643
6.7639,1669
6.7667,1730
6.7694,1750
6.7722,1725
6.7750,1709
6.7778,1702
6.7806,1686
6.7833,1641
6.7861,1613
6.7889,1579
6.7917,1533
6.7944,1497
6.7972,1476
6.8000,1441
6.8028,1413
6.8056,1420
6.8083,1426
6.8111,1404
6.8139,1371
6.8167,1360
6.8194,1349
6.8222,1322
6.8250,1301
6.8278,1246
6.8306,1223
6.8333,1275
6.8361,1283
6.8389,1255
6.8417,1199
6.8444,1158
6.8472,1126
6.8500,1032
6.8528,942
6.8556,963
6.8583,1140
6.8611,1250
6.8639,1245
6.8667,1189
6.8694,1149
6.8722,1145
6.8750,1224
6.8778,1395
6.8806,1480
6.8833,1459
6.8861,1460
6.8889,1577
6.8917,1892
6.8944,2258
6.8972,2514
6.9000,2559
6.9028,2385
6.9056,2112
6.9083,1824
6.9111,1579
6.9139,1425
6.9167,1370
6.9194,1376
6.9222,1385
6.9250,1404
6.9278,1424
6.9306,1424
6.9333,1363
6.9361,1271
6.9389,1190
6.9417,1140
6.9444,1135
6.9472,1118
6.9500,1088
6.9528,1086
6.9556,1086
6.9583,1085
6.9611,1084
6.9639,1096
6.9667,1120
6.9694,1128
6.9722,1110
6.9750,1108
6.9778,1095
6.9806,1090
6.9833,1099
6.9861,1149
6.9889,1176
6.9917,1156
6.9944,1113
6.9972,1065
7.0000,1033
7.0028,1014
7.0056,1027
7.0083,1059
7.0111,1055
7.0139,1006
7.0167,994
7.0194,998
7.0222,993
7.0250,1003
7.0278,997
7.0306,981
7.0333,968
7.0361,958
7.0389,977
7.0417,1014
7.0444,1047
7.0472,1065
7.0500,1081
7.0528,1069
7.0556,1041
7.0583,1021
7.0611,974
7.0639,948
7.0667,954
7.0694,969
7.0722,988
7.0750,1000
7.0778,1003
7.0806,973
7.0833,956
7.0861,952
7.0889,955
7.0917,978
7.0944,984
7.0972,985
7.1000,959
7.1028,952
7.1056,941
7.1083,912
7.1111,867
7.1139,826
7.1167,798
7.1194,768
7.1222,762
7.1250,794
7.1278,832
7.1306,833
7.1333,820
7.1361,827
7.1389,815
7.1417,796
7.1444,787
7.1472,803
7.1500,793
7.1528,755
7.1556,708
7.1583,669
7.1611,645
7.1639,673
7.1667,718
7.1694,742
7.1722,758
7.1750,778
7.1778,733
7.1806,656
7.1833,574
7.1861,511
7.1889,502
7.1917,561
7.1944,697
7.1972,770
7.2000,774
7.2028,726
7.2056,713
7.2083,733
7.2111,732
7.2139,741
7.2167,747
7.2194,740
7.2222,718
7.2250,733
7.2278,772
7.2306,794
7.2333,796
7.2361,773
7.2389,752
7.2417,732
7.2444,733
7.2472,732
7.2500,716
7.2528,704
7.2556,711
7.2583,738
7.2611,747
7.2639,737
7.2667,680
7.2694,628
7.2722,610
7.2750,636
7.2778,683
7.2806,725
7.2833,790
7.2861,837
7.2889,834
7.2917,818
7.2944,788
7.2972,740
7.3000,670
7.3028,634
7.3056,671
7.3083,730
7.3111,765
7.3139,789
7.3167,806
7.3194,811
7.3222,815
7.3250,814
7.3278,801
7.3306,754
7.3333,694
7.3361,680
7.3389,718
7.3417,773
7.3444,825
7.3472,869
7.3500,883
7.3528,899
7.3556,925
7.3583,933
7.3611,943
7.3639,948
7.3667,940
7.3694,877
7.3722,832
7.3750,823
7.3778,852
7.3806,877
7.3833,917
7.3861,946
7.3889,935
7.3917,920
7.3944,917
7.3972,899
7.4000,855
7.4028,838
7.4056,867
7.4083,915
7.4111,932
7.4139,923
7.4167,938
7.4194,971
7.4222,994
7.4250,989
7.4278,961
7.4306,986
7.4333,1039
7.4361,1077
7.4389,1092
7.4417,1110
7.4444,1146
7.4472,1190
7.4500,1204
7.4528,1212
7.4556,1186
7.4583,1141
7.4611,1086
7.4639,1093
7.4667,1146
7.4694,1169
7.4722,1186
7.4750,1186
7.4778,1160
7.4806,1136
7.4833,1154
7.4861,1169
7.4889,1176
7.4917,1160
7.4944,1161
7.4972,1171
7.5000,1187
7.5028,1197
7.5056,1223
7.5083,1265
7.5111,1279
7.5139,1259
7.5167,1217
7.5194,1203
7.5222,1217
7.5250,1270
7.5278,1280
7.5306,1256
7.5333,1267
7.5361,1340
7.5389,1411
7.5417,1446
7.5444,1437
7.5472,1378
7.5500,1305
7.5528,1273
7.5556,1292
7.5583,1329
7.5611,1361
7.5639,1398
7.5667,1454
7.5694,1513
7.5722,1633
7.5750,1847
7.5778,2126
7.5806,2399
7.5833,2601
7.5861,2603
7.5889,2395
7.5917,2120
7.5944,1863
7.5972,1705
7.6000,1665
7.6028,1716
7.6056,1800
7.6083,1835
7.6111,1830
7.6139,1790
7.6167,1730
7.6194,1661
7.6222,1620
7.6250,1622
7.6278,1609
7.6306,1598
7.6333,1604
7.6361,1594
7.6389,1597
7.6417,1571
7.6444,1584
7.6472,1616
7.6500,1633
7.6528,1667
7.6556,1680
7.6583,1700
7.6611,1713
7.6639,1722
7.6667,1715
7.6694,1737
7.6722,1780
7.6750,1850
7.6778,1885
7.6806,1881
7.6833,1886
7.6861,1893
7.6889,1854
7.6917,1825
7.6944,1811
7.6972,1823
7.7000,1831
7.7028,1850
7.7056,1899
7.7083,1944
7.7111,1970
7.7139,1978
7.7167,1963
7.7194,1933
7.7222,1929
7.7250,1952
7.7278,1962
7.7306,1992
7.7333,2049
7.7361,2111
7.7389,2142
7.7417,2140
7.7444,2117
7.7472,2094
7.7500,2104
7.7528,2136
7.7556,2194
7.7583,2224
7.7611,2193
7.7639,2167
7.7667,2178
7.7694,2201
7.7722,2217
7.7750,2443
7.7778,2430
7.7806,2394
7.7833,2410
7.7861,2439
7.7889,2465
7.7917,2504
7.7944,2511
7.7972,2471
7.8000,2413
7.8028,2369
7.8056,2366
7.8083,2371
7.8111,2379
7.8139,2410
7.8167,2450
7.8194,2476
7.8222,2478
7.8250,2448
7.8278,2402
7.8306,2364
7.8333,2355
7.8361,2358
7.8389,2368
7.8417,2357
7.8444,2354
7.8472,2345
7.8500,2358
7.8528,2382
7.8556,2413
7.8583,2403
7.8611,2383
7.8639,2383
7.8667,2389
7.8694,2382
7.8722,2377
7.8750,2386
7.8778,2398
7.8806,2381
7.8833,2393
7.8861,2399
7.8889,2397
7.8917,2433
7.8944,2459
7.8972,2478
7.9000,2462
7.9028,2458
7.9056,2461
7.9083,2468
7.9111,2489
7.9139,2517
7.9167,2536
7.9194,2528
7.9222,2506
7.9250,2465
7.9278,2445
7.9306,2447
7.9333,2484
7.9361,2504
7.9389,2512
7.9417,2500
7.9444,2503
7.9472,2518
7.9500,2507
7.9528,2497
7.9556,2497
7.9583,2478
7.9611,2485
7.9639,2489
7.9667,2486
7.9694,2474
7.9722,2478
7.9750,2492
7.9778,2522
7.9806,2516
7.9833,2537
7.9861,2526
7.9889,2511
7.9917,2520
7.9944,2549
7.9972,2545
8.0000,2509
8.0028,2473
8.0056,2485
8.0083,2508
8.0111,2513
8.0139,2513
8.0167,2513
8.0194,2500
8.0222,2491
8.0250,2500
8.0278,2483
8.0306,2467
8.0333,2463
8.0361,2464
8.0389,2467
8.0417,2483
8.0444,2503
8.0472,2509
8.0500,2504
8.0528,2489
8.0556,2463
8.0583,2446
8.0611,2422
8.0639,2400
8.0667,2389
8.0694,2415
8.0722,2464
8.0750,2508
8.0778,2533
8.0806,2550
8.0833,2556
8.0861,2543
8.0889,2477
8.0917,2401
8.0944,2365
8.0972,2380
8.1000,2412
8.1028,2447
8.1056,2459
8.1083,2446
8.1111,2396
8.1139,2365
8.1167,2384
8.1194,2422
8.1222,2474
8.1250,2491
8.1278,2472
8.1306,2423
8.1333,2418
8.1361,2442
8.1389,2461
8.1417,2493
8.1444,2533
8.1472,2514
8.1500,2454
8.1528,2403
8.1556,2375
8.1583,2367
8.1611,2367
8.1639,2371
8.1667,2369
8.1694,2389
8.1722,2391
8.1750,2395
8.1778,2374
8.1806,2347
8.1833,2331
8.1861,2296
8.1889,2286
8.1917,2257
8.1944,2250
8.1972,2260
8.2000,2257
8.2028,2256
8.2056,2251
8.2083,2231
8.2111,2209
8.2139,2239
8.2167,2270
8.2194,2267
8.2222,2270
8.2250,2260
8.2278,2261
8.2306,2252
8.2333,2256
8.2361,2266
8.2389,2232
8.2417,2169
8.2444,2118
8.2472,2064
8.2500,2031
8.2528,2041
8.2556,2111
8.2583,2173
8.2611,2219
8.2639,2280
8.2667,2378
8.2694,2527
8.2722,2751
8.2750,2990
8.2778,3179
8.2806,3228
8.2833,3106
8.2861,2861
8.2889,2614
8.2917,2429
8.2944,2345
8.2972,2314
8.3000,2307
8.3028,2286
8.3056,2278
8.3083,2237
8.3111,2176
8.3139,2140
8.3167,2109
8.3194,2091
8.3222,2080
8.3250,2078
8.3278,2071
8.3306,2045
8.3333,2031
8.3361,2038
8.3389,2034
8.3417,2045
8.3444,2078
8.3472,2089
8.3500,2067
8.3528,2066
8.3556,2044
8.3583,2022
8.3611,2014
8.3639,2025
8.3667,2033
8.3694,2031
8.3722,2027
8.3750,2028
8.3778,2008
8.3806,2012
8.3833,2010
8.3861,2007
8.3889,2007
8.3917,1994
8.3944,1985
8.3972,1974
8.4000,1950
8.4028,1940
8.4056,1962
8.4083,2002
8.4111,2033
8.4139,2059
8.4167,2045
8.4194,2004
8.4222,1966
8.4250,1986
8.4278,2025
8.4306,2053
8.4333,2074
8.4361,2069
8.4389,2043
8.4417,2045
8.4444,2056
8.4472,2079
8.4500,2080
8.4528,2076
8.4556,2063
8.4583,2035
8.4611,2010
8.4639,2020
8.4667,2049
8.4694,2051
8.4722,2076
8.4750,2066
8.4778,2044
8.4806,2044
8.4833,2058
8.4861,2053
8.4889,2037
8.4917,2027
8.4944,2015
8.4972,1982
8.5000,1955
8.5028,1933
8.5056,1925
8.5083,1904
8.5111,1901
8.5139,1899
8.5167,1896
8.5194,1876
8.5222,1855
8.5250,1847
8.5278,1847
8.5306,1854
8.5333,1876
8.5361,1881
8.5389,1854
8.5417,1834
8.5444,1813
8.5472,1802
8.5500,1795
8.5528,1812
8.5556,1818
8.5583,1826
8.5611,1835
8.5639,1839
8.5667,1837
8.5694,1831
8.5722,1828
8.5750,1825
8.5778,1813
8.5806,1809
8.5833,1808
8.5861,1811
8.5889,1788
8.5917,1790
8.5944,1806
8.5972,1819
8.6000,1813
8.6028,1806
8.6056,1798
8.6083,1809
8.6111,1824
8.6139,1848
8.6167,1848
8.6194,1826
8.6222,1820
8.6250,1822
8.6278,1825
8.6306,1839
8.6333,1884
8.6361,1893
8.6389,1890
8.6417,1882
8.6444,1885
8.6472,1890
8.6500,1881
8.6528,1882
8.6556,1894
8.6583,1879
8.6611,1853
8.6639,1845
8.6667,1824
8.6694,1816
8.6722,1820
8.6750,1834
8.6778,1839
8.6806,1824
8.6833,1824
8.6861,1804
8.6889,1785
8.6917,1789
8.6944,1823
8.6972,1836
8.7000,1836
8.7028,1831
8.7056,1822
8.7083,1803
8.7111,1796
8.7139,1802
8.7167,1784
8.7194,1773
8.7222,1781
8.7250,1790
8.7278,1779
8.7306,1779
8.7333,1758
8.7361,1745
8.7389,1725
8.7417,1720
8.7444,1729
8.7472,1725
8.7500,1718
8.7528,1729
8.7556,1737
8.7583,1729
8.7611,1721
8.7639,1736
8.7667,1749
8.7694,1766
8.7722,1793
8.7750,1807
8.7778,1781
8.7806,1771
8.7833,1754
8.7861,1755
8.7889,1729
8.7917,1757
8.7944,1764
8.7972,1774
8.8000,1765
8.8028,1763
8.8056,1767
8.8083,1768
8.8111,1790
8.8139,1785
8.8167,1770
8.8194,1750
8.8222,1740
8.8250,1727
8.8278,1702
8.8306,1676
8.8333,1666
8.8361,1654
8.8389,1637
8.8417,1643
8.8444,1650
8.8472,1636
8.8500,1634
8.8528,1636
8.8556,1650
8.8583,1643
8.8611,1648
8.8639,1663
8.8667,1682
8.8694,1687
8.8722,1673
8.8750,1629
8.8778,1585
8.8806,1572
8.8833,1608
8.8861,1631
8.8889,1647
8.8917,1645
8.8944,1651
8.8972,1643
8.9000,1622
8.9028,1593
8.9056,1565
8.9083,1559
8.9111,1567
8.9139,1605
8.9167,1620
8.9194,1649
8.9222,1708
8.9250,1826
8.9278,2029
8.9306,2275
8.9333,2504
8.9361,2574
8.9389,2456
8.9417,2269
8.9444,2084
8.9472,1944
8.9500,1878
8.9528,1859
8.9556,1853
8.9583,1862
8.9611,1871
8.9639,1853
8.9667,1806
8.9694,1724
8.9722,1637
8.9750,1583
8.9778,1559
8.9806,1586
8.9833,1631
8.9861,1632
8.9889,1604
8.9917,1569
8.9944,1559
8.9972,1570
9.0000,1574
9.0028,1585
9.0056,1596
9.0083,1582
9.0111,1560
9.0139,1523
9.0167,1535
9.0194,1556
9.0222,1600
9.0250,1636
9.0278,1636
9.0306,1620
9.0333,1592
9.0361,1589
9.0389,1588
9.0417,1607
9.0444,1630
9.0472,1613
9.0500,1604
9.0528,1601
9.0556,1599
9.0583,1620
9.0611,1620
9.0639,1616
9.0667,1597
9.0694,1568
9.0722,1567
9.0750,1580
9.0778,1573
9.0806,1587
9.0833,1592
9.0861,1591
9.0889,1614
9.0917,1655
9.0944,1655
9.0972,1605
9.1000,1567
9.1028,1585
9.1056,1619
9.1083,1627
9.1111,1653
9.1139,1681
9.1167,1699
9.1194,1716
9.1222,1727
9.1250,1770
9.1278,1782
9.1306,1775
9.1333,1778
9.1361,1776
9.1389,1776
9.1417,1758
9.1444,1736
9.1472,1724
9.1500,1718
9.1528,1721
9.1556,1687
9.1583,1677
9.1611,1691
9.1639,1730
9.1667,1722
9.1694,1725
9.1722,1729
9.1750,1723
9.1778,1684
9.1806,1662
9.1833,1655
9.1861,1628
9.1889,1639
9.1917,1654
9.1944,1655
9.1972,1645
9.2000,1615
9.2028,1604
9.2056,1604
9.2083,1631
9.2111,1654
9.2139,1661
9.2167,1657
9.2194,1664
9.2222,1668
9.2250,1661
9.2278,1623
9.2306,1611
9.2333,1615
9.2361,1632
9.2389,1638
9.2417,1659
9.2444,1663
9.2472,1658
9.2500,1653
9.2528,1661
9.2556,1667
9.2583,1660
9.2611,1679
9.2639,1677
9.2667,1672
9.2694,1673
9.2722,1680
9.2750,1680
9.2778,1679
9.2806,1679
9.2833,1653
9.2861,1600
9.2889,1563
9.2917,1561
9.2944,1619
9.2972,1661
9.3000,1698
9.3028,1718
9.3056,1709
9.3083,1682
9.3111,1670
9.3139,1651
9.3167,1626
9.3194,1627
9.3222,1632
9.3250,1647
9.3278,1646
9.3306,1675
9.3333,1680
9.3361,1668
9.3389,1625
9.3417,1609
9.3444,1624
9.3472,1666
9.3500,1707
9.3528,1712
9.3556,1703
9.3583,1673
9.3611,1676
9.3639,1692
9.3667,1707
9.3694,1715
9.3722,1692
9.3750,1689
9.3778,1682
9.3806,1668
9.3833,1669
9.3861,1669
9.3889,1646
9.3917,1620
9.3944,1638
9.3972,1654
9.4000,1653
9.4028,1596
9.4056,1458
9.4083,1356
9.4111,1317
9.4139,1306
9.4167,1319
9.4194,1377
9.4222,1508
9.4250,1670
9.4278,1763
9.4306,1772
9.4333,1698
9.4361,1594
9.4389,1529
9.4417,1536
9.4444,1577
9.4472,1637
9.4500,1734
9.4528,1791
9.4556,1773
9.4583,1706
9.4611,1650
9.4639,1612
9.4667,1585
9.4694,1600
9.4722,1602
9.4750,1554
9.4778,1483
9.4806,1475
9.4833,1465
9.4861,1432
9.4889,1413
9.4917,1416
9.4944,1456
9.4972,1522
9.5000,1564
9.5028,1541
9.5056,1484
9.5083,1456
9.5111,1532
9.5139,1835
9.5167,2324
9.5194,2805
9.5222,3062
9.5250,2991
9.5278,2665
9.5306,2229
9.5333,1793
9.5361,1486
9.5389,1436
9.5417,1636
9.5444,1835
9.5472,1928
9.5500,1932
9.5528,1835
9.5556,1668
9.5583,1510
9.5611,1396
9.5639,1273
9.5667,1266
9.5694,1465
9.5722,1642
9.5750,1616
9.5778,1482
9.5806,1405
9.5833,1403
9.5861,1404
9.5889,1360
9.5917,1176
9.5944,953
9.5972,964
9.6000,1253
9.6028,1547
9.6056,1687
9.6083,1694
9.6111,1740
9.6139,1795
9.6167,1748
9.6194,1662
9.6222,1583
9.6250,1445
9.6278,1279
9.6306,1188
9.6333,1309
9.6361,1572
9.6389,1769
9.6417,1858
9.6444,1814
9.6472,1723
9.6500,1639
9.6528,1583
9.6556,1545
9.6583,1497
9.6611,1442
9.6639,1416
9.6667,1430
9.6694,1489
9.6722,1528
9.6750,1515
9.6778,1435
9.6806,1351
9.6833,1324
9.6861,1354
9.6889,1475
9.6917,1643
9.6944,1748
9.6972,1773
9.7000,1737
9.7028,1685
9.7056,1652
9.7083,1635
9.7111,1652
9.7139,1633
9.7167,1607
9.7194,1533
9.7222,1522
9.7250,1536
9.7278,1543
9.7306,1595
9.7333,1632
9.7361,1624
9.7389,1611
9.7417,1561
9.7444,1507
9.7472,1450
9.7500,1422
9.7528,1484
9.7556,1594
9.7583,1642
9.7611,1639
9.7639,1588
9.7667,1476
9.7694,1378
9.7722,1293
9.7750,1295
9.7778,1378
9.7806,1468
9.7833,1491
9.7861,1444
9.7889,1449
9.7917,1565
9.7944,1632
9.7972,1443
9.8000,1150
9.8028,911
9.8056,847
9.8083,1026
9.8111,1375
9.8139,1660
9.8167,1746
9.8194,1669
9.8222,1568
9.8250,1498
9.8278,1478
9.8306,1483
9.8333,1508
9.8361,1523
9.8389,1479
9.8417,1395
9.8444,1246
9.8472,1085
9.8500,1085
9.8528,1290
9.8556,1538
9.8583,1714
9.8611,1801
9.8639,1816
9.8667,1743
9.8694,1668
9.8722,1593
9.8750,1501
9.8778,1411
9.8806,1377
9.8833,1404
9.8861,1457
9.8889,1497
9.8917,1518
9.8944,1516
9.8972,1504
9.9000,1491
9.9028,1445
9.9056,1416
9.9083,1431
9.9111,1508
9.9139,1544
9.9167,1576
9.9194,1604
9.9222,1613
9.9250,1609
9.9278,1596
9.9306,1588
9.9333,1605
9.9361,1599
9.9389,1617
9.9417,1613
9.9444,1593
9.9472,1567
9.9500,1552
9.9528,1544
9.9556,1548
9.9583,1567
9.9611,1598
9.9639,1611
9.9667,1612
9.9694,1615
9.9722,1607
9.9750,1582
9.9778,1539
9.9806,1507
9.9833,1503
9.9861,1485
9.9889,1497
9.9917,1498
9.9944,1493
9.9972,1469
10.0000,1469
10.0028,1474
10.0056,1475
10.0083,1477
10.0111,1497
10.0139,1502
10.0167,1474
10.0194,1457
10.0222,1462
10.0250,1478
10.0278,1514
10.0306,1562
10.0333,1587
10.0361,1579
10.0389,1567
10.0417,1581
10.0444,1589
10.0472,1617
10.0500,1628
10.0528,1631
10.0556,1596
10.0583,1584
10.0611,1570
10.0639,1561
10.0667,1557
10.0694,1548
10.0722,1536
10.0750,1523
10.0778,1530
10.0806,1521
10.0833,1537
10.0861,1590
10.0889,1679
10.0917,1803
10.0944,2000
10.0972,2227
10.1000,2433
10.1028,2513
10.1056,2384
10.1083,2162
10.1111,1972
10.1139,1842
10.1167,1766
10.1194,1762
10.1222,1771
10.1250,1772
10.1278,1780
10.1306,1785
10.1333,1755
10.1361,1675
10.1389,1610
10.1417,1589
10.1444,1597
10.1472,1612
10.1500,1627
10.1528,1647
10.1556,1656
10.1583,1660
10.1611,1656
10.1639,1656
10.1667,1662
10.1694,1683
10.1722,1688
10.1750,1668
10.1778,1653
10.1806,1649
10.1833,1665
10.1861,1691
10.1889,1706
10.1917,1719
10.1944,1701
10.1972,1656
10.2000,1605
10.2028,1595
10.2056,1627
10.2083,1686
10.2111,1723
10.2139,1738
10.2167,1728
10.2194,1724
10.2222,1759
10.2250,1763
10.2278,1743
10.2306,1708
10.2333,1667
10.2361,1622
10.2389,1637
10.2417,1686
10.2444,1753
10.2472,1787
10.2500,1804
10.2528,1800
10.2556,1754
10.2583,1699
10.2611,1683
10.2639,1668
10.2667,1703
10.2694,1756
10.2722,1780
10.2750,1761
10.2778,1755
10.2806,1764
10.2833,1780
10.2861,1829
10.2889,1900
10.2917,1963
10.2944,1978
10.2972,1969
10.3000,1964
10.3028,1952
10.3056,1920
10.3083,1893
10.3111,1881
10.3139,1871
10.3167,1892
10.3194,1926
10.3222,1948
10.3250,1935
10.3278,1913
10.3306,1909
10.3333,1882
10.3361,1816
10.3389,1784
10.3417,1857
10.3444,1955
10.3472,2018
10.3500,2033
10.3528,2012
10.3556,1988
10.3583,1981
10.3611,1984
10.3639,1999
10.3667,1985
10.3694,1989
10.3722,2005
10.3750,1970
10.3778,1933
10.3806,1921
10.3833,1920
10.3861,1913
10.3889,1932
10.3917,1951
10.3944,1945
10.3972,1925
10.4000,1924
10.4028,1941
10.4056,1937
10.4083,1931
10.4111,1916
10.4139,1886
10.4167,1855
10.4194,1859
10.4222,1872
10.4250,1887
10.4278,1905
10.4306,1938
10.4333,1942
10.4361,1937
10.4389,1906
10.4417,1887
10.4444,1883
10.4472,1897
10.4500,1934
10.4528,1964
10.4556,1963
10.4583,1946
10.4611,1941
10.4639,1912
10.4667,1911
10.4694,1933
10.4722,1961
10.4750,1959
10.4778,1940
10.4806,1935
10.4833,1940
10.4861,1942
10.4889,1946
10.4917,1972
10.4944,1980
10.4972,1966
10.5000,1947
10.5028,1933
10.5056,1920
10.5083,1929
10.5111,1939
10.5139,1956
10.5167,1966
10.5194,1969
10.5222,1963
10.5250,1939
10.5278,1907
10.5306,1912
10.5333,1940
10.5361,1951
10.5389,1947
10.5417,1953
10.5444,1937
10.5472,1918
10.5500,1951
10.5528,1978
10.5556,1977
10.5583,1976
10.5611,1988
10.5639,1968
10.5667,1938
10.5694,1921
10.5722,1940
10.5750,1961
10.5778,1984
10.5806,2005
10.5833,2012
10.5861,1989
10.5889,1975
10.5917,1969
10.5944,1935
10.5972,1903
10.6000,1886
10.6028,1872
10.6056,1844
10.6083,1818
10.6111,1789
10.6139,1756
10.6167,1729
10.6194,1747
10.6222,1772
10.6250,1779
10.6278,1806
10.6306,1840
10.6333,1853
10.6361,1833
10.6389,1818
10.6417,1818
10.6444,1795
10.6472,1784
10.6500,1789
10.6528,1820
10.6556,1823
10.6583,1827
10.6611,1809
10.6639,1795
10.6667,1786
10.6694,1784
10.6722,1799
10.6750,1804
10.6778,1801
10.6806,1780
10.6833,1744
10.6861,1688
10.6889,1655
10.6917,1652
10.6944,1668
10.6972,1695
10.7000,1735
10.7028,1823
10.7056,1934
10.7083,2135
10.7111,2430
10.7139,2754
10.7167,3014
10.7194,3086
10.7222,2922
10.7250,2615
10.7278,2312
10.7306,2105
10.7333,1990
10.7361,1949
10.7389,1953
10.7417,1979
10.7444,1975
10.7472,1926
10.7500,1837
10.7528,1738
10.7556,1673
10.7583,1632
10.7611,1636
10.7639,1658
10.7667,1675
10.7694,1702
10.7722,1702
10.7750,1678
10.7778,1638
10.7806,1619
10.7833,1608
10.7861,1622
10.7889,1633
10.7917,1640
10.7944,1610
10.7972,1593
10.8000,1592
10.8028,1602
10.8056,1623
10.8083,1647
10.8111,1660
10.8139,1644
10.8167,1619
10.8194,1612
10.8222,1626
10.8250,1633
10.8278,1634
10.8306,1641
10.8333,1642
10.8361,1620
10.8389,1603
10.8417,1582
10.8444,1577
10.8472,1589
10.8500,1611
10.8528,1627
10.8556,1635
10.8583,1627
10.8611,1618
10.8639,1604
10.8667,1597
10.8694,1611
10.8722,1625
10.8750,1626
10.8778,1641
10.8806,1647
10.8833,1636
10.8861,1630
10.8889,1631
10.8917,1637
10.8944,1638
10.8972,1614
10.9000,1620
10.9028,1620
10.9056,1612
10.9083,1620
10.9111,1627
10.9139,1605
10.9167,1588
10.9194,1574
10.9222,1562
10.9250,1547
10.9278,1545
10.9306,1544
10.9333,1524
10.9361,1489
10.9389,1469
10.9417,1476
10.9444,1482
10.9472,1504
10.9500,1519
10.9528,1510
10.9556,1473
10.9583,1446
10.9611,1442
10.9639,1426
10.9667,1439
10.9694,1468
10.9722,1491
10.9750,1476
10.9778,1461
10.9806,1456
10.9833,1441
10.9861,1434
10.9889,1428
10.9917,1423
10.9944,1410
10.9972,1403
11.0000,1413
11.0028,1415
11.0056,1425
11.0083,1429
11.0111,1445
11.0139,1429
11.0167,1416
11.0194,1400
11.0222,1367
11.0250,1350
11.0278,1355
11.0306,1405
11.0333,1427
11.0361,1448
11.0389,1457
11.0417,1451
11.0444,1416
11.0472,1406
11.0500,1416
11.0528,1415
11.0556,1428
11.0583,1448
11.0611,1465
11.0639,1453
11.0667,1450
11.0694,1444
11.0722,1431
11.0750,1414
11.0778,1409
11.0806,1407
11.0833,1408
11.0861,1414
11.0889,1446
11.0917,1446
11.0944,1429
11.0972,1432
11.1000,1434
11.1028,1446
11.1056,1452
11.1083,1467
11.1111,1464
11.1139,1438
11.1167,1420
11.1194,1433
11.1222,1435
11.1250,1439
11.1278,1480
11.1306,1500
11.1333,1495
11.1361,1470
11.1389,1454
11.1417,1438
11.1444,1405
11.1472,1394
11.1500,1388
11.1528,1389
11.1556,1390
11.1583,1380
11.1611,1350
11.1639,1312
11.1667,1310
11.1694,1325
11.1722,1352
11.1750,1353
11.1778,1358
11.1806,1355
11.1833,1339
11.1861,1322
11.1889,1309
11.1917,1298
11.1944,1295
11.1972,1299
11.2000,1316
11.2028,1324
11.2056,1323
11.2083,1333
11.2111,1330
11.2139,1324
11.2167,1324
11.2194,1312
11.2222,1306
11.2250,1275
11.2278,1287
11.2306,1322
11.2333,1320
11.2361,1302
11.2389,1249
11.2417,1227
11.2444,1206
11.2472,1236
11.2500,1293
11.2528,1361
11.2556,1424
11.2583,1575
11.2611,1823
11.2639,2156
11.2667,2534
11.2694,2827
11.2722,2929
11.2750,2740
11.2778,2370
11.2806,1996
11.2833,1698
11.2861,1555
11.2889,1547
11.2917,1540
11.2944,1536
11.2972,1518
11.3000,1476
11.3028,1423
11.3056,1356
11.3083,1312
11.3111,1285
11.3139,1284
11.3167,1297
11.3194,1308
11.3222,1313
11.3250,1294
11.3278,1292
11.3306,1301
11.3333,1310
11.3361,1330
11.3389,1371
11.3417,1377
11.3444,1369
11.3472,1341
11.3500,1320
11.3528,1313
11.3556,1319
11.3583,1339
11.3611,1352
11.3639,1344
11.3667,1330
11.3694,1315
11.3722,1315
11.3750,1305
11.3778,1307
11.3806,1322
11.3833,1344
11.3861,1366
11.3889,1378
11.3917,1367
11.3944,1355
11.3972,1356
11.4000,1379
11.4028,1380
11.4056,1387
11.4083,1392
11.4111,1411
11.4139,1416
11.4167,1427
11.4194,1423
11.4222,1428
11.4250,1420
11.4278,1424
11.4306,1443
11.4333,1450
11.4361,1456
11.4389,1461
11.4417,1454
11.4444,1438
11.4472,1445
11.4500,1446
11.4528,1460
11.4556,1453
11.4583,1457
11.4611,1504
11.4639,1529
11.4667,1548
11.4694,1543
11.4722,1540
11.4750,1542
11.4778,1539
11.4806,1536
11.4833,1518
11.4861,1505
11.4889,1507
11.4917,1500
11.4944,1500
11.4972,1496
11.5000,1500
11.5028,1502
11.5056,1493
11.5083,1497
11.5111,1504
11.5139,1501
11.5167,1508
11.5194,1506
11.5222,1503
11.5250,1483
11.5278,1486
11.5306,1499
11.5333,1506
11.5361,1529
11.5389,1532
11.5417,1522
11.5444,1497
11.5472,1488
11.5500,1506
11.5528,1522
11.5556,1545
11.5583,1576
11.5611,1577
11.5639,1552
11.5667,1539
11.5694,1542
11.5722,1519
11.5750,1499
11.5778,1500
11.5806,1520
11.5833,1541
11.5861,1551
11.5889,1562
11.5917,1578
11.5944,1589
11.5972,1600
11.6000,1596
11.6028,1592
11.6056,1586
11.6083,1592
11.6111,1590
11.6139,1596
11.6167,1605
11.6194,1605
11.6222,1602
11.6250,1589
11.6278,1597
11.6306,1600
11.6333,1598
11.6361,1601
11.6389,1608
11.6417,1602
11.6444,1587
11.6472,1590
11.6500,1601
11.6528,1621
11.6556,1643
11.6583,1656
11.6611,1650
11.6639,1636
11.6667,1620
11.6694,1614
11.6722,1612
11.6750,1623
11.6778,1670
11.6806,1696
11.6833,1709
11.6861,1726
11.6889,1728
11.6917,1716
11.6944,1705
11.6972,1687
11.7000,1674
11.7028,1681
11.7056,1701
11.7083,1740
11.7111,1751
11.7139,1754
11.7167,1760
11.7194,1765
11.7222,1748
11.7250,1742
11.7278,1742
11.7306,1741
11.7333,1708
11.7361,1682
11.7389,1670
11.7417,1661
11.7444,1652
11.7472,1663
11.7500,1673
11.7528,1686
11.7556,1687
11.7583,1691
11.7611,1687
11.7639,1666
11.7667,1660
11.7694,1668
11.7722,1659
11.7750,1646
11.7778,1656
11.7806,1674
11.7833,1660
11.7861,1673
11.7889,1667
11.7917,1694
11.7944,1689
11.7972,1702
11.8000,1714
11.8028,1713
11.8056,1732
11.8083,1750
11.8111,1748
11.8139,1713
11.8167,1695
11.8194,1650
11.8222,1614
11.8250,1576
11.8278,1592
11.8306,1632
11.8333,1681
11.8361,1762
11.8389,1864
11.8417,2030
11.8444,2287
11.8472,2613
11.8500,2929
11.8528,3129
11.8556,3119
11.8583,2904
11.8611,2566
11.8639,2259
11.8667,2066
11.8694,1967
11.8722,1929
11.8750,1929
11.8778,1925
11.8806,1884
11.8833,1825
11.8861,1786
11.8889,1772
11.8917,1764
11.8944,1740
11.8972,1751
11.9000,1773
11.9028,1775
11.9056,1788
11.9083,1794
11.9111,1787
11.9139,1762
11.9167,1754
11.9194,1759
11.9222,1751
11.9250,1739
11.9278,1755
11.9306,1754
11.9333,1720
11.9361,1706
11.9389,1712
11.9417,1728
11.9444,1720
11.9472,1728
11.9500,1704
11.9528,1663
11.9556,1652
11.9583,1689
11.9611,1739
11.9639,1774
11.9667,1778
11.9694,1771
11.9722,1749
11.9750,1752
11.9778,1757
11.9806,1764
11.9833,1764
11.9861,1745
11.9889,1737
11.9917,1742
11.9944,1765
11.9972,1795
12.0000,1824
12.0028,1833
12.0056,1820
12.0083,1818
12.0111,1803
12.0139,1779
12.0167,1775
12.0194,1798
12.0222,1824
12.0250,1845
12.0278,1858
12.0306,1853
12.0333,1833
12.0361,1827
12.0389,1836
12.0417,1850
12.0444,1882
12.0472,1892
12.0500,1899
12.0528,1902
12.0556,1905
12.0583,1895
12.0611,1858
12.0639,1831
12.0667,1838
12.0694,1847
12.0722,1847
12.0750,1844
12.0778,1848
12.0806,1838
12.0833,1833
12.0861,1837
12.0889,1825
12.0917,1815
12.0944,1818
12.0972,1815
12.1000,1807
12.1028,1801
12.1056,1791
12.1083,1807
12.1111,1798
12.1139,1800
12.1167,1811
12.1194,1834
12.1222,1840
12.1250,1836
12.1278,1852
12.1306,1850
12.1333,1848
12.1361,1842
12.1389,1858
12.1417,1851
12.1444,1845
12.1472,1838
12.1500,1845
12.1528,1825
12.1556,1796
12.1583,1773
12.1611,1772
12.1639,1792
12.1667,1820
12.1694,1830
12.1722,1828
12.1750,1833
12.1778,1847
12.1806,1863
12.1833,1856
12.1861,1851
12.1889,1854
12.1917,1843
12.1944,1840
12.1972,1842
12.2000,1848
12.2028,1856
12.2056,1889
12.2083,1879
12.2111,1873
12.2139,1859
12.2167,1872
12.2194,1864
12.2222,1848
12.2250,1866
12.2278,1892
12.2306,1901
12.2333,1893
12.2361,1908
12.2389,1944
12.2417,1949
12.2444,1942
12.2472,1947
12.2500,1951
12.2528,1943
12.2556,1947
12.2583,1943
12.2611,1940
12.2639,1938
12.2667,1958
12.2694,1976
12.2722,1985
12.2750,1988
12.2778,2002
12.2806,2001
12.2833,1978
12.2861,1997
12.2889,1996
12.2917,1975
12.2944,1946
12.2972,1918
12.3000,1885
12.3028,1865
12.3056,1864
12.3083,1863
12.3111,1879
12.3139,1878
12.3167,1880
12.3194,1867
12.3222,1860
12.3250,1856
12.3278,1859
12.3306,1845
12.3333,1856
12.3361,1859
12.3389,1864
12.3417,1864
12.3444,1873
12.3472,1890
12.3500,1882
12.3528,1876
12.3556,1904
12.3583,1930
12.3611,1938
12.3639,1920
12.3667,1928
12.3694,1921
12.3722,1908
12.3750,1897
12.3778,1895
12.3806,1891
12.3833,1883
12.3861,1844
12.3889,1821
12.3917,1807
12.3944,1826
12.3972,1864
12.4000,1890
12.4028,1931
12.4056,2007
12.4083,2121
12.4111,2303
12.4139,2556
12.4167,2770
12.4194,2836
12.4222,2724
12.4250,2554
12.4278,2395
12.4306,2311
12.4333,2269
12.4361,2258
12.4389,2228
12.4417,2211
12.4444,2211
12.4472,2189
12.4500,2146
12.4528,2068
12.4556,1995
12.4583,1944
12.4611,1922
12.4639,1912
12.4667,1919
12.4694,1915
12.4722,1893
12.4750,1872
12.4778,1875
12.4806,1887
12.4833,1893
12.4861,1903
12.4889,1912
12.4917,1909
12.4944,1898
12.4972,1877
12.5000,1874
12.5028,1877
12.5056,1892
12.5083,1897
12.5111,1868
12.5139,1859
12.5167,1852
12.5194,1866
12.5222,1859
12.5250,1876
12.5278,1889
12.5306,1893
12.5333,1888
12.5361,1898
12.5389,1896
12.5417,1880
12.5444,1884
12.5472,1886
12.5500,1894
12.5528,1884
12.5556,1888
12.5583,1901
12.5611,1917
12.5639,1927
12.5667,1955
12.5694,1957
12.5722,1941
12.5750,1937
12.5778,1959
12.5806,1952
12.5833,1961
12.5861,1965
12.5889,1977
12.5917,1977
12.5944,1977
12.5972,1968
12.6000,1963
12.6028,1960
12.6056,1968
12.6083,2033
12.6111,2006
12.6139,2007
12.6167,2005
12.6194,1985
12.6222,1977
12.6250,2000
12.6278,2033
12.6306,2029
12.6333,2011
12.6361,1996
12.6389,1968
12.6417,1948
12.6444,1953
12.6472,1957
12.6500,1966
12.6528,1947
12.6556,1935
12.6583,1924
12.6611,1920
12.6639,1925
12.6667,1935
12.6694,1932
12.6722,1913
12.6750,1904
12.6778,1889
12.6806,1878
12.6833,1882
12.6861,1906
12.6889,1929
12.6917,1919
12.6944,1904
12.6972,1901
12.7000,1902
12.7028,1922
12.7056,1943
12.7083,1949
12.7111,1944
12.7139,1940
12.7167,1938
12.7194,1917
12.7222,1896
12.7250,1878
12.7278,1872
12.7306,1884
12.7333,1901
12.7361,1919
12.7389,1899
12.7417,1878
12.7444,1888
12.7472,1912
12.7500,1919
12.7528,1902
12.7556,1881
12.7583,1872
12.7611,1852
12.7639,1869
12.7667,1896
12.7694,1905
12.7722,1881
12.7750,1856
12.7778,1829
12.7806,1800
12.7833,1789
12.7861,1811
12.7889,1846
12.7917,1869
12.7944,1888
12.7972,1894
12.8000,1886
12.8028,1869
12.8056,1883
12.8083,1893
12.8111,1902
12.8139,1889
12.8167,1889
12.8194,1885
12.8222,1906
12.8250,1934
12.8278,1932
12.8306,1891
12.8333,1862
12.8361,1849
12.8389,1840
12.8417,1830
12.8444,1842
12.8472,1835
12.8500,1829
12.8528,1834
12.8556,1848
12.8583,1856
12.8611,1859
12.8639,1878
12.8667,1910
12.8694,1914
12.8722,1901
12.8750,1891
12.8778,1860
12.8806,1820
12.8833,1778
12.8861,1785
12.8889,1783
12.8917,1780
12.8944,1778
12.8972,1764
12.9000,1764
12.9028,1768
12.9056,1789
12.9083,1797
12.9111,1785
12.9139,1788
12.9167,1779
12.9194,1767
12.9222,1748
12.9250,1759
12.9278,1756
12.9306,1755
12.9333,1758
12.9361,1760
12.9389,1752
12.9417,1738
12.9444,1740
12.9472,1748
12.9500,1730
12.9528,1712
12.9556,1718
12.9583,1736
12.9611,1720
12.9639,1699
12.9667,1679
12.9694,1646
12.9722,1635
12.9750,1658
12.9778,1694
12.9806,1732
12.9833,1803
12.9861,1947
12.9889,2170
12.9917,2473
12.9944,2826
12.9972,3103
13.0000,3175
13.0028,3006
13.0056,2688
13.0083,2380
13.0111,2131
13.0139,1992
13.0167,1974
13.0194,1990
13.0222,2005
13.0250,2003
13.0278,1974
13.0306,1874
13.0333,1763
13.0361,1695
13.0389,1649
13.0417,1653
13.0444,1676
13.0472,1724
13.0500,1725
13.0528,1697
13.0556,1683
13.0583,1647
13.0611,1635
13.0639,1639
13.0667,1665
13.0694,1660
13.0722,1657
13.0750,1651
13.0778,1649
13.0806,1628
13.0833,1630
13.0861,1673
13.0889,1700
13.0917,1697
13.0944,1680
13.0972,1675
13.1000,1649
13.1028,1644
13.1056,1658
13.1083,1664
13.1111,1668
13.1139,1679
13.1167,1683
13.1194,1656
13.1222,1658
13.1250,1671
13.1278,1683
13.1306,1675
13.1333,1659
13.1361,1652
13.1389,1639
13.1417,1638
13.1444,1657
13.1472,1685
13.1500,1725
13.1528,1736
13.1556,1729
13.1583,1712
13.1611,1692
13.1639,1695
13.1667,1722
13.1694,1739
13.1722,1735
13.1750,1731
13.1778,1707
13.1806,1697
13.1833,1698
13.1861,1723
13.1889,1750
13.1917,1713
13.1944,1700
13.1972,1693
13.2000,1674
13.2028,1693
13.2056,1714
13.2083,1721
13.2111,1707
13.2139,1708
13.2167,1687
13.2194,1660
13.2222,1661
13.2250,1667
13.2278,1693
13.2306,1690
13.2333,1681
13.2361,1669
13.2389,1661
13.2417,1653
13.2444,1665
13.2472,1678
13.2500,1672
13.2528,1656
13.2556,1640
13.2583,1615
13.2611,1601
13.2639,1611
13.2667,1636
13.2694,1643
13.2722,1641
13.2750,1643
13.2778,1637
13.2806,1617
13.2833,1625
13.2861,1639
13.2889,1641
13.2917,1621
13.2944,1639
13.2972,1630
13.3000,1620
13.3028,1631
13.3056,1647
13.3083,1656
13.3111,1656
13.3139,1643
13.3167,1632
13.3194,1613
13.3222,1614
13.3250,1639
13.3278,1665
13.3306,1663
13.3333,1648
13.3361,1635
13.3389,1617
13.3417,1615
13.3444,1633
13.3472,1638
13.3500,1641
13.3528,1638
13.3556,1647
13.3583,1643
13.3611,1637
13.3639,1676
13.3667,1710
13.3694,1709
13.3722,1687
13.3750,1658
13.3778,1596
13.3806,1566
13.3833,1576
13.3861,1622
13.3889,1657
13.3917,1673
13.3944,1687
13.3972,1681
13.4000,1684
13.4028,1693
13.4056,1726
13.4083,1732
13.4111,1737
13.4139,1729
13.4167,1709
13.4194,1686
13.4222,1678
13.4250,1685
13.4278,1713
13.4306,1728
13.4333,1744
13.4361,1742
13.4389,1735
13.4417,1733
13.4444,1715
13.4472,1695
13.4500,1661
13.4528,1642
13.4556,1619
13.4583,1621
13.4611,1628
13.4639,1641
13.4667,1632
13.4694,1597
13.4722,1566
13.4750,1556
13.4778,1557
13.4806,1567
13.4833,1582
13.4861,1582
13.4889,1583
13.4917,1581
13.4944,1583
13.4972,1579
13.5000,1567
13.5028,1577
13.5056,1596
13.5083,1587
13.5111,1576
13.5139,1580
13.5167,1589
13.5194,1579
13.5222,1563
13.5250,1571
13.5278,1582
13.5306,1598
13.5333,1608
13.5361,1588
13.5389,1518
13.5417,1467
13.5444,1453
13.5472,1473
13.5500,1527
13.5528,1596
13.5556,1692
13.5583,1830
13.5611,2037
13.5639,2332
13.5667,2676
13.5694,2969
13.5722,3080
13.5750,2955
13.5778,2616
13.5806,2257
13.5833,1990
13.5861,1847
13.5889,1796
13.5917,1793
13.5944,1790
13.5972,1784
13.6000,1757
13.6028,1714
13.6056,1646
13.6083,1583
13.6111,1519
13.6139,1501
13.6167,1513
13.6194,1524
13.6222,1545
13.6250,1572
13.6278,1561
13.6306,1532
13.6333,1531
13.6361,1541
13.6389,1551
13.6417,1559
13.6444,1554
13.6472,1556
13.6500,1547
13.6528,1541
13.6556,1538
13.6583,1544
13.6611,1548
13.6639,1567
13.6667,1557
13.6694,1548
13.6722,1535
13.6750,1548
13.6778,1559
13.6806,1567
13.6833,1582
13.6861,1599
13.6889,1577
13.6917,1561
13.6944,1564
13.6972,1584
13.7000,1605
13.7028,1621
13.7056,1655
13.7083,1660
13.7111,1646
13.7139,1640
13.7167,1636
13.7194,1639
13.7222,1648
13.7250,1656
13.7278,1653
13.7306,1630
13.7333,1616
13.7361,1616
13.7389,1613
13.7417,1617
13.7444,1625
13.7472,1634
13.7500,1632
13.7528,1625
13.7556,1634
13.7583,1654
13.7611,1670
13.7639,1710
13.7667,1721
13.7694,1720
13.7722,1706
13.7750,1683
13.7778,1661
13.7806,1660
13.7833,1666
13.7861,1669
13.7889,1647
13.7917,1644
13.7944,1650
13.7972,1653
13.8000,1667
13.8028,1692
13.8056,1705
13.8083,1695
13.8111,1666
13.8139,1640
13.8167,1617
13.8194,1599
13.8222,1619
13.8250,1640
13.8278,1640
13.8306,1619
13.8333,1606
13.8361,1609
13.8389,1635
13.8417,1680
13.8444,1704
13.8472,1687
13.8500,1658
13.8528,1644
13.8556,1626
13.8583,1637
13.8611,1644
13.8639,1664
13.8667,1663
13.8694,1653
13.8722,1644
13.8750,1630
13.8778,1629
13.8806,1632
13.8833,1650
13.8861,1668
13.8889,1669
13.8917,1680
13.8944,1668
13.8972,1656
13.9000,1647
13.9028,1661
13.9056,1665
13.9083,1671
13.9111,1677
13.9139,1682
13.9167,1679
13.9194,1660
13.9222,1670
13.9250,1684
13.9278,1674
13.9306,1675
13.9333,1674
13.9361,1670
13.9389,1666
13.9417,1664
13.9444,1677
13.9472,1668
13.9500,1653
13.9528,1651
13.9556,1658
13.9583,1659
13.9611,1684
13.9639,1706
13.9667,1734
13.9694,1734
13.9722,1733
13.9750,1732
13.9778,1722
13.9806,1720
13.9833,1725
13.9861,1717
13.9889,1705
13.9917,1705
13.9944,1719
13.9972,1728
14.0000,1752
14.0028,1787
14.0056,1808
14.0083,1800
14.0111,1775
14.0139,1747
14.0167,1735
14.0194,1720
14.0222,1716
14.0250,1694
14.0278,1664
14.0306,1632
14.0333,1627
14.0361,1623
14.0389,1606
14.0417,1615
14.0444,1636
14.0472,1645
14.0500,1619
14.0528,1629
14.0556,1623
14.0583,1622
14.0611,1650
14.0639,1663
14.0667,1673
14.0694,1680
14.0722,1678
14.0750,1680
14.0778,1683
14.0806,1693
14.0833,1703
14.0861,1698
14.0889,1680
14.0917,1675
14.0944,1671
14.0972,1654
14.1000,1639
14.1028,1628
14.1056,1638
14.1083,1628
14.1111,1608
14.1139,1565
14.1167,1535
14.1194,1531
14.1222,1571
14.1250,1623
14.1278,1666
14.1306,1727
14.1333,1827
14.1361,1995
14.1389,2239
14.1417,2520
14.1444,2762
14.1472,2816
14.1500,2658
14.1528,2408
14.1556,2176
14.1583,2023
14.1611,1935
14.1639,1920
14.1667,1916
14.1694,1934
14.1722,1946
14.1750,1934
14.1778,1861
14.1806,1776
14.1833,1711
14.1861,1674
14.1889,1640
14.1917,1639
14.1944,1651
14.1972,1660
14.2000,1662
14.2028,1673
14.2056,1671
14.2083,1646
14.2111,1641
14.2139,1645
14.2167,1662
14.2194,1664
14.2222,1662
14.2250,1650
14.2278,1638
14.2306,1637
14.2333,1650
14.2361,1673
14.2389,1670
14.2417,1663
14.2444,1640
14.2472,1627
14.2500,1624
14.2528,1643
14.2556,1659
14.2583,1691
14.2611,1719
14.2639,1729
14.2667,1735
14.2694,1712
14.2722,1707
14.2750,1697
14.2778,1687
14.2806,1692
14.2833,1700
14.2861,1715
14.2889,1711
14.2917,1724
14.2944,1739
14.2972,1736
14.3000,1727
14.3028,1730
14.3056,1737
14.3083,1732
14.3111,1739
14.3139,1749
14.3167,1741
14.3194,1730
14.3222,1726
14.3250,1725
14.3278,1738
14.3306,1748
14.3333,1758
14.3361,1799
14.3389,1829
14.3417,1835
14.3444,1832
14.3472,1814
14.3500,1786
14.3528,1765
14.3556,1763
14.3583,1766
14.3611,1780
14.3639,1803
14.3667,1784
14.3694,1761
14.3722,1738
14.3750,1727
14.3778,1711
14.3806,1715
14.3833,1731
14.3861,1730
14.3889,1711
14.3917,1692
14.3944,1672
14.3972,1654
14.4000,1656
14.4028,1670
14.4056,1692
14.4083,1712
14.4111,1733
14.4139,1730
14.4167,1718
14.4194,1731
14.4222,1740
14.4250,1754
14.4278,1746
14.4306,1734
14.4333,1732
14.4361,1713
14.4389,1685
14.4417,1671
14.4444,1689
14.4472,1696
14.4500,1689
14.4528,1705
14.4556,1703
14.4583,1697
14.4611,1696
14.4639,1694
14.4667,1688
14.4694,1684
14.4722,1691
14.4750,1681
14.4778,1664
14.4806,1664
14.4833,1683
14.4861,1698
14.4889,1706
14.4917,1718
14.4944,1736
14.4972,1736
14.5000,1722
14.5028,1725
14.5056,1723
14.5083,1723
14.5111,1726
14.5139,1729
14.5167,1727
14.5194,1719
14.5222,1717
14.5250,1717
14.5278,1708
14.5306,1711
14.5333,1726
14.5361,1717
14.5389,1707
14.5417,1712
14.5444,1722
14.5472,1719
14.5500,1731
14.5528,1730
14.5556,1724
14.5583,1728
14.5611,1743
14.5639,1758
14.5667,1767
14.5694,1766
14.5722,1783
14.5750,1775
14.5778,1758
14.5806,1747
14.5833,1746
14.5861,1746
14.5889,1744
14.5917,1755
14.5944,1785
14.5972,1816
14.6000,1841
14.6028,1850
14.6056,1868
14.6083,1852
14.6111,1827
14.6139,1781
14.6167,1721
14.6194,1693
14.6222,1722
14.6250,1757
14.6278,1757
14.6306,1742
14.6333,1726
14.6361,1679
14.6389,1659
14.6417,1664
14.6444,1677
14.6472,1679
14.6500,1691
14.6528,1710
14.6556,1711
14.6583,1713
14.6611,1705
14.6639,1701
14.6667,1694
14.6694,1687
14.6722,1688
14.6750,1692
14.6778,1689
14.6806,1694
14.6833,1720
14.6861,1727
14.6889,1737
14.6917,1734
14.6944,1742
14.6972,1728
14.7000,1692
14.7028,1662
14.7056,1623
14.7083,1590
14.7111,1582
14.7139,1603
14.7167,1636
14.7194,1678
14.7222,1762
14.7250,1884
14.7278,2088
14.7306,2381
14.7333,2682
14.7361,2883
14.7389,2882
14.7417,2691
14.7444,2441
14.7472,2204
14.7500,2056
14.7528,1988
14.7556,1956
14.7583,1950
14.7611,1943
14.7639,1942
14.7667,1893
14.7694,1818
14.7722,1751
14.7750,1712
14.7778,1677
14.7806,1685
14.7833,1693
14.7861,1707
14.7889,1695
14.7917,1682
14.7944,1661
14.7972,1627
14.8000,1622
14.8028,1637
14.8056,1656
14.8083,1652
14.8111,1649
14.8139,1647
14.8167,1645
14.8194,1652
14.8222,1686
14.8250,1714
14.8278,1704
14.8306,1690
14.8333,1681
14.8361,1658
14.8389,1650
14.8417,1650
14.8444,1668
14.8472,1679
14.8500,1700
14.8528,1720
14.8556,1723
14.8583,1721
14.8611,1722
14.8639,1734
14.8667,1720
14.8694,1719
14.8722,1713
14.8750,1700
14.8778,1686
14.8806,1697
14.8833,1721
14.8861,1729
14.8889,1742
14.8917,1754
14.8944,1742
14.8972,1733
14.9000,1744
14.9028,1751
14.9056,1761
14.9083,1774
14.9111,1779
14.9139,1757
14.9167,1732
14.9194,1719
14.9222,1726
14.9250,1749
14.9278,1817
14.9306,1796
14.9333,1780
14.9361,1752
14.9389,1757
14.9417,1762
14.9444,1775
14.9472,1761
14.9500,1741
14.9528,1733
14.9556,1704
14.9583,1706
14.9611,1730
14.9639,1750
14.9667,1741
14.9694,1736
14.9722,1704
14.9750,1688
14.9778,1687
14.9806,1694
14.9833,1709
14.9861,1719
14.9889,1708
14.9917,1702
14.9944,1684
14.9972,1677
15.0000,1683
15.0028,1700
15.0056,1700
15.0083,1699
15.0111,1688
15.0139,1683
15.0167,1680
15.0194,1672
15.0222,1683
15.0250,1686
15.0278,1666
15.0306,1661
15.0333,1672
15.0361,1672
15.0389,1689
15.0417,1718
15.0444,1747
15.0472,1759
15.0500,1743
15.0528,1722
15.0556,1696
15.0583,1696
15.0611,1705
15.0639,1715
15.0667,1719
15.0694,1725
15.0722,1719
15.0750,1701
15.0778,1691
15.0806,1683
15.0833,1700
15.0861,1702
15.0889,1703
15.0917,1711
15.0944,1710
15.0972,1694
15.1000,1698
15.1028,1711
15.1056,1719
15.1083,1718
15.1111,1725
15.1139,1724
15.1167,1698
15.1194,1692
15.1222,1705
15.1250,1698
15.1278,1685
15.1306,1686
15.1333,1700
15.1361,1688
15.1389,1687
15.1417,1682
15.1444,1690
15.1472,1697
15.1500,1702
15.1528,1698
15.1556,1678
15.1583,1664
15.1611,1670
15.1639,1682
15.1667,1692
15.1694,1688
15.1722,1702
15.1750,1709
15.1778,1718
15.1806,1738
15.1833,1751
15.1861,1737
15.1889,1726
15.1917,1719
15.1944,1725
15.1972,1715
15.2000,1712
15.2028,1707
15.2056,1698
15.2083,1705
15.2111,1723
15.2139,1743
15.2167,1764
15.2194,1795
15.2222,1821
15.2250,1827
15.2278,1808
15.2306,1777
15.2333,1728
15.2361,1684
15.2389,1670
15.2417,1665
15.2444,1669
15.2472,1663
15.2500,1656
15.2528,1659
15.2556,1649
15.2583,1644
15.2611,1636
15.2639,1639
15.2667,1641
15.2694,1658
15.2722,1674
15.2750,1653
15.2778,1634
15.2806,1625
15.2833,1630
15.2861,1632
15.2889,1640
15.2917,1642
15.2944,1634
15.2972,1632
15.3000,1640
15.3028,1635
15.3056,1622
15.3083,1619
15.3111,1615
15.3139,1611
15.3167,1600
15.3194,1582
15.3222,1568
15.3250,1564
15.3278,1572
15.3306,1597
15.3333,1636
15.3361,1657
15.3389,1723
15.3417,1854
15.3444,2076
15.3472,2374
15.3500,2688
15.3528,2935
15.3556,2969
15.3583,2777
15.3611,2506
15.3639,2228
15.3667,2029
15.3694,1928
15.3722,1888
15.3750,1876
15.3778,1860
15.3806,1853
15.3833,1818
15.3861,1760
15.3889,1708
15.3917,1672
15.3944,1643
15.3972,1631
15.4000,1639
15.4028,1653
15.4056,1657
15.4083,1657
15.4111,1649
15.4139,1643
15.4167,1630
15.4194,1624
15.4222,1645
15.4250,1643
15.4278,1644
15.4306,1652
15.4333,1664
15.4361,1654
15.4389,1658
15.4417,1677
15.4444,1667
15.4472,1651
15.4500,1644
15.4528,1641
15.4556,1632
15.4583,1647
15.4611,1677
15.4639,1700
15.4667,1688
15.4694,1671
15.4722,1655
15.4750,1650
15.4778,1656
15.4806,1690
15.4833,1723
15.4861,1720
15.4889,1699
15.4917,1682
15.4944,1673
15.4972,1675
15.5000,1704
15.5028,1715
15.5056,1708
15.5083,1687
15.5111,1656
15.5139,1642
15.5167,1640
15.5194,1679
15.5222,1709
15.5250,1715
15.5278,1730
15.5306,1737
15.5333,1740
15.5361,1751
15.5389,1752
15.5417,1769
15.5444,1790
15.5472,1755
15.5500,1774
15.5528,1775
15.5556,1758
15.5583,1789
15.5611,1790
15.5639,1779
15.5667,1760
15.5694,1733
15.5722,1703
15.5750,1679
15.5778,1681
15.5806,1690
15.5833,1714
15.5861,1719
15.5889,1719
15.5917,1714
15.5944,1685
15.5972,1686
15.6000,1712
15.6028,1735
15.6056,1713
15.6083,1675
15.6111,1640
15.6139,1622
15.6167,1641
15.6194,1688
15.6222,1734
15.6250,1747
15.6278,1737
15.6306,1722
15.6333,1696
15.6361,1690
15.6389,1720
15.6417,1769
15.6444,1786
15.6472,1784
15.6500,1771
15.6528,1734
15.6556,1704
15.6583,1708
15.6611,1728
15.6639,1746
15.6667,1747
15.6694,1746
15.6722,1739
15.6750,1723
15.6778,1734
15.6806,1732
15.6833,1731
15.6861,1714
15.6889,1721
15.6917,1734
15.6944,1742
15.6972,1748
15.7000,1762
15.7028,1779
15.7056,1781
15.7083,1759
15.7111,1736
15.7139,1695
15.7167,1674
15.7194,1663
15.7222,1682
15.7250,1697
15.7278,1707
15.7306,1720
15.7333,1734
15.7361,1739
15.7389,1755
15.7417,1772
15.7444,1769
15.7472,1750
15.7500,1743
15.7528,1713
15.7556,1698
15.7583,1693
15.7611,1704
15.7639,1719
15.7667,1736
15.7694,1746
15.7722,1746
15.7750,1727
15.7778,1724
15.7806,1726
15.7833,1730
15.7861,1729
15.7889,1733
15.7917,1735
15.7944,1728
15.7972,1724
15.8000,1740
15.8028,1748
15.8056,1760
15.8083,1777
15.8111,1786
15.8139,1778
15.8167,1755
15.8194,1755
15.8222,1743
15.8250,1732
15.8278,1740
15.8306,1762
15.8333,1758
15.8361,1764
15.8389,1772
15.8417,1791
15.8444,1793
15.8472,1786
15.8500,1798
15.8528,1810
15.8556,1818
15.8583,1839
15.8611,1857
15.8639,1843
15.8667,1807
15.8694,1756
15.8722,1713
15.8750,1684
15.8778,1689
15.8806,1709
15.8833,1714
15.8861,1710
15.8889,1711
15.8917,1696
15.8944,1680
15.8972,1663
15.9000,1680
15.9028,1690
15.9056,1686
15.9083,1692
15.9111,1686
15.9139,1689
15.9167,1698
15.9194,1700
15.9222,1699
15.9250,1674
15.9278,1663
15.9306,1658
15.9333,1682
15.9361,1703
15.9389,1720
15.9417,1732
15.9444,1721
15.9472,1705
15.9500,1692
15.9528,1656
15.9556,1606
15.9583,1588
15.9611,1601
15.9639,1632
15.9667,1679
15.9694,1723
15.9722,1782
15.9750,1893
15.9778,2109
15.9806,2409
15.9833,2731
15.9861,2984
15.9889,3062
15.9917,2905
15.9944,2614
15.9972,2309
16.0000,2119
16.0028,2012
16.0056,1947
16.0083,1923
16.0111,1914
16.0139,1880
16.0167,1843
16.0194,1801
16.0222,1757
16.0250,1706
16.0278,1662
16.0306,1664
16.0333,1673
16.0361,1695
16.0389,1705
16.0417,1709
16.0444,1685
16.0472,1674
16.0500,1677
16.0528,1701
16.0556,1699
16.0583,1704
16.0611,1694
16.0639,1674
16.0667,1645
16.0694,1654
16.0722,1660
16.0750,1668
16.0778,1689
16.0806,1698
16.0833,1710
16.0861,1709
16.0889,1713
16.0917,1714
16.0944,1711
16.0972,1697
16.1000,1697
16.1028,1688
16.1056,1674
16.1083,1663
16.1111,1670
16.1139,1681
16.1167,1706
16.1194,1720
16.1222,1725
16.1250,1722
16.1278,1705
16.1306,1715
16.1333,1715
16.1361,1711
16.1389,1715
16.1417,1719
16.1444,1717
16.1472,1732
16.1500,1742
16.1528,1752
16.1556,1745
16.1583,1748
16.1611,1759
16.1639,1766
16.1667,1778
16.1694,1794
16.1722,1798
16.1750,1805
16.1778,1809
16.1806,1814
16.1833,1826
16.1861,1794
16.1889,1769
16.1917,1745
16.1944,1741
16.1972,1760
16.2000,1785
16.2028,1794
16.2056,1777
16.2083,1758
16.2111,1742
16.2139,1718
16.2167,1713
16.2194,1717
16.2222,1721
16.2250,1727
16.2278,1717
16.2306,1726
16.2333,1724
16.2361,1714
16.2389,1726
16.2417,1724
16.2444,1719
16.2472,1716
16.2500,1712
16.2528,1716
16.2556,1728
16.2583,1753
16.2611,1757
16.2639,1762
16.2667,1758
16.2694,1761
16.2722,1764
16.2750,1744
16.2778,1738
16.2806,1731
16.2833,1706
16.2861,1703
16.2889,1713
16.2917,1734
16.2944,1734
16.2972,1751
16.3000,1749
16.3028,1725
16.3056,1711
16.3083,1721
16.3111,1731
16.3139,1745
16.3167,1763
16.3194,1779
16.3222,1785
16.3250,1766
16.3278,1746
16.3306,1733
16.3333,1712
16.3361,1697
16.3389,1696
16.3417,1703
16.3444,1719
16.3472,1731
16.3500,1733
16.3528,1720
16.3556,1702
16.3583,1709
16.3611,1722
16.3639,1742
16.3667,1746
16.3694,1741
16.3722,1722
16.3750,1690
16.3778,1673
16.3806,1659
16.3833,1656
16.3861,1650
16.3889,1675
16.3917,1684
16.3944,1701
16.3972,1731
16.4000,1759
16.4028,1756
16.4056,1739
16.4083,1721
16.4111,1717
16.4139,1708
16.4167,1710
16.4194,1721
16.4222,1707
16.4250,1697
16.4278,1704
16.4306,1721
16.4333,1728
16.4361,1735
16.4389,1750
16.4417,1739
16.4444,1719
16.4472,1702
16.4500,1713
16.4528,1717
16.4556,1702
16.4583,1710
16.4611,1731
16.4639,1744
16.4667,1746
16.4694,1749
16.4722,1750
16.4750,1744
16.4778,1749
16.4806,1755
16.4833,1729
16.4861,1697
16.4889,1687
16.4917,1691
16.4944,1702
16.4972,1712
16.5000,1729
16.5028,1754
16.5056,1781
16.5083,1797
16.5111,1793
16.5139,1783
16.5167,1769
16.5194,1783
16.5222,1789
16.5250,1781
16.5278,1779
16.5306,1795
16.5333,1796
16.5361,1802
16.5389,1827
16.5417,1839
16.5444,1828
16.5472,1811
16.5500,1799
16.5528,1765
16.5556,1724
16.5583,1706
16.5611,1703
16.5639,1685
16.5667,1667
16.5694,1655
16.5722,1652
16.5750,1660
16.5778,1665
16.5806,1671
16.5833,1684
16.5861,1677
16.5889,1684
16.5917,1679
16.5944,1676
16.5972,1700
16.6000,1684
16.6028,1658
16.6056,1651
16.6083,1692
16.6111,1747
16.6139,1768
16.6167,1765
16.6194,1755
16.6222,1730
16.6250,1701
16.6278,1669
16.6306,1648
16.6333,1632
16.6361,1618
16.6389,1613
16.6417,1597
16.6444,1588
16.6472,1608
16.6500,1651
16.6528,1671
16.6556,1725
16.6583,1858
16.6611,2083
16.6639,2384
16.6667,2719
16.6694,2947
16.6722,2999
16.6750,2827
16.6778,2531
16.6806,2249
16.6833,2039
16.6861,1932
16.6889,1908
16.6917,1913
16.6944,1929
16.6972,1920
16.7000,1877
16.7028,1807
16.7056,1720
16.7083,1665
16.7111,1641
16.7139,1634
16.7167,1656
16.7194,1695
16.7222,1689
16.7250,1662
16.7278,1629
16.7306,1603
16.7333,1604
16.7361,1623
16.7389,1653
16.7417,1679
16.7444,1672
16.7472,1644
16.7500,1617
16.7528,1616
16.7556,1615
16.7583,1638
16.7611,1675
16.7639,1694
16.7667,1689
16.7694,1684
16.7722,1648
16.7750,1644
16.7778,1656
16.7806,1672
16.7833,1682
16.7861,1676
16.7889,1676
16.7917,1670
16.7944,1661
16.7972,1676
16.8000,1697
16.8028,1697
16.8056,1695
16.8083,1671
16.8111,1668
16.8139,1681
16.8167,1688
16.8194,1703
16.8222,1699
16.8250,1682
16.8278,1679
16.8306,1673
16.8333,1676
16.8361,1691
16.8389,1707
16.8417,1722
16.8444,1711
16.8472,1699
16.8500,1694
16.8528,1715
16.8556,1731
16.8583,1754
16.8611,1829
16.8639,1786
16.8667,1771
16.8694,1738
16.8722,1723
16.8750,1729
16.8778,1755
16.8806,1772
16.8833,1749
16.8861,1727
16.8889,1706
16.8917,1674
16.8944,1654
16.8972,1677
16.9000,1715
16.9028,1721
16.9056,1723
16.9083,1715
16.9111,1708
16.9139,1686
16.9167,1710
16.9194,1722
16.9222,1704
16.9250,1684
16.9278,1655
16.9306,1632
16.9333,1601
16.9361,1618
16.9389,1659
16.9417,1675
16.9444,1691
16.9472,1714
16.9500,1712
16.9528,1697
16.9556,1688
16.9583,1715
16.9611,1716
16.9639,1721
16.9667,1713
16.9694,1717
16.9722,1705
16.9750,1686
16.9778,1701
16.9806,1708
16.9833,1692
16.9861,1665
16.9889,1659
16.9917,1665
16.9944,1681
16.9972,1719
17.0000,1740
17.0028,1744
17.0056,1744
17.0083,1735
17.0111,1720
17.0139,1708
17.0167,1710
17.0194,1710
17.0222,1692
17.0250,1670
17.0278,1655
17.0306,1645
17.0333,1654
17.0361,1676
17.0389,1712
17.0417,1702
17.0444,1675
17.0472,1653
17.0500,1653
17.0528,1681
17.0556,1698
17.0583,1721
17.0611,1731
17.0639,1706
17.0667,1681
17.0694,1688
17.0722,1688
17.0750,1700
17.0778,1736
17.0806,1744
17.0833,1722
17.0861,1682
17.0889,1665
17.0917,1656
17.0944,1670
17.0972,1689
17.1000,1699
17.1028,1702
17.1056,1698
17.1083,1692
17.1111,1693
17.1139,1675
17.1167,1685
17.1194,1693
17.1222,1692
17.1250,1678
17.1278,1667
17.1306,1646
17.1333,1630
17.1361,1640
17.1389,1672
17.1417,1695
17.1444,1708
17.1472,1721
17.1500,1726
17.1528,1702
17.1556,1668
17.1583,1679
17.1611,1670
17.1639,1663
17.1667,1684
17.1694,1696
17.1722,1686
17.1750,1670
17.1778,1710
17.1806,1737
17.1833,1749
17.1861,1758
17.1889,1767
17.1917,1747
17.1944,1744
17.1972,1747
17.2000,1758
17.2028,1756
17.2056,1753
17.2083,1752
17.2111,1760
17.2139,1769
17.2167,1788
17.2194,1802
17.2222,1783
17.2250,1774
17.2278,1765
17.2306,1758
17.2333,1730
17.2361,1713
17.2389,1702
17.2417,1686
17.2444,1672
17.2472,1654
17.2500,1645
17.2528,1644
17.2556,1653
17.2583,1674
17.2611,1684
17.2639,1687
17.2667,1702
17.2694,1718
17.2722,1708
17.2750,1685
17.2778,1677
17.2806,1670
17.2833,1665
17.2861,1669
17.2889,1666
17.2917,1659
17.2944,1650
17.2972,1661
17.3000,1687
17.3028,1698
17.3056,1703
17.3083,1697
17.3111,1694
17.3139,1670
17.3167,1665
17.3194,1637
17.3222,1605
17.3250,1590
17.3278,1596
17.3306,1616
17.3333,1653
17.3361,1709
17.3389,1810
17.3417,1983
17.3444,2252
17.3472,2584
17.3500,2853
17.3528,2952
17.3556,2826
17.3583,2557
17.3611,2260
17.3639,2038
17.3667,1941
17.3694,1922
17.3722,1932
17.3750,1944
17.3778,1947
17.3806,1932
17.3833,1856
17.3861,1768
17.3889,1704
17.3917,1676
17.3944,1666
17.3972,1667
17.4000,1675
17.4028,1656
17.4056,1634
17.4083,1619
17.4111,1605
17.4139,1584
17.4167,1607
17.4194,1639
17.4222,1644
17.4250,1650
17.4278,1636
17.4306,1628
17.4333,1623
17.4361,1619
17.4389,1622
17.4417,1620
17.4444,1625
17.4472,1643
17.4500,1653
17.4528,1652
17.4556,1680
17.4583,1699
17.4611,1706
17.4639,1697
17.4667,1680
17.4694,1655
17.4722,1624
17.4750,1619
17.4778,1637
17.4806,1659
17.4833,1654
17.4861,1642
17.4889,1620
17.4917,1610
17.4944,1627
17.4972,1670
17.5000,1716
17.5028,1739
17.5056,1749
17.5083,1740
17.5111,1720
17.5139,1702
17.5167,1704
17.5194,1737
17.5222,1736
17.5250,1740
17.5278,1728
17.5306,1706
17.5333,1677
17.5361,1677
17.5389,1690
17.5417,1769
17.5444,1742
17.5472,1733
17.5500,1723
17.5528,1711
17.5556,1724
17.5583,1742
17.5611,1760
17.5639,1760
17.5667,1743
17.5694,1710
17.5722,1696
17.5750,1691
17.5778,1698
17.5806,1695
17.5833,1679
17.5861,1669
17.5889,1661
17.5917,1657
17.5944,1681
17.5972,1716
17.6000,1734
17.6028,1733
17.6056,1712
17.6083,1694
17.6111,1654
17.6139,1634
17.6167,1643
17.6194,1660
17.6222,1657
17.6250,1638
17.6278,1617
17.6306,1600
17.6333,1598
17.6361,1637
17.6389,1663
17.6417,1688
17.6444,1683
17.6472,1674
17.6500,1653
17.6528,1644
17.6556,1636
17.6583,1658
17.6611,1667
17.6639,1691
17.6667,1694
17.6694,1687
17.6722,1679
17.6750,1691
17.6778,1707
17.6806,1708
17.6833,1696
17.6861,1681
17.6889,1679
17.6917,1676
17.6944,1677
17.6972,1702
17.7000,1712
17.7028,1690
17.7056,1676
17.7083,1669
17.7111,1656
17.7139,1660
17.7167,1687
17.7194,1706
17.7222,1724
17.7250,1731
17.7278,1723
17.7306,1696
17.7333,1677
17.7361,1671
17.7389,1684
17.7417,1695
17.7444,1714
17.7472,1732
17.7500,1725
17.7528,1697
17.7556,1670
17.7583,1662
17.7611,1656
17.7639,1670
17.7667,1685
17.7694,1691
17.7722,1685
17.7750,1686
17.7778,1697
17.7806,1711
17.7833,1695
17.7861,1697
17.7889,1684
17.7917,1671
17.7944,1667
17.7972,1670
17.8000,1681
17.8028,1697
17.8056,1710
17.8083,1720
17.8111,1728
17.8139,1725
17.8167,1741
17.8194,1739
17.8222,1736
17.8250,1715
17.8278,1684
17.8306,1661
17.8333,1645
17.8361,1683
17.8389,1714
17.8417,1730
17.8444,1720
17.8472,1714
17.8500,1696
17.8528,1688
17.8556,1699
17.8583,1697
17.8611,1696
17.8639,1708
17.8667,1740
17.8694,1753
17.8722,1758
17.8750,1756
17.8778,1757
17.8806,1760
17.8833,1744
17.8861,1747
17.8889,1725
17.8917,1710
17.8944,1741
17.8972,1797
17.9000,1830
17.9028,1844
17.9056,1836
17.9083,1793
17.9111,1732
17.9139,1675
17.9167,1642
17.9194,1630
17.9222,1633
17.9250,1658
17.9278,1693
17.9306,1706
17.9333,1712
17.9361,1728
17.9389,1727
17.9417,1721
17.9444,1708
17.9472,1689
17.9500,1681
17.9528,1678
17.9556,1675
17.9583,1677
17.9611,1680
17.9639,1687
17.9667,1708
17.9694,1715
17.9722,1686
17.9750,1676
17.9778,1684
17.9806,1704
17.9833,1708
17.9861,1708
17.9889,1694
17.9917,1662
17.9944,1624
17.9972,1600
18.0000,1579
18.0028,1569
18.0056,1614
18.0083,1670
18.0111,1750
18.0139,1865
18.0167,2025
18.0194,2242
18.0222,2474
18.0250,2642
18.0278,2666
18.0306,2518
18.0333,2286
18.0361,2128
18.0389,2030
18.0417,1962
18.0444,1933
18.0472,1944
18.0500,1955
18.0528,1967
18.0556,1959
18.0583,1911
18.0611,1845
18.0639,1755
18.0667,1695
18.0694,1654
18.0722,1656
18.0750,1682
18.0778,1698
18.0806,1689
18.0833,1671
18.0861,1666
18.0889,1650
18.0917,1635
18.0944,1648
18.0972,1676
18.1000,1688
18.1028,1691
18.1056,1687
18.1083,1678
18.1111,1660
18.1139,1648
18.1167,1652
18.1194,1659
18.1222,1665
18.1250,1683
18.1278,1702
18.1306,1691
18.1333,1680
18.1361,1687
18.1389,1688
18.1417,1685
18.1444,1693
18.1472,1722
18.1500,1742
18.1528,1741
18.1556,1757
18.1583,1754
18.1611,1730
18.1639,1710
18.1667,1699
18.1694,1689
18.1722,1684
18.1750,1690
18.1778,1727
18.1806,1743
18.1833,1726
18.1861,1718
18.1889,1714
18.1917,1745
18.1944,1777
18.1972,1795
18.2000,1795
18.2028,1758
18.2056,1731
18.2083,1723
18.2111,1745
18.2139,1764
18.2167,1855
18.2194,1840
18.2222,1832
18.2250,1824
18.2278,1783
18.2306,1752
18.2333,1751
18.2361,1772
18.2389,1791
18.2417,1794
18.2444,1772
18.2472,1755
18.2500,1736
18.2528,1710
18.2556,1722
18.2583,1741
18.2611,1729
18.2639,1703
18.2667,1692
18.2694,1712
18.2722,1703
18.2750,1714
18.2778,1715
18.2806,1710
18.2833,1710
18.2861,1696
18.2889,1694
18.2917,1688
18.2944,1682
18.2972,1677
18.3000,1684
18.3028,1685
18.3056,1718
18.3083,1747
18.3111,1742
18.3139,1718
18.3167,1676
18.3194,1644
18.3222,1604
18.3250,1594
18.3278,1610
18.3306,1639
18.3333,1694
18.3361,1747
18.3389,1750
18.3417,1716
18.3444,1693
18.3472,1677
18.3500,1666
18.3528,1664
18.3556,1671
18.3583,1689
18.3611,1712
18.3639,1722
18.3667,1700
18.3694,1669
18.3722,1642
18.3750,1653
18.3778,1656
18.3806,1659
18.3833,1669
18.3861,1672
18.3889,1682
18.3917,1698
18.3944,1696
18.3972,1697
18.4000,1673
18.4028,1661
18.4056,1649
18.4083,1653
18.4111,1654
18.4139,1684
18.4167,1695
18.4194,1692
18.4222,1685
18.4250,1687
18.4278,1675
18.4306,1659
18.4333,1665
18.4361,1673
18.4389,1682
18.4417,1675
18.4444,1662
18.4472,1639
18.4500,1634
18.4528,1646
18.4556,1669
18.4583,1703
18.4611,1687
18.4639,1681
18.4667,1667
18.4694,1642
18.4722,1630
18.4750,1644
18.4778,1649
18.4806,1644
18.4833,1663
18.4861,1659
18.4889,1659
18.4917,1651
18.4944,1646
18.4972,1658
18.5000,1642
18.5028,1648
18.5056,1662
18.5083,1666
18.5111,1658
18.5139,1648
18.5167,1667
18.5194,1676
18.5222,1690
18.5250,1701
18.5278,1699
18.5306,1704
18.5333,1719
18.5361,1748
18.5389,1751
18.5417,1729
18.5444,1704
18.5472,1698
18.5500,1682
18.5528,1702
18.5556,1746
18.5583,1789
18.5611,1808
18.5639,1801
18.5667,1791
18.5694,1768
18.5722,1745
18.5750,1728
18.5778,1710
18.5806,1669
18.5833,1639
18.5861,1624
18.5889,1620
18.5917,1621
18.5944,1623
18.5972,1633
18.6000,1633
18.6028,1645
18.6056,1651
18.6083,1659
18.6111,1648
18.6139,1663
18.6167,1674
18.6194,1659
18.6222,1671
18.6250,1682
18.6278,1681
18.6306,1675
18.6333,1679
18.6361,1692
18.6389,1673
18.6417,1648
18.6444,1657
18.6472,1651
18.6500,1639
18.6528,1626
18.6556,1632
18.6583,1610
18.6611,1553
18.6639,1513
18.6667,1523
18.6694,1554
18.6722,1591
18.6750,1646
18.6778,1713
18.6806,1787
18.6833,1954
18.6861,2193
18.6889,2487
18.6917,2713
18.6944,2773
18.6972,2636
18.7000,2379
18.7028,2125
18.7056,1975
18.7083,1891
18.7111,1853
18.7139,1864
18.7167,1884
18.7194,1866
18.7222,1834
18.7250,1767
18.7278,1690
18.7306,1618
18.7333,1596
18.7361,1594
18.7389,1617
18.7417,1620
18.7444,1651
18.7472,1657
18.7500,1638
18.7528,1627
18.7556,1627
18.7583,1636
18.7611,1631
18.7639,1647
18.7667,1620
18.7694,1596
18.7722,1582
18.7750,1588
18.7778,1602
18.7806,1621
18.7833,1644
18.7861,1649
18.7889,1632
18.7917,1621
18.7944,1626
18.7972,1657
18.8000,1658
18.8028,1672
18.8056,1670
18.8083,1663
18.8111,1650
18.8139,1642
18.8167,1648
18.8194,1658
18.8222,1655
18.8250,1663
18.8278,1657
18.8306,1632
18.8333,1640
18.8361,1658
18.8389,1663
18.8417,1670
18.8444,1685
18.8472,1687
18.8500,1684
18.8528,1679
18.8556,1679
18.8583,1669
18.8611,1680
18.8639,1711
18.8667,1731
18.8694,1747
18.8722,1738
18.8750,1748
18.8778,1756
18.8806,1753
18.8833,1799
18.8861,1781
18.8889,1748
18.8917,1756
18.8944,1766
18.8972,1797
18.9000,1794
18.9028,1788
18.9056,1761
18.9083,1724
18.9111,1692
18.9139,1694
18.9167,1713
18.9194,1720
18.9222,1716
18.9250,1722
18.9278,1704
18.9306,1685
18.9333,1680
18.9361,1694
18.9389,1699
18.9417,1685
18.9444,1679
18.9472,1668
18.9500,1646
18.9528,1653
18.9556,1650
18.9583,1658
18.9611,1655
18.9639,1677
18.9667,1690
18.9694,1670
18.9722,1673
18.9750,1667
18.9778,1666
18.9806,1663
18.9833,1675
18.9861,1675
18.9889,1673
18.9917,1693
18.9944,1724
18.9972,1744
19.0000,1742
19.0028,1745
19.0056,1714
19.0083,1662
19.0111,1631
19.0139,1641
19.0167,1659
19.0194,1667
19.0222,1676
19.0250,1678
19.0278,1665
19.0306,1670
19.0333,1680
19.0361,1712
19.0389,1723
19.0417,1707
19.0444,1695
19.0472,1676
19.0500,1654
19.0528,1663
19.0556,1700
19.0583,1715
19.0611,1727
19.0639,1719
19.0667,1702
19.0694,1679
19.0722,1678
19.0750,1698
19.0778,1721
19.0806,1726
19.0833,1726
19.0861,1725
19.0889,1710
19.0917,1703
19.0944,1698
19.0972,1691
19.1000,1672
19.1028,1670
19.1056,1674
19.1083,1675
19.1111,1672
19.1139,1668
19.1167,1677
19.1194,1692
19.1222,1697
19.1250,1717
19.1278,1700
19.1306,1674
19.1333,1679
19.1361,1685
19.1389,1685
19.1417,1682
19.1444,1695
19.1472,1692
19.1500,1682
19.1528,1689
19.1556,1705
19.1583,1718
19.1611,1720
19.1639,1731
19.1667,1737
19.1694,1724
19.1722,1729
19.1750,1749
19.1778,1755
19.1806,1761
19.1833,1764
19.1861,1769
19.1889,1772
19.1917,1766
19.1944,1778
19.1972,1785
19.2000,1781
19.2028,1787
19.2056,1783
19.2083,1753
19.2111,1737
19.2139,1753
19.2167,1749
19.2194,1726
19.2222,1716
19.2250,1716
19.2278,1707
19.2306,1694
19.2333,1704
19.2361,1709
19.2389,1708
19.2417,1711
19.2444,1705
19.2472,1702
19.2500,1702
19.2528,1708
19.2556,1707
19.2583,1706
19.2611,1686
19.2639,1674
19.2667,1660
19.2694,1671
19.2722,1679
19.2750,1723
19.2778,1732
19.2806,1719
19.2833,1725
19.2861,1718
19.2889,1703
19.2917,1693
19.2944,1690
19.2972,1692
19.3000,1676
19.3028,1658
19.3056,1623
19.3083,1575
19.3111,1552
19.3139,1580
19.3167,1616
19.3194,1660
19.3222,1701
19.3250,1778
19.3278,1869
19.3306,2040
19.3333,2284
19.3361,2542
19.3389,2681
19.3417,2653
19.3444,2455
19.3472,2219
19.3500,2037
19.3528,1946
19.3556,1926
19.3583,1914
19.3611,1919
19.3639,1940
19.3667,1933
19.3694,1887
19.3722,1814
19.3750,1743
19.3778,1679
19.3806,1643
19.3833,1649
19.3861,1661
19.3889,1651
19.3917,1664
19.3944,1670
19.3972,1670
19.4000,1659
19.4028,1661
19.4056,1683
19.4083,1693
19.4111,1688
19.4139,1690
19.4167,1685
19.4194,1669
19.4222,1660
19.4250,1661
19.4278,1668
19.4306,1678
19.4333,1686
19.4361,1692
19.4389,1681
19.4417,1691
19.4444,1716
19.4472,1724
19.4500,1719
19.4528,1706
19.4556,1710
19.4583,1701
19.4611,1700
19.4639,1715
19.4667,1733
19.4694,1720
19.4722,1713
19.4750,1714
19.4778,1720
19.4806,1714
19.4833,1741
19.4861,1756
19.4889,1765
19.4917,1754
19.4944,1752
19.4972,1729
19.5000,1715
19.5028,1730
19.5056,1747
19.5083,1764
19.5111,1772
19.5139,1775
19.5167,1781
19.5194,1767
19.5222,1763
19.5250,1771
19.5278,1768
19.5306,1761
19.5333,1768
19.5361,1780
19.5389,1769
19.5417,1767
19.5444,1765
19.5472,1767
19.5500,1765
19.5528,1779
19.5556,1757
19.5583,1749
19.5611,1730
19.5639,1726
19.5667,1734
19.5694,1729
19.5722,1742
19.5750,1741
19.5778,1727
19.5806,1696
19.5833,1684
19.5861,1669
19.5889,1668
19.5917,1680
19.5944,1680
19.5972,1668
19.6000,1656
19.6028,1657
19.6056,1647
19.6083,1635
19.6111,1652
19.6139,1675
19.6167,1691
19.6194,1686
19.6222,1676
19.6250,1653
19.6278,1630
19.6306,1634
19.6333,1645
19.6361,1662
19.6389,1655
19.6417,1662
19.6444,1659
19.6472,1656
19.6500,1666
19.6528,1672
19.6556,1674
19.6583,1664
19.6611,1651
19.6639,1653
19.6667,1639
19.6694,1640
19.6722,1661
19.6750,1678
19.6778,1684
19.6806,1668
19.6833,1674
19.6861,1658
19.6889,1663
19.6917,1678
19.6944,1689
19.6972,1669
19.7000,1658
19.7028,1657
19.7056,1629
19.7083,1642
19.7111,1666
19.7139,1685
19.7167,1689
19.7194,1661
19.7222,1663
19.7250,1651
19.7278,1648
19.7306,1642
19.7333,1634
19.7361,1645
19.7389,1640
19.7417,1660
19.7444,1666
19.7472,1659
19.7500,1649
19.7528,1657
19.7556,1671
19.7583,1668
19.7611,1665
19.7639,1679
19.7667,1673
19.7694,1683
19.7722,1693
19.7750,1706
19.7778,1702
19.7806,1698
19.7833,1707
19.7861,1710
19.7889,1729
19.7917,1742
19.7944,1749
19.7972,1728
19.8000,1712
19.8028,1695
19.8056,1673
19.8083,1632
19.8111,1618
19.8139,1612
19.8167,1599
19.8194,1585
19.8222,1593
19.8250,1589
19.8278,1592
19.8306,1587
19.8333,1583
19.8361,1581
19.8389,1568
19.8417,1580
19.8444,1608
19.8472,1635
19.8500,1664
19.8528,1664
19.8556,1653
19.8583,1630
19.8611,1615
19.8639,1601
19.8667,1591
19.8694,1569
19.8722,1596
19.8750,1626
19.8778,1635
19.8806,1645
19.8833,1654
19.8861,1642
19.8889,1609
19.8917,1573
19.8944,1535
19.8972,1508
19.9000,1495
19.9028,1516
19.9056,1554
19.9083,1576
19.9111,1616
19.9139,1711
19.9167,1842
19.9194,2053
19.9222,2317
19.9250,2521
19.9278,2532
19.9306,2383
19.9333,2196
19.9361,2035
19.9389,1943
19.9417,1897
19.9444,1870
19.9472,1833
19.9500,1823
19.9528,1852
19.9556,1872
19.9583,1842
19.9611,1768
19.9639,1689
19.9667,1621
19.9694,1590
19.9722,1600
19.9750,1626
19.9778,1618
19.9806,1615
19.9833,1595
19.9861,1588
19.9889,1589
19.9917,1587
19.9944,1614
19.9972,1612
20.0000,1620
20.0028,1645
20.0056,1648
20.0083,1649
20.0111,1656
20.0139,1639
20.0167,1620
20.0194,1589
20.0222,1599
20.0250,1638
20.0278,1657
20.0306,1661
20.0333,1665
20.0361,1664
20.0389,1658
20.0417,1651
20.0444,1660
20.0472,1659
20.0500,1658
20.0528,1674
20.0556,1690
20.0583,1688
20.0611,1692
20.0639,1673
20.0667,1649
20.0694,1630
20.0722,1644
20.0750,1682
20.0778,1716
20.0806,1725
20.0833,1743
20.0861,1735
20.0889,1717
20.0917,1716
20.0944,1704
20.0972,1677
20.1000,1672
20.1028,1681
20.1056,1697
20.1083,1693
20.1111,1691
20.1139,1716
20.1167,1810
20.1194,1778
20.1222,1774
20.1250,1744
20.1278,1728
20.1306,1736
20.1333,1739
20.1361,1722
20.1389,1706
20.1417,1695
20.1444,1683
20.1472,1664
20.1500,1673
20.1528,1682
20.1556,1698
20.1583,1680
20.1611,1655
20.1639,1623
20.1667,1607
20.1694,1645
20.1722,1712
20.1750,1740
20.1778,1738
20.1806,1689
20.1833,1630
20.1861,1583
20.1889,1597
20.1917,1654
20.1944,1689
20.1972,1710
20.2000,1706
20.2028,1681
20.2056,1642
20.2083,1624
20.2111,1640
20.2139,1636
20.2167,1648
20.2194,1677
20.2222,1724
20.2250,1748
20.2278,1766
20.2306,1761
20.2333,1749
20.2361,1708
20.2389,1678
20.2417,1625
20.2444,1614
20.2472,1624
20.2500,1649
20.2528,1677
20.2556,1705
20.2583,1711
20.2611,1713
20.2639,1709
20.2667,1690
20.2694,1660
20.2722,1625
20.2750,1582
20.2778,1587
20.2806,1614
20.2833,1631
20.2861,1659
20.2889,1687
20.2917,1699
20.2944,1667
20.2972,1644
20.3000,1643
20.3028,1656
20.3056,1673
20.3083,1691
20.3111,1720
20.3139,1706
20.3167,1678
20.3194,1656
20.3222,1641
20.3250,1649
20.3278,1680
20.3306,1724
20.3333,1756
20.3361,1725
20.3389,1666
20.3417,1647
20.3444,1670
20.3472,1678
20.3500,1703
20.3528,1718
20.3556,1720
20.3583,1704
20.3611,1683
20.3639,1677
20.3667,1660
20.3694,1688
20.3722,1737
20.3750,1783
20.3778,1794
20.3806,1796
20.3833,1795
20.3861,1772
20.3889,1783
20.3917,1783
20.3944,1777
20.3972,1744
20.4000,1712
20.4028,1704
20.4056,1660
20.4083,1618
20.4111,1594
20.4139,1603
20.4167,1596
20.4194,1617
20.4222,1623
20.4250,1616
20.4278,1613
20.4306,1620
20.4333,1616
20.4361,1618
20.4389,1635
20.4417,1646
20.4444,1656
20.4472,1642
20.4500,1636
20.4528,1656
20.4556,1648
20.4583,1641
20.4611,1658
20.4639,1670
20.4667,1669
20.4694,1668
20.4722,1683
20.4750,1698
20.4778,1674
20.4806,1626
20.4833,1579
20.4861,1529
20.4889,1506
20.4917,1534
20.4944,1603
20.4972,1690
20.5000,1776
20.5028,1871
20.5056,2017
20.5083,2245
20.5111,2525
20.5139,2790
20.5167,2906
20.5194,2823
20.5222,2578
20.5250,2270
20.5278,2018
20.5306,1892
20.5333,1879
20.5361,1911
20.5389,1920
20.5417,1919
20.5444,1868
20.5472,1781
20.5500,1704
20.5528,1635
20.5556,1619
20.5583,1610
20.5611,1669
20.5639,1706
20.5667,1695
20.5694,1640
20.5722,1590
20.5750,1562
20.5778,1551
20.5806,1554
20.5833,1578
20.5861,1639
20.5889,1672
20.5917,1686
20.5944,1658
20.5972,1613
20.6000,1625
20.6028,1672
20.6056,1696
20.6083,1678
20.6111,1661
20.6139,1640
20.6167,1609
20.6194,1623
20.6222,1662
20.6250,1688
20.6278,1696
20.6306,1691
20.6333,1685
20.6361,1648
20.6389,1634
20.6417,1643
20.6444,1664
20.6472,1676
20.6500,1683
20.6528,1703
20.6556,1698
20.6583,1670
20.6611,1692
20.6639,1693
20.6667,1691
20.6694,1704
20.6722,1716
20.6750,1712
20.6778,1670
20.6806,1655
20.6833,1688
20.6861,1718
20.6889,1747
20.6917,1794
20.6944,1824
20.6972,1831
20.7000,1823
20.7028,1820
20.7056,1789
20.7083,1817
20.7111,1783
20.7139,1751
20.7167,1733
20.7194,1739
20.7222,1756
20.7250,1761
20.7278,1767
20.7306,1757
20.7333,1765
20.7361,1742
20.7389,1743
20.7417,1746
20.7444,1751
20.7472,1757
20.7500,1784
20.7528,1795
20.7556,1791
20.7583,1753
20.7611,1741
20.7639,1720
20.7667,1715
20.7694,1706
20.7722,1709
20.7750,1718
20.7778,1728
20.7806,1745
20.7833,1741
20.7861,1735
20.7889,1725
20.7917,1723
20.7944,1709
20.7972,1708
20.8000,1720
20.8028,1718
20.8056,1706
20.8083,1696
20.8111,1708
20.8139,1737
20.8167,1764
20.8194,1802
20.8222,1816
20.8250,1803
20.8278,1796
20.8306,1820
20.8333,1853
20.8361,1863
20.8389,1852
20.8417,1818
20.8444,1766
20.8472,1711
20.8500,1674
20.8528,1659
20.8556,1694
20.8583,1746
20.8611,1787
20.8639,1791
20.8667,1745
20.8694,1724
20.8722,1728
20.8750,1753
20.8778,1778
20.8806,1786
20.8833,1795
20.8861,1791
20.8889,1779
20.8917,1776
20.8944,1754
20.8972,1743
20.9000,1739
20.9028,1724
20.9056,1724
20.9083,1735
20.9111,1753
20.9139,1778
20.9167,1798
20.9194,1809
20.9222,1831
20.9250,1834
20.9278,1830
20.9306,1822
20.9333,1823
20.9361,1799
20.9389,1790
20.9417,1793
20.9444,1786
20.9472,1791
20.9500,1802
20.9528,1806
20.9556,1828
20.9583,1844
20.9611,1841
20.9639,1843
20.9667,1835
20.9694,1855
20.9722,1879
20.9750,1859
20.9778,1820
20.9806,1797
20.9833,1785
20.9861,1781
20.9889,1766
20.9917,1754
20.9944,1745
20.9972,1723
21.0000,1728
21.0028,1720
21.0056,1709
21.0083,1715
21.0111,1743
21.0139,1763
21.0167,1771
21.0194,1784
21.0222,1779
21.0250,1756
21.0278,1729
21.0306,1719
21.0333,1710
21.0361,1709
21.0389,1715
21.0417,1755
21.0444,1796
21.0472,1819
21.0500,1826
21.0528,1791
21.0556,1719
21.0583,1683
21.0611,1678
21.0639,1653
21.0667,1640
21.0694,1645
21.0722,1654
21.0750,1695
21.0778,1741
21.0806,1811
21.0833,1910
21.0861,2093
21.0889,2384
21.0917,2726
21.0944,2999
21.0972,3102
21.1000,3007
21.1028,2739
21.1056,2442
21.1083,2200
21.1111,2055
21.1139,1985
21.1167,1969
21.1194,1956
21.1222,1939
21.1250,1906
21.1278,1845
21.1306,1794
21.1333,1749
21.1361,1717
21.1389,1730
21.1417,1773
21.1444,1812
21.1472,1806
21.1500,1793
21.1528,1752
21.1556,1707
21.1583,1667
21.1611,1650
21.1639,1683
21.1667,1718
21.1694,1756
21.1722,1774
21.1750,1761
21.1778,1723
21.1806,1701
21.1833,1697
21.1861,1715
21.1889,1755
21.1917,1786
21.1944,1776
21.1972,1755
21.2000,1744
21.2028,1756
21.2056,1755
21.2083,1764
21.2111,1766
21.2139,1750
21.2167,1737
21.2194,1726
21.2222,1720
21.2250,1723
21.2278,1721
21.2306,1726
21.2333,1742
21.2361,1754
21.2389,1792
21.2417,1801
21.2444,1802
21.2472,1790
21.2500,1802
21.2528,1799
21.2556,1779
21.2583,1777
21.2611,1768
21.2639,1780
21.2667,1785
21.2694,1809
21.2722,1818
21.2750,1822
21.2778,1811
21.2806,1817
21.2833,1799
21.2861,1798
21.2889,1824
21.2917,1829
21.2944,1814
21.2972,1797
21.3000,1788
21.3028,1782
21.3056,1774
21.3083,1795
21.3111,1791
21.3139,1759
21.3167,1737
21.3194,1742
21.3222,1751
21.3250,1750
21.3278,1750
21.3306,1773
21.3333,1776
21.3361,1778
21.3389,1775
21.3417,1758
21.3444,1734
21.3472,1712
21.3500,1703
21.3528,1691
21.3556,1674
21.3583,1682
21.3611,1701
21.3639,1727
21.3667,1727
21.3694,1747
21.3722,1739
21.3750,1713
21.3778,1694
21.3806,1695
21.3833,1688
21.3861,1693
21.3889,1720
21.3917,1747
21.3944,1740
21.3972,1734
21.4000,1724
21.4028,1723
21.4056,1700
21.4083,1718
21.4111,1721
21.4139,1726
21.4167,1729
21.4194,1732
21.4222,1752
21.4250,1761
21.4278,1772
21.4306,1774
21.4333,1742
21.4361,1708
21.4389,1697
21.4417,1705
21.4444,1697
21.4472,1697
21.4500,1707
21.4528,1721
21.4556,1719
21.4583,1716
21.4611,1723
21.4639,1712
21.4667,1712
21.4694,1731
21.4722,1744
21.4750,1728
21.4778,1720
21.4806,1726
21.4833,1704
21.4861,1699
21.4889,1721
21.4917,1759
21.4944,1762
21.4972,1755
21.5000,1733
21.5028,1715
21.5056,1688
21.5083,1692
21.5111,1706
21.5139,1712
21.5167,1736
21.5194,1773
21.5222,1797
21.5250,1812
21.5278,1801
21.5306,1797
21.5333,1774
21.5361,1762
21.5389,1752
21.5417,1755
21.5444,1776
21.5472,1804
21.5500,1848
21.5528,1860
21.5556,1855
21.5583,1836
21.5611,1792
21.5639,1759
21.5667,1754
21.5694,1772
21.5722,1794
21.5750,1796
21.5778,1774
21.5806,1756
21.5833,1731
21.5861,1712
21.5889,1711
21.5917,1705
21.5944,1701
21.5972,1687
21.6000,1691
21.6028,1701
21.6056,1697
21.6083,1712
21.6111,1718
21.6139,1704
21.6167,1694
21.6194,1702
21.6222,1703
21.6250,1712
21.6278,1702
21.6306,1697
21.6333,1703
21.6361,1717
21.6389,1736
21.6417,1739
21.6444,1725
21.6472,1717
21.6500,1731
21.6528,1719
21.6556,1713
21.6583,1701
21.6611,1671
21.6639,1625
21.6667,1602
21.6694,1607
21.6722,1638
21.6750,1675
21.6778,1756
21.6806,1890
21.6833,2126
21.6861,2431
21.6889,2752
21.6917,2971
21.6944,2995
21.6972,2783
21.7000,2479
21.7028,2202
21.7056,1999
21.7083,1909
21.7111,1898
21.7139,1886
21.7167,1889
21.7194,1879
21.7222,1834
21.7250,1763
21.7278,1707
21.7306,1677
21.7333,1665
21.7361,1670
21.7389,1697
21.7417,1734
21.7444,1744
21.7472,1734
21.7500,1705
21.7528,1653
21.7556,1622
21.7583,1645
21.7611,1684
21.7639,1689
21.7667,1664
21.7694,1611
21.7722,1538
21.7750,1514
21.7778,1559
21.7806,1636
21.7833,1665
21.7861,1645
21.7889,1640
21.7917,1668
21.7944,1682
21.7972,1682
21.8000,1688
21.8028,1679
21.8056,1647
21.8083,1625
21.8111,1611
21.8139,1639
21.8167,1685
21.8194,1745
21.8222,1766
21.8250,1744
21.8278,1720
21.8306,1733
21.8333,1770
21.8361,1788
21.8389,1772
21.8417,1676
21.8444,1567
21.8472,1477
21.8500,1468
21.8528,1518
21.8556,1551
21.8583,1563
21.8611,1607
21.8639,1681
21.8667,1748
21.8694,1739
21.8722,1661
21.8750,1613
21.8778,1573
21.8806,1456
21.8833,1427
21.8861,1471
21.8889,1534
21.8917,1621
21.8944,1710
21.8972,1779
21.9000,1778
21.9028,1746
21.9056,1756
21.9083,1722
21.9111,1619
21.9139,1543
21.9167,1508
21.9194,1464
21.9222,1434
21.9250,1478
21.9278,1586
21.9306,1621
21.9333,1423
21.9361,1110
21.9389,868
21.9417,801
21.9444,931
21.9472,1284
21.9500,1637
21.9528,1834
21.9556,1777
21.9583,1566
21.9611,1305
21.9639,1109
21.9667,1177
21.9694,1537
21.9722,1866
21.9750,1993
21.9778,1925
21.9806,1725
21.9833,1539
21.9861,1429
21.9889,1400
21.9917,1382
21.9944,1377
21.9972,1326
22.0000,1178
22.0028,969
22.0056,708
22.0083,505
22.0111,535
22.0139,729
22.0167,1071
22.0194,1527
22.0222,1871
22.0250,2074
22.0278,2105
22.0306,1954
22.0333,1707
22.0361,1620
22.0389,1620
22.0417,1600
22.0444,1563
22.0472,1538
22.0500,1598
22.0528,1640
22.0556,1620
22.0583,1514
22.0611,1448
22.0639,1441
22.0667,1512
22.0694,1547
22.0722,1562
22.0750,1575
22.0778,1615
22.0806,1656
22.0833,1654
22.0861,1559
22.0889,1443
22.0917,1393
22.0944,1390
22.0972,1473
22.1000,1563
22.1028,1547
22.1056,1391
22.1083,1267
22.1111,1279
22.1139,1401
22.1167,1589
22.1194,1770
22.1222,1836
22.1250,1796
22.1278,1767
22.1306,1777
22.1333,1743
22.1361,1695
22.1389,1668
22.1417,1640
22.1444,1633
22.1472,1619
22.1500,1614
22.1528,1570
22.1556,1538
22.1583,1544
22.1611,1575
22.1639,1599
22.1667,1600
22.1694,1595
22.1722,1551
22.1750,1422
22.1778,1354
22.1806,1418
22.1833,1550
22.1861,1645
22.1889,1654
22.1917,1607
22.1944,1534
22.1972,1498
22.2000,1476
22.2028,1509
22.2056,1568
22.2083,1611
22.2111,1596
22.2139,1538
22.2167,1504
22.2194,1510
22.2222,1540
22.2250,1566
22.2278,1565
22.2306,1546
22.2333,1485
22.2361,1391
22.2389,1270
22.2417,1113
22.2444,1018
22.2472,1124
22.2500,1378
22.2528,1588
22.2556,1700
22.2583,1655
22.2611,1468
22.2639,1120
22.2667,725
22.2694,477
22.2722,702
22.2750,1247
22.2778,1770
22.2806,1981
22.2833,1924
22.2861,1739
22.2889,1542
22.2917,1397
22.2944,1333
22.2972,1419
22.3000,1616
22.3028,1845
22.3056,2067
22.3083,2230
22.3111,2256
22.3139,2114
22.3167,1865
22.3194,1654
22.3222,1545
22.3250,1535
22.3278,1584
22.3306,1630
22.3333,1633
22.3361,1619
22.3389,1619
22.3417,1609
22.3444,1571
22.3472,1511
22.3500,1448
22.3528,1388
22.3556,1362
22.3583,1373
22.3611,1411
22.3639,1445
22.3667,1445
22.3694,1414
22.3722,1358
22.3750,1306
22.3778,1285
22.3806,1297
22.3833,1306
22.3861,1320
22.3889,1313
22.3917,1283
22.3944,1258
22.3972,1255
22.4000,1285
22.4028,1306
22.4056,1314
22.4083,1319
22.4111,1297
22.4139,1264
22.4167,1249
22.4194,1247
22.4222,1276
22.4250,1305
22.4278,1337
22.4306,1309
22.4333,1263
22.4361,1229
22.4389,1236
22.4417,1253
22.4444,1257
22.4472,1278
22.4500,1284
22.4528,1258
22.4556,1242
22.4583,1249
22.4611,1324
22.4639,1363
22.4667,1379
22.4694,1365
22.4722,1347
22.4750,1325
22.4778,1315
22.4806,1333
22.4833,1348
22.4861,1361
22.4889,1360
22.4917,1346
22.4944,1333
22.4972,1330
22.5000,1337
22.5028,1341
22.5056,1372
22.5083,1385
22.5111,1387
22.5139,1368
22.5167,1345
22.5194,1331
22.5222,1328
22.5250,1338
22.5278,1372
22.5306,1385
22.5333,1372
22.5361,1339
22.5389,1303
22.5417,1280
22.5444,1283
22.5472,1285
22.5500,1294
22.5528,1287
22.5556,1297
22.5583,1292
22.5611,1286
22.5639,1280
22.5667,1308
22.5694,1326
22.5722,1345
22.5750,1339
22.5778,1331
22.5806,1316
22.5833,1310
22.5861,1322
22.5889,1323
22.5917,1322
22.5944,1306
22.5972,1323
22.6000,1332
22.6028,1334
22.6056,1347
22.6083,1364
22.6111,1356
22.6139,1344
22.6167,1325
22.6194,1327
22.6222,1345
22.6250,1374
22.6278,1399
22.6306,1402
22.6333,1385
22.6361,1383
22.6389,1383
22.6417,1380
22.6444,1386
22.6472,1408
22.6500,1406
22.6528,1390
22.6556,1393
22.6583,1395
22.6611,1394
22.6639,1411
22.6667,1439
22.6694,1464
22.6722,1474
22.6750,1469
22.6778,1466
22.6806,1449
22.6833,1441
22.6861,1446
22.6889,1471
22.6917,1473
22.6944,1488
22.6972,1499
22.7000,1506
22.7028,1495
22.7056,1507
22.7083,1528
22.7111,1511
22.7139,1512
22.7167,1518
22.7194,1553
22.7222,1576
22.7250,1597
22.7278,1617
22.7306,1618
22.7333,1603
22.7361,1582
22.7389,1557
22.7417,1524
22.7444,1520
22.7472,1545
22.7500,1559
22.7528,1549
22.7556,1532
22.7583,1525
22.7611,1524
22.7639,1535
22.7667,1556
22.7694,1568
22.7722,1558
22.7750,1549
22.7778,1556
22.7806,1546
22.7833,1516
22.7861,1511
22.7889,1529
22.7917,1559
22.7944,1572
22.7972,1597
22.8000,1621
22.8028,1605
22.8056,1618
22.8083,1628
22.8111,1632
22.8139,1619
22.8167,1615
22.8194,1617
22.8222,1618
22.8250,1616
22.8278,1598
22.8306,1536
22.8333,1501
22.8361,1509
22.8389,1554
22.8417,1587
22.8444,1636
22.8472,1694
22.8500,1761
22.8528,1847
22.8556,2016
22.8583,2255
22.8611,2458
22.8639,2562
22.8667,2468
22.8694,2268
22.8722,2072
22.8750,1952
22.8778,1929
22.8806,1908
22.8833,1888
22.8861,1894
22.8889,1908
22.8917,1927
22.8944,1924
22.8972,1884
22.9000,1817
22.9028,1741
22.9056,1700
22.9083,1691
22.9111,1683
22.9139,1685
22.9167,1696
22.9194,1683
22.9222,1674
22.9250,1691
22.9278,1727
22.9306,1736
22.9333,1719
22.9361,1714
22.9389,1706
22.9417,1693
22.9444,1687
22.9472,1699
22.9500,1720
22.9528,1717
22.9556,1716
22.9583,1706
22.9611,1697
22.9639,1673
22.9667,1688
22.9694,1703
22.9722,1692
22.9750,1690
22.9778,1676
22.9806,1688
22.9833,1688
22.9861,1709
22.9889,1735
22.9917,1742
22.9944,1726
22.9972,1699
23.0000,1673
23.0028,1655
23.0056,1674
23.0083,1707
23.0111,1748
23.0139,1756
23.0167,1756
23.0194,1735
23.0222,1721
23.0250,1724
23.0278,1738
23.0306,1728
23.0333,1694
23.0361,1665
23.0389,1655
23.0417,1662
23.0444,1682
23.0472,1702
23.0500,1724
23.0528,1696
23.0556,1676
23.0583,1651
23.0611,1630
23.0639,1628
23.0667,1640
23.0694,1658
23.0722,1646
23.0750,1626
23.0778,1624
23.0806,1615
23.0833,1606
23.0861,1602
23.0889,1602
23.0917,1602
23.0944,1616
23.0972,1631
23.1000,1632
23.1028,1634
23.1056,1628
23.1083,1616
23.1111,1594
23.1139,1570
23.1167,1577
23.1194,1581
23.1222,1578
23.1250,1564
23.1278,1543
23.1306,1520
23.1333,1485
23.1361,1481
23.1389,1471
23.1417,1446
23.1444,1444
23.1472,1462
23.1500,1474
23.1528,1470
23.1556,1470
23.1583,1465
23.1611,1432
23.1639,1418
23.1667,1411
23.1694,1407
23.1722,1389
23.1750,1383
23.1778,1384
23.1806,1373
23.1833,1362
23.1861,1351
23.1889,1348
23.1917,1339
23.1944,1330
23.1972,1336
23.2000,1327
23.2028,1301
23.2056,1272
23.2083,1274
23.2111,1255
23.2139,1247
23.2167,1233
23.2194,1229
23.2222,1224
23.2250,1257
23.2278,1298
23.2306,1313
23.2333,1290
23.2361,1257
23.2389,1213
23.2417,1199
23.2444,1219
23.2472,1232
23.2500,1240
23.2528,1232
23.2556,1234
23.2583,1196
23.2611,1179
23.2639,1177
23.2667,1183
23.2694,1190
23.2722,1173
23.2750,1158
23.2778,1154
23.2806,1135
23.2833,1104
23.2861,1085
23.2889,1090
23.2917,1100
23.2944,1102
23.2972,1125
23.3000,1144
23.3028,1146
23.3056,1136
23.3083,1139
23.3111,1114
23.3139,1094
23.3167,1105
23.3194,1119
23.3222,1142
23.3250,1147
23.3278,1152
23.3306,1146
23.3333,1127
23.3361,1096
23.3389,1087
23.3417,1086
23.3444,1087
23.3472,1112
23.3500,1130
23.3528,1131
23.3556,1134
23.3583,1117
23.3611,1088
23.3639,1041
23.3667,1022
23.3694,1012
23.3722,1012
23.3750,1003
23.3778,1001
23.3806,992
23.3833,989
23.3861,1016
23.3889,1042
23.3917,1018
23.3944,996
23.3972,981
23.4000,973
23.4028,966
23.4056,980
23.4083,996
23.4111,1004
23.4139,1007
23.4167,1006
23.4194,1004
23.4222,984
23.4250,982
23.4278,987
23.4306,989
23.4333,999
23.4361,1013
23.4389,1038
23.4417,1037
23.4444,1025
23.4472,1021
23.4500,992
23.4528,963
23.4556,955
23.4583,974
23.4611,1004
23.4639,1030
23.4667,1088
23.4694,1187
23.4722,1360
23.4750,1666
23.4778,2002
23.4806,2272
23.4833,2393
23.4861,2319
23.4889,2061
23.4917,1765
23.4944,1505
23.4972,1369
23.5000,1322
23.5028,1304
23.5056,1317
23.5083,1319
23.5111,1298
23.5139,1243
23.5167,1202
23.5194,1166
23.5222,1121
23.5250,1110
23.5278,1124
23.5306,1159
23.5333,1193
23.5361,1222
23.5389,1218
23.5417,1191
23.5444,1174
23.5472,1192
23.5500,1220
23.5528,1239
23.5556,1268
23.5583,1263
23.5611,1240
23.5639,1227
23.5667,1249
23.5694,1266
23.5722,1265
23.5750,1264
23.5778,1271
23.5806,1269
23.5833,1293
23.5861,1315
23.5889,1359
23.5917,1373
23.5944,1373
23.5972,1367
23.6000,1359
23.6028,1347
23.6056,1374
23.6083,1412
23.6111,1412
23.6139,1405
23.6167,1396
23.6194,1373
23.6222,1359
23.6250,1375
23.6278,1420
23.6306,1452
23.6333,1457
23.6361,1466
23.6389,1457
23.6417,1438
23.6444,1430
23.6472,1455
23.6500,1492
23.6528,1539
23.6556,1584
23.6583,1620
23.6611,1610
23.6639,1615
23.6667,1635
23.6694,1657
23.6722,1912
23.6750,1886
23.6778,1892
23.6806,1874
23.6833,1889
23.6861,1910
23.6889,1915
23.6917,1909
23.6944,1899
23.6972,1884
23.7000,1874
23.7028,1878
23.7056,1895
23.7083,1915
23.7111,1922
23.7139,1918
23.7167,1896
23.7194,1870
23.7222,1857
23.7250,1865
23.7278,1875
23.7306,1869
23.7333,1867
23.7361,1873
23.7389,1872
23.7417,1885
23.7444,1936
23.7472,1983
23.7500,2003
23.7528,1997
23.7556,1991
23.7583,1996
23.7611,1979
23.7639,1983
23.7667,2017
23.7694,2051
23.7722,2081
23.7750,2102
23.7778,2104
23.7806,2090
23.7833,2082
23.7861,2097
23.7889,2093
23.7917,2102
23.7944,2101
23.7972,2101
23.8000,2092
23.8028,2083
23.8056,2081
23.8083,2088
23.8111,2081
23.8139,2089
23.8167,2106
23.8194,2106
23.8222,2111
23.8250,2130
23.8278,2161
23.8306,2183
23.8333,2197
23.8361,2203
23.8389,2186
23.8417,2202
23.8444,2227
23.8472,2278
23.8500,2313
23.8528,2321
23.8556,2319
23.8583,2307
23.8611,2266
23.8639,2254
23.8667,2286
23.8694,2331
23.8722,2349
23.8750,2366
23.8778,2354
23.8806,2338
23.8833,2344
23.8861,2367
23.8889,2374
23.8917,2376
23.8944,2383
23.8972,2404
23.9000,2415
23.9028,2405
23.9056,2409
23.9083,2430
23.9111,2447
23.9139,2447
23.9167,2444
23.9194,2419
23.9222,2387
23.9250,2389
23.9278,2410
23.9306,2408
23.9333,2389
23.9361,2376
23.9389,2360
23.9417,2355
23.9444,2378
23.9472,2392
23.9500,2369
23.9528,2353
23.9556,2327
23.9583,2312
23.9611,2311
23.9639,2317
23.9667,2343
23.9694,2363
23.9722,2364
23.9750,2396
23.9778,2416
23.9806,2428
23.9833,2442
23.9861,2455
23.9889,2461
23.9917,2432
23.9944,2427
23.9972,2438
24.0000,2434
24.0028,2434
24.0056,2414
24.0083,2368
24.0111,2322
24.0139,2326
24.0167,2355
24.0194,2408
24.0222,2494
24.0250,2626
24.0278,2824
24.0306,3093
24.0333,3316
24.0361,3312
24.0389,3334
24.0417,3383
24.0444,3404
24.0472,3395
24.0500,3273
24.0528,3053
24.0556,2850
24.0583,2742
24.0611,2669
24.0639,2652
24.0667,2656
24.0694,2627
24.0722,2600
24.0750,2588
24.0778,2581
24.0806,2541
24.0833,2535
24.0861,2537
24.0889,2535
24.0917,2543
24.0944,2532
24.0972,2519
24.1000,2502
24.1028,2520
24.1056,2544
24.1083,2565
24.1111,2564
24.1139,2562
24.1167,2547
24.1194,2518
24.1222,2499
24.1250,2520
24.1278,2549
24.1306,2565
24.1333,2556
24.1361,2564
24.1389,2557
24.1417,2539
24.1444,2527
24.1472,2548
24.1500,2586
24.1528,2600
24.1556,2612
24.1583,2606
24.1611,2602
24.1639,2587
24.1667,2599
24.1694,2606
24.1722,2618
24.1750,2630
24.1778,2631
24.1806,2608
24.1833,2596
24.1861,2607
24.1889,2615
24.1917,2614
24.1944,2618
24.1972,2630
24.2000,2628
24.2028,2616
24.2056,2631
24.2083,2633
24.2111,2620
24.2139,2601
24.2167,2610
24.2194,2615
24.2222,2625
24.2250,2600
24.2278,2589
24.2306,2547
24.2333,2528
24.2361,2520
24.2389,2527
24.2417,2513
24.2444,2507
24.2472,2499
24.2500,2487
24.2528,2488
24.2556,2486
24.2583,2461
24.2611,2441
24.2639,2441
24.2667,2447
24.2694,2461
24.2722,2462
24.2750,2447
24.2778,2424
24.2806,2408
24.2833,2400
24.2861,2395
24.2889,2383
24.2917,2360
24.2944,2360
24.2972,2356
24.3000,2361
24.3028,2373
24.3056,2379
24.3083,2371
24.3111,2346
24.3139,2319
24.3167,2294
24.3194,2256
24.3222,2233
24.3250,2241
24.3278,2245
24.3306,2262
24.3333,2274
24.3361,2280
24.3389,2265
24.3417,2264
24.3444,2276
24.3472,2285
24.3500,2290
24.3528,2295
24.3556,2292
24.3583,2281
24.3611,2295
24.3639,2302
24.3667,2313
24.3694,2286
24.3722,2284
24.3750,2271
24.3778,2258
24.3806,2241
24.3833,2229
24.3861,2232
24.3889,2235
24.3917,2245
24.3944,2265
24.3972,2291
24.4000,2266
24.4028,2252
24.4056,2250
24.4083,2249
24.4111,2237
24.4139,2239
24.4167,2249
24.4194,2236
24.4222,2227
24.4250,2225
24.4278,2213
24.4306,2184
24.4333,2164
24.4361,2147
24.4389,2128
24.4417,2128
24.4444,2159
24.4472,2169
24.4500,2157
24.4528,2139
24.4556,2161
24.4583,2153
24.4611,2138
24.4639,2140
24.4667,2162
24.4694,2163
24.4722,2161
24.4750,2166
24.4778,2174
24.4806,2196
24.4833,2217
24.4861,2228
24.4889,2186
24.4917,2150
24.4944,2122
24.4972,2121
24.5000,2113
24.5028,2135
24.5056,2162
24.5083,2172
24.5111,2186
24.5139,2202
24.5167,2193
24.5194,2174
24.5222,2163
24.5250,2151
24.5278,2117
24.5306,2071
24.5333,2035
24.5361,2017
24.5389,1999
24.5417,1990
24.5444,2000
24.5472,2018
24.5500,2009
24.5528,2002
24.5556,1999
24.5583,1997
24.5611,2009
24.5639,2027
24.5667,2047
24.5694,2053
24.5722,2058
24.5750,2044
24.5778,2000
24.5806,1976
24.5833,1977
24.5861,1998
24.5889,2007
24.5917,2030
24.5944,2033
24.5972,2030
24.6000,1999
24.6028,1982
24.6056,1969
24.6083,1954
24.6111,1901
24.6139,1876
24.6167,1860
24.6194,1853
24.6222,1870
24.6250,1918
24.6278,1957
24.6306,2016
24.6333,2127
24.6361,2301
24.6389,2557
24.6417,2836
24.6444,3107
24.6472,3208
24.6500,3108
24.6528,2844
24.6556,2538
24.6583,2319
24.6611,2201
24.6639,2172
24.6667,2179
24.6694,2169
24.6722,2158
24.6750,2135
24.6778,2061
24.6806,1957
24.6833,1871
24.6861,1830
24.6889,1811
24.6917,1826
24.6944,1864
24.6972,1883
24.7000,1874
24.7028,1857
24.7056,1840
24.7083,1821
24.7111,1820
24.7139,1848
24.7167,1875
24.7194,1883
24.7222,1872
24.7250,1860
24.7278,1818
24.7306,1787
24.7333,1796
24.7361,1813
24.7389,1818
24.7417,1824
24.7444,1825
24.7472,1820
24.7500,1815
24.7528,1813
24.7556,1835
24.7583,1847
24.7611,1822
24.7639,1817
24.7667,1793
24.7694,1776
24.7722,1782
24.7750,1807
24.7778,1832
24.7806,1811
24.7833,1795
24.7861,1771
24.7889,1770
24.7917,1770
24.7944,1801
24.7972,1820
24.8000,1811
24.8028,1791
24.8056,1766
24.8083,1749
24.8111,1766
24.8139,1806
24.8167,1834
24.8194,1840
24.8222,1825
24.8250,1799
24.8278,1791
24.8306,1794
24.8333,1821
24.8361,1700
24.8389,1724
24.8417,1750
24.8444,1774
24.8472,1769
24.8500,1745
24.8528,1724
24.8556,1714
24.8583,1697
24.8611,1690
24.8639,1687
24.8667,1680
24.8694,1655
24.8722,1644
24.8750,1625
24.8778,1611
24.8806,1645
24.8833,1691
24.8861,1705
24.8889,1675
24.8917,1644
24.8944,1625
24.8972,1600
24.9000,1587
24.9028,1591
24.9056,1608
24.9083,1602
24.9111,1582
24.9139,1574
24.9167,1546
24.9194,1534
24.9222,1557
24.9250,1580
24.9278,1603
24.9306,1616
24.9333,1628
24.9361,1626
24.9389,1590
24.9417,1561
24.9444,1571
24.9472,1583
24.9500,1590
24.9528,1606
24.9556,1607
24.9583,1600
24.9611,1582
24.9639,1568
24.9667,1565
24.9694,1566
24.9722,1563
24.9750,1580
24.9778,1579
24.9806,1585
24.9833,1601
24.9861,1597
24.9889,1589
24.9917,1594
24.9944,1605
24.9972,1576
25.0000,1547
25.0028,1535
25.0056,1536
25.0083,1535
25.0111,1542
25.0139,1552
25.0167,1554
25.0194,1552
25.0222,1570
25.0250,1587
25.0278,1573
25.0306,1556
25.0333,1553
25.0361,1546
25.0389,1513
25.0417,1515
25.0444,1535
25.0472,1547
25.0500,1546
25.0528,1546
25.0556,1549
25.0583,1538
25.0611,1520
25.0639,1546
25.0667,1549
25.0694,1532
25.0722,1514
25.0750,1515
25.0778,1514
25.0806,1519
25.0833,1542
25.0861,1536
25.0889,1523
25.0917,1506
25.0944,1476
25.0972,1463
25.1000,1475
25.1028,1507
25.1056,1519
25.1083,1506
25.1111,1487
25.1139,1504
25.1167,1501
25.1194,1515
25.1222,1524
25.1250,1531
25.1278,1524
25.1306,1503
25.1333,1478
25.1361,1454
25.1389,1445
25.1417,1470
25.1444,1513
25.1472,1533
25.1500,1543
25.1528,1547
25.1556,1546
25.1583,1531
25.1611,1517
25.1639,1513
25.1667,1503
25.1694,1495
25.1722,1471
25.1750,1470
25.1778,1489
25.1806,1519
25.1833,1561
25.1861,1592
25.1889,1587
25.1917,1595
25.1944,1606
25.1972,1619
25.2000,1617
25.2028,1601
25.2056,1573
25.2083,1521
25.2111,1489
25.2139,1466
25.2167,1462
25.2194,1444
25.2222,1431
25.2250,1444
25.2278,1455
25.2306,1456
25.2333,1454
25.2361,1449
25.2389,1444
25.2417,1459
25.2444,1474
25.2472,1460
25.2500,1432
25.2528,1425
25.2556,1442
25.2583,1449
25.2611,1457
25.2639,1477
25.2667,1466
25.2694,1448
25.2722,1439
25.2750,1441
25.2778,1440
25.2806,1435
25.2833,1431
25.2861,1420
25.2889,1385
25.2917,1341
25.2944,1338
25.2972,1332
25.3000,1361
25.3028,1421
25.3056,1474
25.3083,1533
25.3111,1615
25.3139,1759
25.3167,1986
25.3194,2236
25.3222,2478
25.3250,2566
25.3278,2459
25.3306,2225
25.3333,1980
25.3361,1792
25.3389,1677
25.3417,1639
25.3444,1656
25.3472,1668
25.3500,1662
25.3528,1640
25.3556,1584
25.3583,1476
25.3611,1404
25.3639,1362
25.3667,1335
25.3694,1328
25.3722,1347
25.3750,1388
25.3778,1424
25.3806,1422
25.3833,1429
25.3861,1402
25.3889,1393
25.3917,1396
25.3944,1409
25.3972,1403
25.4000,1400
25.4028,1410
25.4056,1406
25.4083,1405
25.4111,1419
25.4139,1439
25.4167,1445
25.4194,1419
25.4222,1395
25.4250,1383
25.4278,1383
25.4306,1402
25.4333,1463
25.4361,1506
25.4389,1503
25.4417,1477
25.4444,1467
25.4472,1461
25.4500,1458
25.4528,1473
25.4556,1460
25.4583,1448
25.4611,1443
25.4639,1446
25.4667,1458
25.4694,1484
25.4722,1530
25.4750,1538
25.4778,1523
25.4806,1490
25.4833,1466
25.4861,1472
25.4889,1478
25.4917,1502
25.4944,1533
25.4972,1515
25.5000,1506
25.5028,1513
25.5056,1533
25.5083,1555
25.5111,1580
25.5139,1549
25.5167,1562
25.5194,1538
25.5222,1558
25.5250,1589
25.5278,1607
25.5306,1618
25.5333,1615
25.5361,1587
25.5389,1548
25.5417,1532
25.5444,1535
25.5472,1542
25.5500,1545
25.5528,1546
25.5556,1513
25.5583,1491
25.5611,1500
25.5639,1523
25.5667,1516
25.5694,1488
25.5722,1460
25.5750,1467
25.5778,1465
25.5806,1477
25.5833,1501
25.5861,1485
25.5889,1474
25.5917,1476
25.5944,1479
25.5972,1476
25.6000,1497
25.6028,1527
25.6056,1554
25.6083,1534
25.6111,1528
25.6139,1505
25.6167,1458
25.6194,1446
25.6222,1466
25.6250,1494
25.6278,1507
25.6306,1505
25.6333,1500
25.6361,1488
25.6389,1485
25.6417,1483
25.6444,1488
25.6472,1473
25.6500,1470
25.6528,1460
25.6556,1446
25.6583,1455
25.6611,1488
25.6639,1516
25.6667,1523
25.6694,1500
25.6722,1499
25.6750,1493
25.6778,1480
25.6806,1480
25.6833,1506
25.6861,1521
25.6889,1515
25.6917,1523
25.6944,1537
25.6972,1531
25.7000,1529
25.7028,1533
25.7056,1526
25.7083,1508
25.7111,1506
25.7139,1508
25.7167,1512
25.7194,1507
25.7222,1501
25.7250,1469
25.7278,1449
25.7306,1452
25.7333,1468
25.7361,1482
25.7389,1490
25.7417,1494
25.7444,1499
25.7472,1465
25.7500,1464
25.7528,1490
25.7556,1508
25.7583,1506
25.7611,1514
25.7639,1500
25.7667,1505
25.7694,1504
25.7722,1534
25.7750,1536
25.7778,1512
25.7806,1492
25.7833,1457
25.7861,1463
25.7889,1466
25.7917,1502
25.7944,1518
25.7972,1502
25.8000,1483
25.8028,1480
25.8056,1499
25.8083,1507
25.8111,1532
25.8139,1523
25.8167,1492
25.8194,1464
25.8222,1469
25.8250,1502
25.8278,1541
25.8306,1577
25.8333,1616
25.8361,1612
25.8389,1606
25.8417,1602
25.8444,1597
25.8472,1580
25.8500,1582
25.8528,1610
25.8556,1628
25.8583,1620
25.8611,1612
25.8639,1610
25.8667,1612
25.8694,1594
25.8722,1586
25.8750,1584
25.8778,1565
25.8806,1547
25.8833,1533
25.8861,1504
25.8889,1471
25.8917,1467
25.8944,1479
25.8972,1475
25.9000,1447
25.9028,1458
25.9056,1478
25.9083,1511
25.9111,1552
25.9139,1557
25.9167,1547
25.9194,1547
25.9222,1557
25.9250,1571
25.9278,1577
25.9306,1575
25.9333,1572
25.9361,1566
25.9389,1549
25.9417,1544
25.9444,1525
25.9472,1518
25.9500,1547
25.9528,1583
25.9556,1589
25.9583,1565
25.9611,1512
25.9639,1482
25.9667,1449
25.9694,1439
25.9722,1474
25.9750,1518
25.9778,1566
25.9806,1660
25.9833,1816
25.9861,2041
25.9889,2318
25.9917,2563
25.9944,2679
25.9972,2615
26.0000,2377
26.0028,2109
26.0056,1891
26.0083,1790
26.0111,1761
26.0139,1784
26.0167,1820
26.0194,1858
26.0222,1849
26.0250,1792
26.0278,1700
26.0306,1636
26.0333,1622
26.0361,1592
26.0389,1593
26.0417,1615
26.0444,1637
26.0472,1621
26.0500,1602
26.0528,1579
26.0556,1557
26.0583,1553
26.0611,1583
26.0639,1626
26.0667,1656
26.0694,1644
26.0722,1623
26.0750,1617
26.0778,1631
26.0806,1656
26.0833,1669
26.0861,1673
26.0889,1656
26.0917,1654
26.0944,1646
26.0972,1638
26.1000,1650
26.1028,1668
26.1056,1653
26.1083,1591
26.1111,1533
26.1139,1525
26.1167,1585
26.1194,1651
26.1222,1728
26.1250,1733
26.1278,1723
26.1306,1710
26.1333,1671
26.1361,1642
26.1389,1642
26.1417,1673
26.1444,1699
26.1472,1714
26.1500,1720
26.1528,1731
26.1556,1721
26.1583,1710
26.1611,1710
26.1639,1710
26.1667,1699
26.1694,1698
26.1722,1730
26.1750,1778
26.1778,1800
26.1806,1807
26.1833,1750
26.1861,1731
26.1889,1714
26.1917,1713
26.1944,1732
26.1972,1772
26.2000,1814
26.2028,1837
26.2056,1787
26.2083,1708
26.2111,1633
26.2139,1585
26.2167,1555
26.2194,1565
26.2222,1599
26.2250,1649
26.2278,1697
26.2306,1730
26.2333,1723
26.2361,1688
26.2389,1674
26.2417,1675
26.2444,1664
26.2472,1630
26.2500,1611
26.2528,1623
26.2556,1645
26.2583,1642
26.2611,1639
26.2639,1636
26.2667,1627
26.2694,1640
26.2722,1642
26.2750,1610
26.2778,1576
26.2806,1548
26.2833,1541
26.2861,1522
26.2889,1524
26.2917,1572
26.2944,1610
26.2972,1626
26.3000,1634
26.3028,1656
26.3056,1646
26.3083,1616
26.3111,1579
26.3139,1538
26.3167,1511
26.3194,1530
26.3222,1586
26.3250,1631
26.3278,1656
26.3306,1672
26.3333,1669
26.3361,1631
26.3389,1593
26.3417,1585
26.3444,1562
26.3472,1539
26.3500,1510
26.3528,1477
26.3556,1447
26.3583,1450
26.3611,1498
26.3639,1578
26.3667,1620
26.3694,1660
26.3722,1654
26.3750,1595
26.3778,1546
26.3806,1510
26.3833,1501
26.3861,1487
26.3889,1496
26.3917,1502
26.3944,1514
26.3972,1540
26.4000,1563
26.4028,1576
26.4056,1569
26.4083,1502
26.4111,1435
26.4139,1391
26.4167,1381
26.4194,1432
26.4222,1501
26.4250,1534
26.4278,1540
26.4306,1503
26.4333,1463
26.4361,1447
26.4389,1473
26.4417,1500
