Tiempo(s),Valor_ADC
0.0028,1574
0.0056,1580
0.0083,1557
0.0111,1533
0.0139,1524
0.0167,1541
0.0194,1564
0.0222,1580
0.0250,1582
0.0278,1561
0.0306,1537
0.0333,1538
0.0361,1547
0.0389,1564
0.0417,1585
0.0444,1581
0.0472,1573
0.0500,1555
0.0528,1546
0.0556,1543
0.0583,1566
0.0611,1588
0.0639,1604
0.0667,1598
0.0694,1596
0.0722,1571
0.0750,1565
0.0778,1578
0.0806,1598
0.0833,1619
0.0861,1615
0.0889,1610
0.0917,1595
0.0944,1589
0.0972,1590
0.1000,1609
0.1028,1623
0.1056,1630
0.1083,1632
0.1111,1620
0.1139,1616
0.1167,1633
0.1194,1650
0.1222,1672
0.1250,1687
0.1278,1680
0.1306,1667
0.1333,1665
0.1361,1671
0.1389,1673
0.1417,1686
0.1444,1680
0.1472,1674
0.1500,1658
0.1528,1659
0.1556,1651
0.1583,1652
0.1611,1646
0.1639,1658
0.1667,1645
0.1694,1630
0.1722,1625
0.1750,1614
0.1778,1627
0.1806,1624
0.1833,1629
0.1861,1630
0.1889,1612
0.1917,1605
0.1944,1596
0.1972,1604
0.2000,1624
0.2028,1627
0.2056,1631
0.2083,1620
0.2111,1603
0.2139,1606
0.2167,1613
0.2194,1633
0.2222,1636
0.2250,1643
0.2278,1628
0.2306,1619
0.2333,1609
0.2361,1609
0.2389,1622
0.2417,1634
0.2444,1645
0.2472,1649
0.2500,1648
0.2528,1650
0.2556,1662
0.2583,1681
0.2611,1691
0.2639,1699
0.2667,1706
0.2694,1715
0.2722,1729
0.2750,1738
0.2778,1759
0.2806,1770
0.2833,1767
0.2861,1769
0.2889,1762
0.2917,1753
0.2944,1751
0.2972,1751
0.3000,1754
0.3028,1751
0.3056,1735
0.3083,1690
0.3111,1651
0.3139,1602
0.3167,1580
0.3194,1565
0.3222,1540
0.3250,1522
0.3278,1515
0.3306,1508
0.3333,1514
0.3361,1513
0.3389,1514
0.3417,1511
0.3444,1505
0.3472,1488
0.3500,1477
0.3528,1469
0.3556,1464
0.3583,1474
0.3611,1483
0.3639,1480
0.3667,1482
0.3694,1484
0.3722,1491
0.3750,1495
0.3778,1510
0.3806,1515
0.3833,1504
0.3861,1499
0.3889,1489
0.3917,1453
0.3944,1405
0.3972,1368
0.4000,1355
0.4028,1369
0.4056,1418
0.4083,1507
0.4111,1657
0.4139,1888
0.4167,2195
0.4194,2548
0.4222,2887
0.4250,3114
0.4278,3041
0.4306,2720
0.4333,2364
0.4361,2082
0.4389,1892
0.4417,1772
0.4444,1670
0.4472,1570
0.4500,1474
0.4528,1430
0.4556,1397
0.4583,1393
0.4611,1389
0.4639,1407
0.4667,1439
0.4694,1469
0.4722,1503
0.4750,1513
0.4778,1523
0.4806,1521
0.4833,1508
0.4861,1504
0.4889,1505
0.4917,1522
0.4944,1543
0.4972,1545
0.5000,1547
0.5028,1527
0.5056,1529
0.5083,1531
0.5111,1536
0.5139,1562
0.5167,1571
0.5194,1573
0.5222,1555
0.5250,1539
0.5278,1549
0.5306,1559
0.5333,1570
0.5361,1587
0.5389,1591
0.5417,1585
0.5444,1583
0.5472,1586
0.5500,1594
0.5528,1605
0.5556,1622
0.5583,1629
0.5611,1614
0.5639,1612
0.5667,1620
0.5694,1623
0.5722,1633
0.5750,1637
0.5778,1635
0.5806,1647
0.5833,1652
0.5861,1657
0.5889,1670
0.5917,1685
0.5944,1700
0.5972,1697
0.6000,1698
0.6028,1708
0.6056,1704
0.6083,1700
0.6111,1700
0.6139,1721
0.6167,1717
0.6194,1707
0.6222,1686
0.6250,1669
0.6278,1656
0.6306,1662
0.6333,1666
0.6361,1685
0.6389,1671
0.6417,1657
0.6444,1649
0.6472,1638
0.6500,1635
0.6528,1637
0.6556,1642
0.6583,1635
0.6611,1640
0.6639,1634
0.6667,1635
0.6694,1637
0.6722,1646
0.6750,1650
0.6778,1644
0.6806,1630
0.6833,1620
0.6861,1606
0.6889,1610
0.6917,1619
0.6944,1620
0.6972,1635
0.7000,1630
0.7028,1628
0.7056,1619
0.7083,1612
0.7111,1606
0.7139,1616
0.7167,1625
0.7194,1616
0.7222,1611
0.7250,1614
0.7278,1617
0.7306,1641
0.7333,1651
0.7361,1672
0.7389,1685
0.7417,1683
0.7444,1683
0.7472,1679
0.7500,1698
0.7528,1723
0.7556,1747
0.7583,1754
0.7611,1758
0.7639,1764
0.7667,1765
0.7694,1763
0.7722,1761
0.7750,1753
0.7778,1747
0.7806,1732
0.7833,1703
0.7861,1674
0.7889,1663
0.7917,1637
0.7944,1611
0.7972,1588
0.8000,1556
0.8028,1539
0.8056,1522
0.8083,1512
0.8111,1516
0.8139,1507
0.8167,1497
0.8194,1494
0.8222,1487
0.8250,1496
0.8278,1494
0.8306,1502
0.8333,1509
0.8361,1514
0.8389,1514
0.8417,1505
0.8444,1492
0.8472,1494
0.8500,1488
0.8528,1502
0.8556,1504
0.8583,1504
0.8611,1503
0.8639,1501
0.8667,1495
0.8694,1480
0.8722,1443
0.8750,1396
0.8778,1374
0.8806,1377
0.8833,1413
0.8861,1491
0.8889,1643
0.8917,1878
0.8944,2194
0.8972,2554
0.9000,2923
0.9028,3189
0.9056,3170
0.9083,2895
0.9111,2532
0.9139,2200
0.9167,1951
0.9194,1763
0.9222,1613
0.9250,1501
0.9278,1421
0.9306,1396
0.9333,1393
0.9361,1411
0.9389,1426
0.9417,1427
0.9444,1429
0.9472,1472
0.9500,1510
0.9528,1521
0.9556,1523
0.9583,1518
0.9611,1499
0.9639,1500
0.9667,1505
0.9694,1510
0.9722,1527
0.9750,1538
0.9778,1548
0.9806,1533
0.9833,1525
0.9861,1524
0.9889,1537
0.9917,1548
0.9944,1558
0.9972,1536
1.0000,1521
1.0028,1532
1.0056,1540
1.0083,1564
1.0111,1572
1.0139,1582
1.0167,1588
1.0194,1576
1.0222,1563
1.0250,1562
1.0278,1570
1.0306,1581
1.0333,1601
1.0361,1600
1.0389,1599
1.0417,1606
1.0444,1607
1.0472,1613
1.0500,1625
1.0528,1647
1.0556,1644
1.0583,1632
1.0611,1623
1.0639,1620
1.0667,1634
1.0694,1646
1.0722,1668
1.0750,1667
1.0778,1659
1.0806,1668
1.0833,1664
1.0861,1683
1.0889,1701
1.0917,1714
1.0944,1703
1.0972,1693
1.1000,1689
1.1028,1681
1.1056,1668
1.1083,1662
1.1111,1667
1.1139,1663
1.1167,1660
1.1194,1647
1.1222,1640
1.1250,1640
1.1278,1645
1.1306,1649
1.1333,1661
1.1361,1655
1.1389,1642
1.1417,1626
1.1444,1616
1.1472,1611
1.1500,1611
1.1528,1616
1.1556,1616
1.1583,1621
1.1611,1622
1.1639,1628
1.1667,1625
1.1694,1628
1.1722,1637
1.1750,1624
1.1778,1610
1.1806,1608
1.1833,1604
1.1861,1602
1.1889,1603
1.1917,1627
1.1944,1632
1.1972,1633
1.2000,1624
1.2028,1628
1.2056,1627
1.2083,1626
1.2111,1629
1.2139,1619
1.2167,1607
1.2194,1592
1.2222,1590
1.2250,1603
1.2278,1624
1.2306,1642
1.2333,1655
1.2361,1671
1.2389,1656
1.2417,1657
1.2444,1668
1.2472,1681
1.2500,1710
1.2528,1736
1.2556,1754
1.2583,1754
1.2611,1759
1.2639,1763
1.2667,1768
1.2694,1769
1.2722,1773
1.2750,1761
1.2778,1754
1.2806,1751
1.2833,1738
1.2861,1715
1.2889,1683
1.2917,1654
1.2944,1627
1.2972,1606
1.3000,1575
1.3028,1549
1.3056,1539
1.3083,1538
1.3111,1533
1.3139,1530
1.3167,1527
1.3194,1520
1.3222,1513
1.3250,1505
1.3278,1503
1.3306,1505
1.3333,1505
1.3361,1510
1.3389,1507
1.3417,1497
1.3444,1500
1.3472,1489
1.3500,1492
1.3528,1499
1.3556,1493
1.3583,1484
1.3611,1473
1.3639,1469
1.3667,1467
1.3694,1445
1.3722,1409
1.3750,1351
1.3778,1326
1.3806,1327
1.3833,1372
1.3861,1463
1.3889,1639
1.3917,1899
1.3944,2225
1.3972,2586
1.4000,2933
1.4028,3166
1.4056,3143
1.4083,2887
1.4111,2545
1.4139,2236
1.4167,1965
1.4194,1747
1.4222,1580
1.4250,1455
1.4278,1399
1.4306,1383
1.4333,1392
1.4361,1404
1.4389,1429
1.4417,1446
1.4444,1467
1.4472,1498
1.4500,1515
1.4528,1527
1.4556,1533
1.4583,1520
1.4611,1514
1.4639,1520
1.4667,1514
1.4694,1518
1.4722,1528
1.4750,1518
1.4778,1513
1.4806,1506
1.4833,1513
1.4861,1530
1.4889,1540
1.4917,1556
1.4944,1562
1.4972,1547
1.5000,1538
1.5028,1529
1.5056,1535
1.5083,1553
1.5111,1573
1.5139,1586
1.5167,1591
1.5194,1577
1.5222,1565
1.5250,1581
1.5278,1584
1.5306,1602
1.5333,1607
1.5361,1615
1.5389,1601
1.5417,1601
1.5444,1615
1.5472,1622
1.5500,1637
1.5528,1648
1.5556,1660
1.5583,1652
1.5611,1655
1.5639,1660
1.5667,1669
1.5694,1695
1.5722,1708
1.5750,1711
1.5778,1714
1.5806,1710
1.5833,1713
1.5861,1715
1.5889,1723
1.5917,1728
1.5944,1735
1.5972,1731
1.6000,1716
1.6028,1695
1.6056,1688
1.6083,1702
1.6111,1707
1.6139,1709
1.6167,1704
1.6194,1699
1.6222,1687
1.6250,1666
1.6278,1664
1.6306,1668
1.6333,1669
1.6361,1660
1.6389,1648
1.6417,1647
1.6444,1642
1.6472,1639
1.6500,1665
1.6528,1664
1.6556,1666
1.6583,1652
1.6611,1648
1.6639,1637
1.6667,1624
1.6694,1631
1.6722,1641
1.6750,1635
1.6778,1635
1.6806,1629
1.6833,1623
1.6861,1633
1.6889,1630
1.6917,1635
1.6944,1629
1.6972,1626
1.7000,1621
1.7028,1626
1.7056,1610
1.7083,1597
1.7111,1600
1.7139,1604
1.7167,1606
1.7194,1599
1.7222,1601
1.7250,1599
1.7278,1600
1.7306,1606
1.7333,1601
1.7361,1609
1.7389,1597
1.7417,1600
1.7444,1600
1.7472,1607
1.7500,1616
1.7528,1628
1.7556,1644
1.7583,1642
1.7611,1647
1.7639,1639
1.7667,1660
1.7694,1680
1.7722,1705
1.7750,1732
1.7778,1741
1.7806,1745
1.7833,1748
1.7861,1762
1.7889,1777
1.7917,1800
1.7944,1814
1.7972,1804
1.8000,1797
1.8028,1781
1.8056,1767
1.8083,1761
1.8111,1741
1.8139,1721
1.8167,1698
1.8194,1669
1.8222,1638
1.8250,1593
1.8278,1563
1.8306,1543
1.8333,1542
1.8361,1539
1.8389,1541
1.8417,1539
1.8444,1535
1.8472,1535
1.8500,1535
1.8528,1536
1.8556,1524
1.8583,1520
1.8611,1519
1.8639,1520
1.8667,1521
1.8694,1523
1.8722,1518
1.8750,1518
1.8778,1516
1.8806,1519
1.8833,1532
1.8861,1540
1.8889,1556
1.8917,1557
1.8944,1550
1.8972,1532
1.9000,1493
1.9028,1433
1.9056,1392
1.9083,1382
1.9111,1401
1.9139,1444
1.9167,1565
1.9194,1751
1.9222,2024
1.9250,2366
1.9278,2728
1.9306,3054
1.9333,3212
1.9361,3102
1.9389,2822
1.9417,2494
1.9444,2201
1.9472,1947
1.9500,1746
1.9528,1592
1.9556,1471
1.9583,1425
1.9611,1419
1.9639,1437
1.9667,1453
1.9694,1474
1.9722,1492
1.9750,1516
1.9778,1529
1.9806,1549
1.9833,1556
1.9861,1556
1.9889,1548
1.9917,1542
1.9944,1548
1.9972,1561
2.0000,1569
2.0028,1571
2.0056,1566
2.0083,1565
2.0111,1554
2.0139,1564
2.0167,1572
2.0194,1584
2.0222,1611
2.0250,1623
2.0278,1615
2.0306,1610
2.0333,1602
2.0361,1607
2.0389,1621
2.0417,1629
2.0444,1639
2.0472,1630
2.0500,1630
2.0528,1623
2.0556,1629
2.0583,1638
2.0611,1647
2.0639,1655
2.0667,1655
2.0694,1650
2.0722,1652
2.0750,1666
2.0778,1679
2.0806,1691
2.0833,1703
2.0861,1697
2.0889,1696
2.0917,1692
2.0944,1694
2.0972,1702
2.1000,1714
2.1028,1715
2.1056,1719
2.1083,1719
2.1111,1719
2.1139,1732
2.1167,1754
2.1194,1764
2.1222,1764
2.1250,1763
2.1278,1760
2.1306,1744
2.1333,1736
2.1361,1730
2.1389,1727
2.1417,1722
2.1444,1718
2.1472,1717
2.1500,1715
2.1528,1700
2.1556,1699
2.1583,1698
2.1611,1712
2.1639,1691
2.1667,1688
2.1694,1677
2.1722,1664
2.1750,1667
2.1778,1678
2.1806,1687
2.1833,1693
2.1861,1690
2.1889,1676
2.1917,1675
2.1944,1676
2.1972,1670
2.2000,1672
2.2028,1678
2.2056,1668
2.2083,1657
2.2111,1654
2.2139,1649
2.2167,1651
2.2194,1658
2.2222,1649
2.2250,1644
2.2278,1642
2.2306,1636
2.2333,1633
2.2361,1638
2.2389,1637
2.2417,1636
2.2444,1634
2.2472,1627
2.2500,1622
2.2528,1628
2.2556,1627
2.2583,1632
2.2611,1636
2.2639,1635
2.2667,1634
2.2694,1631
2.2722,1622
2.2750,1616
2.2778,1606
2.2806,1605
2.2833,1601
2.2861,1600
2.2889,1604
2.2917,1612
2.2944,1611
2.2972,1618
2.3000,1624
2.3028,1629
2.3056,1624
2.3083,1623
2.3111,1621
2.3139,1643
2.3167,1642
2.3194,1662
2.3222,1676
2.3250,1686
2.3278,1698
2.3306,1710
2.3333,1713
2.3361,1718
2.3389,1739
2.3417,1752
2.3444,1762
2.3472,1773
2.3500,1787
2.3528,1795
2.3556,1807
2.3583,1818
2.3611,1831
2.3639,1830
2.3667,1813
2.3694,1799
2.3722,1791
2.3750,1769
2.3778,1742
2.3806,1705
2.3833,1638
2.3861,1570
2.3889,1496
2.3917,1451
2.3944,1422
2.3972,1417
2.4000,1431
2.4028,1438
2.4056,1439
2.4083,1448
2.4111,1461
2.4139,1458
2.4167,1462
2.4194,1460
2.4222,1466
2.4250,1482
2.4278,1500
2.4306,1526
2.4333,1573
2.4361,1642
2.4389,1725
2.4417,1792
2.4444,1848
2.4472,1876
2.4500,1882
2.4528,1876
2.4556,1859
2.4583,1842
2.4611,1825
2.4639,1809
2.4667,1747
2.4694,1685
2.4722,1626
2.4750,1617
2.4778,1618
2.4806,1671
2.4833,1788
2.4861,1984
2.4889,2279
2.4917,2623
2.4944,3002
2.4972,3296
2.5000,3327
2.5028,3147
2.5056,2846
2.5083,2531
2.5111,2247
2.5139,2029
2.5167,1839
2.5194,1707
2.5222,1607
2.5250,1571
2.5278,1568
2.5306,1579
2.5333,1584
2.5361,1590
2.5389,1600
2.5417,1626
2.5444,1646
2.5472,1659
2.5500,1662
2.5528,1641
2.5556,1633
2.5583,1629
2.5611,1621
2.5639,1632
2.5667,1644
2.5694,1644
2.5722,1646
2.5750,1635
2.5778,1629
2.5806,1634
2.5833,1633
2.5861,1649
2.5889,1658
2.5917,1658
2.5944,1644
2.5972,1629
2.6000,1622
2.6028,1630
2.6056,1640
2.6083,1663
2.6111,1667
2.6139,1652
2.6167,1641
2.6194,1640
2.6222,1648
2.6250,1661
2.6278,1671
2.6306,1669
2.6333,1670
2.6361,1677
2.6389,1689
2.6417,1704
2.6444,1715
2.6472,1719
2.6500,1725
2.6528,1730
2.6556,1719
2.6583,1715
2.6611,1729
2.6639,1741
2.6667,1745
2.6694,1747
2.6722,1730
2.6750,1734
2.6778,1752
2.6806,1753
2.6833,1768
2.6861,1772
2.6889,1781
2.6917,1785
2.6944,1772
2.6972,1756
2.7000,1743
2.7028,1745
2.7056,1745
2.7083,1749
2.7111,1743
2.7139,1717
2.7167,1703
2.7194,1689
2.7222,1691
2.7250,1691
2.7278,1695
2.7306,1693
2.7333,1686
2.7361,1680
2.7389,1677
2.7417,1679
2.7444,1673
2.7472,1660
2.7500,1667
2.7528,1650
2.7556,1648
2.7583,1639
2.7611,1637
2.7639,1642
2.7667,1639
2.7694,1652
2.7722,1639
2.7750,1646
2.7778,1656
2.7806,1655
2.7833,1647
2.7861,1648
2.7889,1646
2.7917,1629
2.7944,1633
2.7972,1631
2.8000,1620
2.8028,1621
2.8056,1626
2.8083,1637
2.8111,1633
2.8139,1634
2.8167,1629
2.8194,1629
2.8222,1614
2.8250,1603
2.8278,1606
2.8306,1602
2.8333,1602
2.8361,1602
2.8389,1601
2.8417,1608
2.8444,1619
2.8472,1626
2.8500,1637
2.8528,1642
2.8556,1648
2.8583,1662
2.8611,1685
2.8639,1696
2.8667,1710
2.8694,1713
2.8722,1735
2.8750,1730
2.8778,1742
2.8806,1741
2.8833,1744
2.8861,1757
2.8889,1774
2.8917,1780
2.8944,1796
2.8972,1800
2.9000,1796
2.9028,1798
2.9056,1817
2.9083,1818
2.9111,1810
2.9139,1801
2.9167,1779
2.9194,1768
2.9222,1744
2.9250,1722
2.9278,1705
2.9306,1681
2.9333,1640
2.9361,1593
2.9389,1582
2.9417,1564
2.9444,1564
2.9472,1558
2.9500,1555
2.9528,1568
2.9556,1569
2.9583,1571
2.9611,1557
2.9639,1553
2.9667,1550
2.9694,1547
2.9722,1550
2.9750,1547
2.9778,1548
2.9806,1561
2.9833,1572
2.9861,1576
2.9889,1576
2.9917,1587
2.9944,1586
2.9972,1587
3.0000,1588
3.0028,1586
3.0056,1584
3.0083,1574
3.0111,1537
3.0139,1493
3.0167,1449
3.0194,1437
3.0222,1444
3.0250,1490
3.0278,1557
3.0306,1688
3.0333,1895
3.0361,2192
3.0389,2533
3.0417,2901
3.0444,3138
3.0472,3081
3.0500,2794
3.0528,2471
3.0556,2207
3.0583,2010
3.0611,1882
3.0639,1760
3.0667,1646
3.0694,1549
3.0722,1483
3.0750,1452
3.0778,1435
3.0806,1440
3.0833,1462
3.0861,1497
3.0889,1544
3.0917,1570
3.0944,1593
3.0972,1583
3.1000,1561
3.1028,1542
3.1056,1547
3.1083,1562
3.1111,1581
3.1139,1596
3.1167,1593
3.1194,1579
3.1222,1558
3.1250,1548
3.1278,1551
3.1306,1571
3.1333,1588
3.1361,1588
3.1389,1583
3.1417,1571
3.1444,1572
3.1472,1585
3.1500,1606
3.1528,1623
3.1556,1626
3.1583,1609
3.1611,1602
3.1639,1596
3.1667,1602
3.1694,1612
3.1722,1628
3.1750,1631
3.1778,1632
3.1806,1616
3.1833,1612
3.1861,1625
3.1889,1623
3.1917,1641
3.1944,1646
3.1972,1655
3.2000,1645
3.2028,1647
3.2056,1648
3.2083,1655
3.2111,1664
3.2139,1680
3.2167,1683
3.2194,1676
3.2222,1675
3.2250,1674
3.2278,1690
3.2306,1687
3.2333,1704
3.2361,1746
3.2389,1733
3.2417,1726
3.2444,1715
3.2472,1717
3.2500,1722
3.2528,1718
3.2556,1717
3.2583,1699
3.2611,1687
3.2639,1671
3.2667,1672
3.2694,1681
3.2722,1680
3.2750,1677
3.2778,1670
3.2806,1659
3.2833,1658
3.2861,1671
3.2889,1693
3.2917,1704
3.2944,1717
3.2972,1728
3.3000,1707
3.3028,1699
3.3056,1694
3.3083,1706
3.3111,1711
3.3139,1719
3.3167,1725
3.3194,1727
3.3222,1727
3.3250,1723
3.3278,1729
3.3306,1735
3.3333,1733
3.3361,1727
3.3389,1712
3.3417,1708
3.3444,1717
3.3472,1722
3.3500,1720
3.3528,1726
3.3556,1719
3.3583,1708
3.3611,1690
3.3639,1683
3.3667,1672
3.3694,1681
3.3722,1690
3.3750,1702
3.3778,1703
3.3806,1698
3.3833,1703
3.3861,1704
3.3889,1704
3.3917,1714
3.3944,1707
3.3972,1702
3.4000,1702
3.4028,1700
3.4056,1712
3.4083,1745
3.4111,1769
3.4139,1782
3.4167,1786
3.4194,1783
3.4222,1782
3.4250,1789
3.4278,1798
3.4306,1809
3.4333,1797
3.4361,1781
3.4389,1741
3.4417,1686
3.4444,1645
3.4472,1612
3.4500,1586
3.4528,1579
3.4556,1559
3.4583,1548
3.4611,1532
3.4639,1527
3.4667,1522
3.4694,1528
3.4722,1516
3.4750,1511
3.4778,1508
3.4806,1502
3.4833,1503
3.4861,1502
3.4889,1494
3.4917,1500
3.4944,1501
3.4972,1507
3.5000,1505
3.5028,1502
3.5056,1495
3.5083,1496
3.5111,1501
3.5139,1510
3.5167,1503
3.5194,1507
3.5222,1490
3.5250,1474
3.5278,1441
3.5306,1396
3.5333,1373
3.5361,1380
3.5389,1399
3.5417,1447
3.5444,1541
3.5472,1701
3.5500,1963
3.5528,2284
3.5556,2631
3.5583,2938
3.5611,3043
3.5639,2858
3.5667,2506
3.5694,2191
3.5722,1976
3.5750,1838
3.5778,1732
3.5806,1635
3.5833,1543
3.5861,1461
3.5889,1412
3.5917,1381
3.5944,1369
3.5972,1366
3.6000,1382
3.6028,1396
3.6056,1446
3.6083,1485
3.6111,1501
3.6139,1499
3.6167,1483
3.6194,1467
3.6222,1456
3.6250,1470
3.6278,1497
3.6306,1517
3.6333,1526
3.6361,1507
3.6389,1495
3.6417,1493
3.6444,1512
3.6472,1534
3.6500,1547
3.6528,1534
3.6556,1530
3.6583,1510
3.6611,1511
3.6639,1515
3.6667,1525
3.6694,1545
3.6722,1538
3.6750,1530
3.6778,1521
3.6806,1525
3.6833,1551
3.6861,1566
3.6889,1576
3.6917,1569
3.6944,1575
3.6972,1565
3.7000,1566
3.7028,1572
3.7056,1581
3.7083,1601
3.7111,1612
3.7139,1608
3.7167,1612
3.7194,1601
3.7222,1604
3.7250,1615
3.7278,1635
3.7306,1647
3.7333,1669
3.7361,1676
3.7389,1666
3.7417,1672
3.7444,1674
3.7472,1679
3.7500,1666
3.7528,1669
3.7556,1641
3.7583,1640
3.7611,1635
3.7639,1635
3.7667,1627
3.7694,1634
3.7722,1626
3.7750,1607
3.7778,1586
3.7806,1578
3.7833,1562
3.7861,1569
3.7889,1586
3.7917,1593
3.7944,1591
3.7972,1578
3.8000,1573
3.8028,1572
3.8056,1571
3.8083,1576
3.8111,1588
3.8139,1578
3.8167,1576
3.8194,1573
3.8222,1577
3.8250,1585
3.8278,1598
3.8306,1596
3.8333,1594
3.8361,1598
3.8389,1591
3.8417,1584
3.8444,1592
3.8472,1587
3.8500,1589
3.8528,1576
3.8556,1560
3.8583,1548
3.8611,1535
3.8639,1536
3.8667,1549
3.8694,1557
3.8722,1558
3.8750,1552
3.8778,1545
3.8806,1550
3.8833,1553
3.8861,1570
3.8889,1580
3.8917,1597
3.8944,1594
3.8972,1591
3.9000,1583
3.9028,1581
3.9056,1591
3.9083,1601
3.9111,1619
3.9139,1625
3.9167,1641
3.9194,1655
3.9222,1681
3.9250,1696
3.9278,1716
3.9306,1721
3.9333,1725
3.9361,1726
3.9389,1719
3.9417,1708
3.9444,1685
3.9472,1675
3.9500,1645
3.9528,1611
3.9556,1573
3.9583,1537
3.9611,1508
3.9639,1483
3.9667,1485
3.9694,1479
3.9722,1481
3.9750,1476
3.9778,1467
3.9806,1467
3.9833,1453
3.9861,1445
3.9889,1439
3.9917,1443
3.9944,1445
3.9972,1449
4.0000,1449
4.0028,1452
4.0056,1463
4.0083,1459
4.0111,1464
4.0139,1465
4.0167,1455
4.0194,1456
4.0222,1468
4.0250,1464
4.0278,1461
4.0306,1462
4.0333,1436
4.0361,1401
4.0389,1353
4.0417,1333
4.0444,1354
4.0472,1407
4.0500,1469
4.0528,1565
4.0556,1749
4.0583,2004
4.0611,2324
4.0639,2660
4.0667,2940
4.0694,3010
4.0722,2772
4.0750,2431
4.0778,2135
4.0806,1931
4.0833,1797
4.0861,1688
4.0889,1588
4.0917,1491
4.0944,1423
4.0972,1367
4.1000,1347
4.1028,1342
4.1056,1348
4.1083,1373
4.1111,1413
4.1139,1444
4.1167,1485
4.1194,1482
4.1222,1474
4.1250,1463
4.1278,1462
4.1306,1469
4.1333,1497
4.1361,1516
4.1389,1526
4.1417,1519
4.1444,1509
4.1472,1503
4.1500,1501
4.1528,1508
4.1556,1516
4.1583,1521
4.1611,1527
4.1639,1528
4.1667,1525
4.1694,1531
4.1722,1549
4.1750,1576
4.1778,1588
4.1806,1586
4.1833,1588
4.1861,1573
4.1889,1576
4.1917,1583
4.1944,1593
4.1972,1607
4.2000,1603
4.2028,1603
4.2056,1599
4.2083,1597
4.2111,1622
4.2139,1654
4.2167,1681
4.2194,1684
4.2222,1691
4.2250,1679
4.2278,1673
4.2306,1668
4.2333,1688
4.2361,1701
4.2389,1705
4.2417,1699
4.2444,1705
4.2472,1710
4.2500,1710
4.2528,1725
4.2556,1737
4.2583,1711
4.2611,1702
4.2639,1685
4.2667,1672
4.2694,1676
4.2722,1685
4.2750,1684
4.2778,1664
4.2806,1649
4.2833,1631
4.2861,1630
4.2889,1616
4.2917,1617
4.2944,1613
4.2972,1609
4.3000,1619
4.3028,1611
4.3056,1596
4.3083,1591
4.3111,1599
4.3139,1605
4.3167,1613
4.3194,1609
4.3222,1603
4.3250,1595
4.3278,1595
4.3306,1599
4.3333,1613
4.3361,1619
4.3389,1624
4.3417,1614
4.3444,1608
4.3472,1591
4.3500,1589
4.3528,1599
4.3556,1604
4.3583,1618
4.3611,1615
4.3639,1599
4.3667,1595
4.3694,1588
4.3722,1604
4.3750,1609
4.3778,1618
4.3806,1615
4.3833,1603
4.3861,1593
4.3889,1587
4.3917,1591
4.3944,1597
4.3972,1604
4.4000,1607
4.4028,1590
4.4056,1587
4.4083,1585
4.4111,1585
4.4139,1605
4.4167,1619
4.4194,1622
4.4222,1632
4.4250,1633
4.4278,1637
4.4306,1655
4.4333,1668
4.4361,1692
4.4389,1717
4.4417,1735
4.4444,1758
4.4472,1774
4.4500,1797
4.4528,1797
4.4556,1797
4.4583,1796
4.4611,1783
4.4639,1777
4.4667,1762
4.4694,1762
4.4722,1740
4.4750,1715
4.4778,1685
4.4806,1652
4.4833,1630
4.4861,1603
4.4889,1583
4.4917,1572
4.4944,1561
4.4972,1551
4.5000,1546
4.5028,1540
4.5056,1536
4.5083,1536
4.5111,1544
4.5139,1547
4.5167,1556
4.5194,1543
4.5222,1523
4.5250,1525
4.5278,1524
4.5306,1532
4.5333,1531
4.5361,1534
4.5389,1529
4.5417,1530
4.5444,1515
4.5472,1517
4.5500,1521
4.5528,1519
4.5556,1522
4.5583,1490
4.5611,1447
4.5639,1393
4.5667,1362
4.5694,1376
4.5722,1415
4.5750,1501
4.5778,1638
4.5806,1852
4.5833,2155
4.5861,2500
4.5889,2860
4.5917,3099
4.5944,3091
4.5972,2833
4.6000,2482
4.6028,2183
4.6056,1949
4.6083,1781
4.6111,1660
4.6139,1555
4.6167,1476
4.6194,1428
4.6222,1400
4.6250,1410
4.6278,1413
4.6306,1441
4.6333,1484
4.6361,1524
4.6389,1550
4.6417,1552
4.6444,1543
4.6472,1526
4.6500,1524
4.6528,1534
4.6556,1548
4.6583,1579
4.6611,1601
4.6639,1607
4.6667,1605
4.6694,1585
4.6722,1588
4.6750,1581
4.6778,1599
4.6806,1618
4.6833,1632
4.6861,1628
4.6889,1624
4.6917,1616
4.6944,1608
4.6972,1625
4.7000,1646
4.7028,1660
4.7056,1667
4.7083,1647
4.7111,1653
4.7139,1665
4.7167,1683
4.7194,1704
4.7222,1697
4.7250,1691
4.7278,1682
4.7306,1667
4.7333,1674
4.7361,1685
4.7389,1706
4.7417,1725
4.7444,1725
4.7472,1732
4.7500,1734
4.7528,1732
4.7556,1740
4.7583,1755
4.7611,1778
4.7639,1785
4.7667,1789
4.7694,1778
4.7722,1777
4.7750,1780
4.7778,1802
4.7806,1821
4.7833,1838
4.7861,1823
4.7889,1819
4.7917,1810
4.7944,1798
4.7972,1802
4.8000,1802
4.8028,1794
4.8056,1775
4.8083,1757
4.8111,1749
4.8139,1733
4.8167,1746
4.8194,1749
4.8222,1744
4.8250,1741
4.8278,1734
4.8306,1721
4.8333,1733
4.8361,1734
4.8389,1744
4.8417,1745
4.8444,1746
4.8472,1749
4.8500,1739
4.8528,1737
4.8556,1740
4.8583,1749
4.8611,1754
4.8639,1751
4.8667,1762
4.8694,1736
4.8722,1721
4.8750,1719
4.8778,1727
4.8806,1729
4.8833,1730
4.8861,1733
4.8889,1735
4.8917,1747
4.8944,1741
4.8972,1747
4.9000,1745
4.9028,1730
4.9056,1730
4.9083,1731
4.9111,1722
4.9139,1714
4.9167,1722
4.9194,1730
4.9222,1726
4.9250,1730
4.9278,1724
4.9306,1720
4.9333,1720
4.9361,1727
4.9389,1723
4.9417,1726
4.9444,1722
4.9472,1712
4.9500,1726
4.9528,1736
4.9556,1765
4.9583,1787
4.9611,1792
4.9639,1793
4.9667,1797
4.9694,1804
4.9722,1811
4.9750,1837
4.9778,1867
4.9806,1890
4.9833,1894
4.9861,1900
4.9889,1911
4.9917,1919
4.9944,1916
4.9972,1925
5.0000,1908
5.0028,1899
5.0056,1880
5.0083,1861
5.0111,1824
5.0139,1792
5.0167,1766
5.0194,1744
5.0222,1728
5.0250,1714
5.0278,1684
5.0306,1676
5.0333,1686
5.0361,1678
5.0389,1681
5.0417,1663
5.0444,1658
5.0472,1646
5.0500,1636
5.0528,1627
5.0556,1623
5.0583,1616
5.0611,1621
5.0639,1624
5.0667,1631
5.0694,1628
5.0722,1637
5.0750,1647
5.0778,1653
5.0806,1647
5.0833,1645
5.0861,1644
5.0889,1631
5.0917,1623
5.0944,1608
5.0972,1593
5.1000,1543
5.1028,1493
5.1056,1471
5.1083,1481
5.1111,1513
5.1139,1587
5.1167,1739
5.1194,1981
5.1222,2295
5.1250,2637
5.1278,2983
5.1306,3234
5.1333,3226
5.1361,2974
5.1389,2655
5.1417,2330
5.1444,2078
5.1472,1870
5.1500,1703
5.1528,1572
5.1556,1501
5.1583,1477
5.1611,1481
5.1639,1494
5.1667,1510
5.1694,1532
5.1722,1568
5.1750,1587
5.1778,1605
5.1806,1620
5.1833,1608
5.1861,1595
5.1889,1587
5.1917,1585
5.1944,1597
5.1972,1613
5.2000,1630
5.2028,1650
5.2056,1651
5.2083,1637
5.2111,1623
5.2139,1623
5.2167,1636
5.2194,1643
5.2222,1651
5.2250,1660
5.2278,1663
5.2306,1656
5.2333,1659
5.2361,1660
5.2389,1676
5.2417,1670
5.2444,1673
5.2472,1657
5.2500,1648
5.2528,1647
5.2556,1664
5.2583,1682
5.2611,1684
5.2639,1694
5.2667,1697
5.2694,1686
5.2722,1680
5.2750,1694
5.2778,1711
5.2806,1726
5.2833,1722
5.2861,1714
5.2889,1702
5.2917,1697
5.2944,1717
5.2972,1742
5.3000,1757
5.3028,1759
5.3056,1751
5.3083,1742
5.3111,1747
5.3139,1769
5.3167,1773
5.3194,1789
5.3222,1735
5.3250,1732
5.3278,1716
5.3306,1710
5.3333,1696
5.3361,1685
5.3389,1677
5.3417,1673
5.3444,1656
5.3472,1667
5.3500,1656
5.3528,1649
5.3556,1641
5.3583,1649
5.3611,1636
5.3639,1628
5.3667,1605
5.3694,1602
5.3722,1596
5.3750,1594
5.3778,1605
5.3806,1615
5.3833,1616
5.3861,1606
5.3889,1590
5.3917,1585
5.3944,1588
5.3972,1590
5.4000,1585
5.4028,1581
5.4056,1573
5.4083,1558
5.4111,1562
5.4139,1556
5.4167,1571
5.4194,1574
5.4222,1574
5.4250,1569
5.4278,1556
5.4306,1550
5.4333,1559
5.4361,1567
5.4389,1564
5.4417,1563
5.4444,1544
5.4472,1526
5.4500,1517
5.4528,1523
5.4556,1525
5.4583,1531
5.4611,1531
5.4639,1523
5.4667,1515
5.4694,1511
5.4722,1498
5.4750,1498
5.4778,1494
5.4806,1496
5.4833,1490
5.4861,1486
5.4889,1478
5.4917,1478
5.4944,1465
5.4972,1477
5.5000,1491
5.5028,1494
5.5056,1491
5.5083,1490
5.5111,1502
5.5139,1525
5.5167,1533
5.5194,1539
5.5222,1539
5.5250,1541
5.5278,1554
5.5306,1567
5.5333,1585
5.5361,1601
5.5389,1621
5.5417,1633
5.5444,1639
5.5472,1645
5.5500,1636
5.5528,1628
5.5556,1622
5.5583,1614
5.5611,1602
5.5639,1575
5.5667,1540
5.5694,1505
5.5722,1475
5.5750,1448
5.5778,1416
5.5806,1403
5.5833,1382
5.5861,1371
5.5889,1358
5.5917,1342
5.5944,1337
5.5972,1337
5.6000,1337
5.6028,1351
5.6056,1343
5.6083,1337
5.6111,1334
5.6139,1327
5.6167,1326
5.6194,1330
5.6222,1327
5.6250,1325
5.6278,1326
5.6306,1326
5.6333,1319
5.6361,1319
5.6389,1326
5.6417,1328
5.6444,1330
5.6472,1312
5.6500,1309
5.6528,1288
5.6556,1243
5.6583,1180
5.6611,1145
5.6639,1149
5.6667,1179
5.6694,1243
5.6722,1386
5.6750,1588
5.6778,1893
5.6806,2241
5.6833,2611
5.6861,2894
5.6889,2957
5.6917,2767
5.6944,2457
5.6972,2130
5.7000,1858
5.7028,1627
5.7056,1443
5.7083,1308
5.7111,1216
5.7139,1172
5.7167,1166
5.7194,1173
5.7222,1189
5.7250,1208
5.7278,1220
5.7306,1247
5.7333,1265
5.7361,1289
5.7389,1298
5.7417,1291
5.7444,1282
5.7472,1278
5.7500,1278
5.7528,1301
5.7556,1311
5.7583,1315
5.7611,1315
5.7639,1312
5.7667,1308
5.7694,1308
5.7722,1311
5.7750,1317
5.7778,1325
5.7806,1334
5.7833,1326
5.7861,1327
5.7889,1333
5.7917,1338
5.7944,1351
5.7972,1363
5.8000,1367
5.8028,1355
5.8056,1341
5.8083,1333
5.8111,1344
5.8139,1361
5.8167,1375
5.8194,1390
5.8222,1383
5.8250,1370
5.8278,1361
5.8306,1362
5.8333,1385
5.8361,1397
5.8389,1388
5.8417,1395
5.8444,1395
5.8472,1400
5.8500,1416
5.8528,1434
5.8556,1449
5.8583,1463
5.8611,1465
5.8639,1455
5.8667,1450
5.8694,1447
5.8722,1461
5.8750,1479
5.8778,1497
5.8806,1500
5.8833,1478
5.8861,1469
5.8889,1458
5.8917,1462
5.8944,1457
5.8972,1459
5.9000,1442
5.9028,1424
5.9056,1419
5.9083,1398
5.9111,1395
5.9139,1401
5.9167,1407
5.9194,1414
5.9222,1415
5.9250,1405
5.9278,1405
5.9306,1408
5.9333,1413
5.9361,1422
5.9389,1424
5.9417,1426
5.9444,1427
5.9472,1421
5.9500,1422
5.9528,1430
5.9556,1438
5.9583,1438
5.9611,1434
5.9639,1435
5.9667,1432
5.9694,1427
5.9722,1424
5.9750,1436
5.9778,1439
5.9806,1442
5.9833,1438
5.9861,1431
5.9889,1431
5.9917,1425
5.9944,1432
5.9972,1448
6.0000,1464
6.0028,1467
6.0056,1462
6.0083,1464
6.0111,1466
6.0139,1463
6.0167,1466
6.0194,1452
6.0222,1446
6.0250,1430
6.0278,1447
6.0306,1444
6.0333,1456
6.0361,1471
6.0389,1463
6.0417,1447
6.0444,1445
6.0472,1445
6.0500,1461
6.0528,1465
6.0556,1462
6.0583,1469
6.0611,1471
6.0639,1468
6.0667,1480
6.0694,1488
6.0722,1505
6.0750,1511
6.0778,1543
6.0806,1562
6.0833,1571
6.0861,1585
6.0889,1575
6.0917,1575
6.0944,1592
6.0972,1607
6.1000,1640
6.1028,1676
6.1056,1690
6.1083,1693
6.1111,1706
6.1139,1707
6.1167,1716
6.1194,1725
6.1222,1723
6.1250,1719
6.1278,1717
6.1306,1713
6.1333,1706
6.1361,1692
6.1389,1655
6.1417,1628
6.1444,1601
6.1472,1576
6.1500,1551
6.1528,1539
6.1556,1529
6.1583,1543
6.1611,1535
6.1639,1543
6.1667,1530
6.1694,1526
6.1722,1514
6.1750,1524
6.1778,1527
6.1806,1518
6.1833,1515
6.1861,1522
6.1889,1529
6.1917,1532
6.1944,1544
6.1972,1552
6.2000,1557
6.2028,1560
6.2056,1558
6.2083,1557
6.2111,1572
6.2139,1589
6.2167,1603
6.2194,1589
6.2222,1557
6.2250,1513
6.2278,1458
6.2306,1418
6.2333,1414
6.2361,1433
6.2389,1485
6.2417,1599
6.2444,1799
6.2472,2070
6.2500,2400
6.2528,2767
6.2556,3124
6.2583,3257
6.2611,3150
6.2639,2864
6.2667,2546
6.2694,2260
6.2722,2036
6.2750,1845
6.2778,1689
6.2806,1569
6.2833,1527
6.2861,1505
6.2889,1518
6.2917,1543
6.2944,1573
6.2972,1597
6.3000,1629
6.3028,1645
6.3056,1659
6.3083,1663
6.3111,1650
6.3139,1650
6.3167,1648
6.3194,1647
6.3222,1664
6.3250,1668
6.3278,1681
6.3306,1688
6.3333,1693
6.3361,1698
6.3389,1714
6.3417,1726
6.3444,1737
6.3472,1751
6.3500,1757
6.3528,1747
6.3556,1755
6.3583,1759
6.3611,1770
6.3639,1778
6.3667,1791
6.3694,1797
6.3722,1798
6.3750,1786
6.3778,1789
6.3806,1789
6.3833,1806
6.3861,1822
6.3889,1829
6.3917,1834
6.3944,1830
6.3972,1841
6.4000,1838
6.4028,1868
6.4056,1881
6.4083,1894
6.4111,1896
6.4139,1894
6.4167,1899
6.4194,1901
6.4222,1917
6.4250,1931
6.4278,1949
6.4306,1955
6.4333,1962
6.4361,1964
6.4389,1969
6.4417,1973
6.4444,1995
6.4472,2029
6.4500,2039
6.4528,2026
6.4556,2013
6.4583,2002
6.4611,1998
6.4639,1998
6.4667,1994
6.4694,1990
6.4722,1971
6.4750,1947
6.4778,1924
6.4806,1921
6.4833,1928
6.4861,1938
6.4889,1947
6.4917,1945
6.4944,1934
6.4972,1933
6.5000,1934
6.5028,1932
6.5056,1940
6.5083,1946
6.5111,1944
6.5139,1937
6.5167,1926
6.5194,1930
6.5222,1931
6.5250,1938
6.5278,1935
6.5306,1926
6.5333,1928
6.5361,1919
6.5389,1924
6.5417,1929
6.5444,1929
6.5472,1936
6.5500,1938
6.5528,1933
6.5556,1921
6.5583,1901
6.5611,1915
6.5639,1916
6.5667,1923
6.5694,1907
6.5722,1910
6.5750,1902
6.5778,1908
6.5806,1904
6.5833,1906
6.5861,1912
6.5889,1920
6.5917,1910
6.5944,1900
6.5972,1888
6.6000,1876
6.6028,1882
6.6056,1893
6.6083,1903
6.6111,1903
6.6139,1920
6.6167,1916
6.6194,1913
6.6222,1911
6.6250,1900
6.6278,1895
6.6306,1902
6.6333,1910
6.6361,1928
6.6389,1948
6.6417,1960
6.6444,1979
6.6472,1984
6.6500,1981
6.6528,1984
6.6556,2000
6.6583,2014
6.6611,2038
6.6639,2066
6.6667,2084
6.6694,2111
6.6722,2110
6.6750,2112
6.6778,2114
6.6806,2112
6.6833,2115
6.6861,2110
6.6889,2094
6.6917,2089
6.6944,2068
6.6972,2036
6.7000,2002
6.7028,1970
6.7056,1961
6.7083,1930
6.7111,1909
6.7139,1886
6.7167,1878
6.7194,1864
6.7222,1874
6.7250,1874
6.7278,1864
6.7306,1857
6.7333,1847
6.7361,1847
6.7389,1848
6.7417,1849
6.7444,1844
6.7472,1850
6.7500,1848
6.7528,1848
6.7556,1852
6.7583,1850
6.7611,1849
6.7639,1846
6.7667,1849
6.7694,1844
6.7722,1846
6.7750,1854
6.7778,1849
6.7806,1834
6.7833,1816
6.7861,1771
6.7889,1718
6.7917,1694
6.7944,1687
6.7972,1688
6.8000,1751
6.8028,1886
6.8056,2107
6.8083,2420
6.8111,2777
6.8139,3163
6.8167,3343
6.8194,3350
6.8222,3255
6.8250,3009
6.8278,2706
6.8306,2416
6.8333,2183
6.8361,2002
6.8389,1875
6.8417,1790
6.8444,1752
6.8472,1747
6.8500,1761
6.8528,1778
6.8556,1782
6.8583,1785
6.8611,1802
6.8639,1818
6.8667,1821
6.8694,1825
6.8722,1825
6.8750,1823
6.8778,1820
6.8806,1832
6.8833,1844
6.8861,1858
6.8889,1862
6.8917,1853
6.8944,1837
6.8972,1824
6.9000,1833
6.9028,1838
6.9056,1854
6.9083,1859
6.9111,1856
6.9139,1848
6.9167,1834
6.9194,1840
6.9222,1846
6.9250,1863
6.9278,1875
6.9306,1876
6.9333,1869
6.9361,1874
6.9389,1875
6.9417,1895
6.9444,1903
6.9472,1907
6.9500,1902
6.9528,1904
6.9556,1903
6.9583,1911
6.9611,1922
6.9639,1934
6.9667,1939
6.9694,1941
6.9722,1939
6.9750,1949
6.9778,1950
6.9806,1960
6.9833,1971
6.9861,1970
6.9889,1984
6.9917,1975
6.9944,1974
6.9972,1975
7.0000,1981
7.0028,1982
7.0056,1893
7.0083,1887
7.0111,1885
7.0139,1866
7.0167,1853
7.0194,1838
7.0222,1842
7.0250,1838
7.0278,1842
7.0306,1836
7.0333,1826
7.0361,1814
7.0389,1797
7.0417,1796
7.0444,1793
7.0472,1798
7.0500,1793
7.0528,1785
7.0556,1774
7.0583,1777
7.0611,1784
7.0639,1800
7.0667,1805
7.0694,1809
7.0722,1789
7.0750,1790
7.0778,1781
7.0806,1775
7.0833,1775
7.0861,1781
7.0889,1786
7.0917,1783
7.0944,1786
7.0972,1781
7.1000,1783
7.1028,1783
7.1056,1787
7.1083,1793
7.1111,1797
7.1139,1781
7.1167,1779
7.1194,1783
7.1222,1785
7.1250,1783
7.1278,1787
7.1306,1782
7.1333,1784
7.1361,1775
7.1389,1767
7.1417,1759
7.1444,1751
7.1472,1756
7.1500,1751
7.1528,1733
7.1556,1730
7.1583,1733
7.1611,1730
7.1639,1745
7.1667,1757
7.1694,1759
7.1722,1753
7.1750,1747
7.1778,1748
7.1806,1752
7.1833,1770
7.1861,1789
7.1889,1796
7.1917,1801
7.1944,1815
7.1972,1826
7.2000,1841
7.2028,1853
7.2056,1878
7.2083,1893
7.2111,1902
7.2139,1900
7.2167,1895
7.2194,1903
7.2222,1917
7.2250,1917
7.2278,1924
7.2306,1925
7.2333,1903
7.2361,1880
7.2389,1836
7.2417,1797
7.2444,1767
7.2472,1743
7.2500,1707
7.2528,1691
7.2556,1682
7.2583,1668
7.2611,1661
7.2639,1654
7.2667,1651
7.2694,1646
7.2722,1652
7.2750,1644
7.2778,1640
7.2806,1642
7.2833,1641
7.2861,1646
7.2889,1643
7.2917,1643
7.2944,1643
7.2972,1641
7.3000,1634
7.3028,1633
7.3056,1640
7.3083,1651
7.3111,1657
7.3139,1657
7.3167,1648
7.3194,1649
7.3222,1623
7.3250,1581
7.3278,1533
7.3306,1484
7.3333,1472
7.3361,1491
7.3389,1525
7.3417,1626
7.3444,1805
7.3472,2077
7.3500,2413
7.3528,2781
7.3556,3109
7.3583,3232
7.3611,3083
7.3639,2769
7.3667,2449
7.3694,2188
7.3722,1992
7.3750,1846
7.3778,1721
7.3806,1620
7.3833,1548
7.3861,1506
7.3889,1490
7.3917,1502
7.3944,1518
7.3972,1541
7.4000,1579
7.4028,1621
7.4056,1650
7.4083,1655
7.4111,1642
7.4139,1635
7.4167,1616
7.4194,1607
7.4222,1610
7.4250,1623
7.4278,1634
7.4306,1632
7.4333,1618
7.4361,1608
7.4389,1615
7.4417,1633
7.4444,1640
7.4472,1650
7.4500,1646
7.4528,1633
7.4556,1644
7.4583,1654
7.4611,1660
7.4639,1686
7.4667,1688
7.4694,1696
7.4722,1681
7.4750,1657
7.4778,1656
7.4806,1665
7.4833,1680
7.4861,1701
7.4889,1715
7.4917,1715
7.4944,1704
7.4972,1694
7.5000,1704
7.5028,1723
7.5056,1734
7.5083,1738
7.5111,1727
7.5139,1728
7.5167,1728
7.5194,1748
7.5222,1755
7.5250,1778
7.5278,1792
7.5306,1787
7.5333,1779
7.5361,1764
7.5389,1767
7.5417,1775
7.5444,1775
7.5472,1797
7.5500,1788
7.5528,1784
7.5556,1768
7.5583,1761
7.5611,1750
7.5639,1737
7.5667,1735
7.5694,1719
7.5722,1705
7.5750,1698
7.5778,1691
7.5806,1686
7.5833,1695
7.5861,1701
7.5889,1708
7.5917,1695
7.5944,1674
7.5972,1663
7.6000,1653
7.6028,1651
7.6056,1665
7.6083,1674
7.6111,1660
7.6139,1651
7.6167,1644
7.6194,1644
7.6222,1644
7.6250,1658
7.6278,1662
7.6306,1661
7.6333,1652
7.6361,1660
7.6389,1653
7.6417,1654
7.6444,1653
7.6472,1655
7.6500,1648
7.6528,1637
7.6556,1623
7.6583,1627
7.6611,1627
7.6639,1640
7.6667,1641
7.6694,1644
7.6722,1632
7.6750,1620
7.6778,1599
7.6806,1594
7.6833,1603
7.6861,1619
7.6889,1621
7.6917,1621
7.6944,1623
7.6972,1630
7.7000,1644
7.7028,1645
7.7056,1656
7.7083,1663
7.7111,1682
7.7139,1693
7.7167,1708
7.7194,1722
7.7222,1731
7.7250,1748
7.7278,1754
7.7306,1761
7.7333,1756
7.7361,1768
7.7389,1755
7.7417,1764
7.7444,1760
7.7472,1731
7.7500,1696
7.7528,1655
7.7556,1616
7.7583,1587
7.7611,1554
7.7639,1538
7.7667,1520
7.7694,1511
7.7722,1502
7.7750,1501
7.7778,1496
7.7806,1494
7.7833,1484
7.7861,1469
7.7889,1462
7.7917,1462
7.7944,1458
7.7972,1449
7.8000,1461
7.8028,1466
7.8056,1472
7.8083,1474
7.8111,1472
7.8139,1465
7.8167,1462
7.8194,1463
7.8222,1476
7.8250,1487
7.8278,1491
7.8306,1485
7.8333,1456
7.8361,1415
7.8389,1356
7.8417,1328
7.8444,1331
7.8472,1356
7.8500,1408
7.8528,1520
7.8556,1706
7.8583,1985
7.8611,2321
7.8639,2687
7.8667,2990
7.8694,3043
7.8722,2817
7.8750,2467
7.8778,2136
7.8806,1934
7.8833,1790
7.8861,1683
7.8889,1587
7.8917,1495
7.8944,1424
7.8972,1372
7.9000,1338
7.9028,1334
7.9056,1349
7.9083,1375
7.9111,1414
7.9139,1449
7.9167,1486
7.9194,1500
7.9222,1491
7.9250,1475
7.9278,1468
7.9306,1475
7.9333,1501
7.9361,1515
7.9389,1518
7.9417,1514
7.9444,1494
7.9472,1488
7.9500,1493
7.9528,1505
7.9556,1522
7.9583,1532
7.9611,1536
7.9639,1537
7.9667,1533
7.9694,1533
7.9722,1535
7.9750,1568
7.9778,1576
7.9806,1577
7.9833,1557
7.9861,1547
7.9889,1541
7.9917,1546
7.9944,1565
7.9972,1580
8.0000,1590
8.0028,1592
8.0056,1575
8.0083,1578
8.0111,1590
8.0139,1602
8.0167,1612
8.0194,1625
8.0222,1631
8.0250,1633
8.0278,1635
8.0306,1635
8.0333,1647
8.0361,1652
8.0389,1657
8.0417,1655
8.0444,1651
8.0472,1662
8.0500,1665
8.0528,1671
8.0556,1683
8.0583,1704
8.0611,1701
8.0639,1690
8.0667,1673
8.0694,1655
8.0722,1663
8.0750,1670
8.0778,1671
8.0806,1665
8.0833,1643
8.0861,1631
8.0889,1628
8.0917,1627
8.0944,1630
8.0972,1626
8.1000,1625
8.1028,1616
8.1056,1609
8.1083,1608
8.1111,1600
8.1139,1613
8.1167,1619
8.1194,1614
8.1222,1620
8.1250,1613
8.1278,1608
8.1306,1608
8.1333,1602
8.1361,1605
8.1389,1614
8.1417,1614
8.1444,1608
8.1472,1612
8.1500,1615
8.1528,1618
8.1556,1631
8.1583,1625
8.1611,1607
8.1639,1605
8.1667,1590
8.1694,1591
8.1722,1586
8.1750,1588
8.1778,1592
8.1806,1594
8.1833,1613
8.1861,1612
8.1889,1615
8.1917,1623
8.1944,1647
8.1972,1653
8.2000,1662
8.2028,1657
8.2056,1666
8.2083,1661
8.2111,1684
8.2139,1703
8.2167,1717
8.2194,1733
8.2222,1737
8.2250,1740
8.2278,1745
8.2306,1762
8.2333,1780
8.2361,1777
8.2389,1792
8.2417,1769
8.2444,1765
8.2472,1744
8.2500,1719
8.2528,1689
8.2556,1650
8.2583,1623
8.2611,1579
8.2639,1558
8.2667,1532
8.2694,1526
8.2722,1527
8.2750,1537
8.2778,1547
8.2806,1549
8.2833,1538
8.2861,1529
8.2889,1520
8.2917,1508
8.2944,1515
8.2972,1516
8.3000,1534
8.3028,1528
8.3056,1533
8.3083,1531
8.3111,1534
8.3139,1533
8.3167,1549
8.3194,1548
8.3222,1540
8.3250,1545
8.3278,1539
8.3306,1533
8.3333,1531
8.3361,1509
8.3389,1467
8.3417,1432
8.3444,1432
8.3472,1464
8.3500,1504
8.3528,1585
8.3556,1730
8.3583,1965
8.3611,2271
8.3639,2623
8.3667,2968
8.3694,3151
8.3722,3048
8.3750,2711
8.3778,2377
8.3806,2116
8.3833,1947
8.3861,1826
8.3889,1734
8.3917,1654
8.3944,1585
8.3972,1524
8.4000,1488
8.4028,1456
8.4056,1450
8.4083,1455
8.4111,1479
8.4139,1531
8.4167,1568
8.4194,1600
8.4222,1604
8.4250,1585
8.4278,1562
8.4306,1567
8.4333,1590
8.4361,1604
8.4389,1618
8.4417,1618
8.4444,1599
8.4472,1586
8.4500,1588
8.4528,1606
8.4556,1628
8.4583,1649
8.4611,1639
8.4639,1632
8.4667,1623
8.4694,1616
8.4722,1634
8.4750,1653
8.4778,1682
8.4806,1692
8.4833,1690
8.4861,1659
8.4889,1654
8.4917,1658
8.4944,1667
8.4972,1686
8.5000,1698
8.5028,1699
8.5056,1688
8.5083,1684
8.5111,1691
8.5139,1706
8.5167,1746
8.5194,1760
8.5222,1777
8.5250,1769
8.5278,1762
8.5306,1764
8.5333,1786
8.5361,1794
8.5389,1792
8.5417,1802
8.5444,1797
8.5472,1797
8.5500,1806
8.5528,1816
8.5556,1827
8.5583,1851
8.5611,1853
8.5639,1846
8.5667,1820
8.5694,1807
8.5722,1806
8.5750,1814
8.5778,1815
8.5806,1816
8.5833,1806
8.5861,1793
8.5889,1776
8.5917,1771
8.5944,1758
8.5972,1756
8.6000,1752
8.6028,1744
8.6056,1722
8.6083,1716
8.6111,1724
8.6139,1745
8.6167,1754
8.6194,1759
8.6222,1758
8.6250,1741
8.6278,1739
8.6306,1740
8.6333,1742
8.6361,1749
8.6389,1761
8.6417,1763
8.6444,1772
8.6472,1761
8.6500,1757
8.6528,1758
8.6556,1764
8.6583,1761
8.6611,1759
8.6639,1753
8.6667,1746
8.6694,1735
8.6722,1737
8.6750,1745
8.6778,1742
8.6806,1737
8.6833,1731
8.6861,1729
8.6889,1734
8.6917,1735
8.6944,1741
8.6972,1755
8.7000,1761
8.7028,1756
8.7056,1760
8.7083,1768
8.7111,1774
8.7139,1797
8.7167,1811
8.7194,1828
8.7222,1842
8.7250,1850
8.7278,1864
8.7306,1868
8.7333,1875
8.7361,1886
8.7389,1886
8.7417,1887
8.7444,1886
8.7472,1892
8.7500,1882
8.7528,1858
8.7556,1826
8.7583,1785
8.7611,1745
8.7639,1704
8.7667,1684
8.7694,1663
8.7722,1653
8.7750,1652
8.7778,1645
8.7806,1642
8.7833,1624
8.7861,1616
8.7889,1617
8.7917,1615
8.7944,1617
8.7972,1618
8.8000,1618
8.8028,1620
8.8056,1606
8.8083,1610
8.8111,1626
8.8139,1639
8.8167,1645
8.8194,1651
8.8222,1648
8.8250,1636
8.8278,1629
8.8306,1623
8.8333,1623
8.8361,1625
8.8389,1610
8.8417,1571
8.8444,1518
8.8472,1484
8.8500,1496
8.8528,1528
8.8556,1605
8.8583,1724
8.8611,1909
8.8639,2188
8.8667,2507
8.8694,2866
8.8722,3145
8.8750,3177
8.8778,2950
8.8806,2595
8.8833,2282
8.8861,2070
8.8889,1917
8.8917,1813
8.8944,1711
8.8972,1625
8.9000,1552
8.9028,1502
8.9056,1486
8.9083,1490
8.9111,1503
8.9139,1543
8.9167,1571
8.9194,1617
8.9222,1638
8.9250,1640
8.9278,1615
8.9306,1598
8.9333,1590
8.9361,1603
8.9389,1635
8.9417,1662
8.9444,1666
8.9472,1656
8.9500,1634
8.9528,1629
8.9556,1636
8.9583,1649
8.9611,1677
8.9639,1686
8.9667,1684
8.9694,1681
8.9722,1667
8.9750,1679
8.9778,1695
8.9806,1722
8.9833,1732
8.9861,1727
8.9889,1692
8.9917,1674
8.9944,1673
8.9972,1683
9.0000,1718
9.0028,1735
9.0056,1751
9.0083,1754
9.0111,1746
9.0139,1742
9.0167,1753
9.0194,1771
9.0222,1788
9.0250,1789
9.0278,1779
9.0306,1761
9.0333,1763
9.0361,1774
9.0389,1801
9.0417,1819
9.0444,1826
9.0472,1839
9.0500,1833
9.0528,1842
9.0556,1853
9.0583,1860
9.0611,1877
9.0639,1847
9.0667,1833
9.0694,1825
9.0722,1818
9.0750,1819
9.0778,1837
9.0806,1829
9.0833,1823
9.0861,1818
9.0889,1788
9.0917,1774
9.0944,1762
9.0972,1761
9.1000,1766
9.1028,1764
9.1056,1768
9.1083,1750
9.1111,1742
9.1139,1742
9.1167,1734
9.1194,1756
9.1222,1758
9.1250,1765
9.1278,1755
9.1306,1742
9.1333,1736
9.1361,1740
9.1389,1746
9.1417,1752
9.1444,1756
9.1472,1753
9.1500,1749
9.1528,1749
9.1556,1747
9.1583,1752
9.1611,1763
9.1639,1769
9.1667,1779
9.1694,1782
9.1722,1770
9.1750,1756
9.1778,1746
9.1806,1737
9.1833,1726
9.1861,1734
9.1889,1724
9.1917,1725
9.1944,1725
9.1972,1739
9.2000,1757
9.2028,1762
9.2056,1757
9.2083,1751
9.2111,1761
9.2139,1780
9.2167,1793
9.2194,1810
9.2222,1814
9.2250,1820
9.2278,1821
9.2306,1830
9.2333,1835
9.2361,1845
9.2389,1877
9.2417,1894
9.2444,1896
9.2472,1875
9.2500,1866
9.2528,1853
9.2556,1848
9.2583,1842
9.2611,1819
9.2639,1797
9.2667,1761
9.2694,1729
9.2722,1692
9.2750,1661
9.2778,1642
9.2806,1632
9.2833,1630
9.2861,1634
9.2889,1632
9.2917,1617
9.2944,1607
9.2972,1589
9.3000,1589
9.3028,1595
9.3056,1595
9.3083,1596
9.3111,1590
9.3139,1587
9.3167,1586
9.3194,1597
9.3222,1598
9.3250,1604
9.3278,1611
9.3306,1615
9.3333,1622
9.3361,1626
9.3389,1630
9.3417,1633
9.3444,1619
9.3472,1580
9.3500,1538
9.3528,1481
9.3556,1469
9.3583,1485
9.3611,1525
9.3639,1609
9.3667,1743
9.3694,1961
9.3722,2255
9.3750,2600
9.3778,2945
9.3806,3183
9.3833,3132
9.3861,2832
9.3889,2472
9.3917,2190
9.3944,2004
9.3972,1881
9.4000,1767
9.4028,1671
9.4056,1583
9.4083,1518
9.4111,1484
9.4139,1473
9.4167,1476
9.4194,1496
9.4222,1525
9.4250,1572
9.4278,1612
9.4306,1624
9.4333,1623
9.4361,1614
9.4389,1610
9.4417,1628
9.4444,1648
9.4472,1658
9.4500,1654
9.4528,1634
9.4556,1614
9.4583,1604
9.4611,1607
9.4639,1627
9.4667,1641
9.4694,1657
9.4722,1662
9.4750,1660
9.4778,1640
9.4806,1628
9.4833,1633
9.4861,1662
9.4889,1679
9.4917,1695
9.4944,1696
9.4972,1688
9.5000,1677
9.5028,1677
9.5056,1691
9.5083,1716
9.5111,1726
9.5139,1724
9.5167,1718
9.5194,1707
9.5222,1703
9.5250,1728
9.5278,1745
9.5306,1755
9.5333,1757
9.5361,1749
9.5389,1746
9.5417,1748
9.5444,1759
9.5472,1781
9.5500,1786
9.5528,1798
9.5556,1782
9.5583,1790
9.5611,1786
9.5639,1794
9.5667,1820
9.5694,1840
9.5722,1780
9.5750,1776
9.5778,1753
9.5806,1735
9.5833,1725
9.5861,1706
9.5889,1713
9.5917,1702
9.5944,1698
9.5972,1692
9.6000,1679
9.6028,1669
9.6056,1679
9.6083,1685
9.6111,1695
9.6139,1691
9.6167,1681
9.6194,1661
9.6222,1664
9.6250,1668
9.6278,1684
9.6306,1689
9.6333,1680
9.6361,1665
9.6389,1646
9.6417,1638
9.6444,1645
9.6472,1665
9.6500,1674
9.6528,1672
9.6556,1656
9.6583,1649
9.6611,1646
9.6639,1645
9.6667,1655
9.6694,1654
9.6722,1649
9.6750,1645
9.6778,1632
9.6806,1627
9.6833,1627
9.6861,1625
9.6889,1634
9.6917,1641
9.6944,1636
9.6972,1621
9.7000,1612
9.7028,1606
9.7056,1612
9.7083,1621
9.7111,1616
9.7139,1610
9.7167,1592
9.7194,1589
9.7222,1582
9.7250,1599
9.7278,1611
9.7306,1634
9.7333,1649
9.7361,1660
9.7389,1655
9.7417,1652
9.7444,1653
9.7472,1669
9.7500,1700
9.7528,1718
9.7556,1738
9.7583,1755
9.7611,1746
9.7639,1741
9.7667,1751
9.7694,1756
9.7722,1765
9.7750,1763
9.7778,1743
9.7806,1735
9.7833,1702
9.7861,1682
9.7889,1646
9.7917,1610
9.7944,1566
9.7972,1520
9.8000,1494
9.8028,1485
9.8056,1476
9.8083,1487
9.8111,1494
9.8139,1495
9.8167,1482
9.8194,1478
9.8222,1478
9.8250,1460
9.8278,1460
9.8306,1439
9.8333,1435
9.8361,1433
9.8389,1437
9.8417,1441
9.8444,1444
9.8472,1448
9.8500,1447
9.8528,1461
9.8556,1454
9.8583,1441
9.8611,1441
9.8639,1438
9.8667,1435
9.8694,1429
9.8722,1416
9.8750,1377
9.8778,1326
9.8806,1288
9.8833,1299
9.8861,1328
9.8889,1402
9.8917,1534
9.8944,1755
9.8972,2041
9.9000,2372
9.9028,2719
9.9056,2994
9.9083,3049
9.9111,2830
9.9139,2485
9.9167,2163
9.9194,1901
9.9222,1724
9.9250,1574
9.9278,1456
9.9306,1370
9.9333,1328
9.9361,1305
9.9389,1307
9.9417,1317
9.9444,1342
9.9472,1370
9.9500,1387
9.9528,1410
9.9556,1428
9.9583,1431
9.9611,1428
9.9639,1412
9.9667,1416
9.9694,1420
9.9722,1435
9.9750,1446
9.9778,1448
9.9806,1446
9.9833,1435
9.9861,1431
9.9889,1435
9.9917,1445
9.9944,1470
9.9972,1472
10.0000,1464
10.0028,1450
10.0056,1455
10.0083,1452
10.0111,1474
10.0139,1495
10.0167,1499
10.0194,1503
10.0222,1493
10.0250,1496
10.0278,1509
10.0306,1518
10.0333,1534
10.0361,1535
10.0389,1533
10.0417,1531
10.0444,1534
10.0472,1530
10.0500,1547
10.0528,1559
10.0556,1585
10.0583,1576
10.0611,1569
10.0639,1557
10.0667,1555
10.0694,1575
10.0722,1591
10.0750,1609
10.0778,1614
10.0806,1606
10.0833,1618
10.0861,1623
10.0889,1639
10.0917,1654
10.0944,1673
10.0972,1633
10.1000,1638
10.1028,1616
10.1056,1608
10.1083,1609
10.1111,1602
10.1139,1607
10.1167,1600
10.1194,1592
10.1222,1562
10.1250,1556
10.1278,1542
10.1306,1542
10.1333,1551
10.1361,1552
10.1389,1557
10.1417,1567
10.1444,1551
10.1472,1538
10.1500,1538
10.1528,1542
10.1556,1551
10.1583,1572
10.1611,1573
10.1639,1557
10.1667,1548
10.1694,1546
10.1722,1545
10.1750,1538
10.1778,1542
10.1806,1535
10.1833,1533
10.1861,1539
10.1889,1553
10.1917,1553
10.1944,1548
10.1972,1544
10.2000,1552
10.2028,1546
10.2056,1540
10.2083,1545
10.2111,1553
10.2139,1552
10.2167,1551
10.2194,1554
10.2222,1550
10.2250,1555
10.2278,1556
10.2306,1562
10.2333,1542
10.2361,1536
10.2389,1525
10.2417,1519
10.2444,1530
10.2472,1523
10.2500,1530
10.2528,1535
10.2556,1545
10.2583,1542
10.2611,1536
10.2639,1533
10.2667,1520
10.2694,1522
10.2722,1520
10.2750,1522
10.2778,1532
10.2806,1533
10.2833,1547
10.2861,1569
10.2889,1591
10.2917,1600
10.2944,1617
10.2972,1617
10.3000,1628
10.3028,1639
10.3056,1647
10.3083,1667
10.3111,1678
10.3139,1698
10.3167,1717
10.3194,1734
10.3222,1730
10.3250,1736
10.3278,1730
10.3306,1731
10.3333,1733
10.3361,1729
10.3389,1710
10.3417,1683
10.3444,1651
10.3472,1626
10.3500,1606
10.3528,1594
10.3556,1566
10.3583,1551
10.3611,1531
10.3639,1516
10.3667,1510
10.3694,1507
10.3722,1511
10.3750,1511
10.3778,1513
10.3806,1502
10.3833,1497
10.3861,1502
10.3889,1504
10.3917,1496
10.3944,1501
10.3972,1503
10.4000,1516
10.4028,1519
10.4056,1513
10.4083,1514
10.4111,1517
10.4139,1514
10.4167,1525
10.4194,1531
10.4222,1524
10.4250,1524
10.4278,1523
10.4306,1496
10.4333,1466
10.4361,1418
10.4389,1389
10.4417,1390
10.4444,1413
10.4472,1481
10.4500,1611
10.4528,1823
10.4556,2110
10.4583,2447
10.4611,2800
10.4639,3110
10.4667,3217
10.4694,3058
10.4722,2754
10.4750,2433
10.4778,2146
10.4806,1918
10.4833,1733
10.4861,1584
10.4889,1492
10.4917,1452
10.4944,1444
10.4972,1463
10.5000,1487
10.5028,1502
10.5056,1514
10.5083,1553
10.5111,1570
10.5139,1582
10.5167,1589
10.5194,1589
10.5222,1574
10.5250,1565
10.5278,1568
10.5306,1582
10.5333,1604
10.5361,1614
10.5389,1622
10.5417,1618
10.5444,1616
10.5472,1622
10.5500,1635
10.5528,1662
10.5556,1663
10.5583,1663
10.5611,1645
10.5639,1642
10.5667,1644
10.5694,1656
10.5722,1679
10.5750,1696
10.5778,1708
10.5806,1694
10.5833,1688
10.5861,1688
10.5889,1690
10.5917,1696
10.5944,1715
10.5972,1732
10.6000,1740
10.6028,1733
10.6056,1723
10.6083,1721
10.6111,1748
10.6139,1762
10.6167,1776
10.6194,1789
10.6222,1793
10.6250,1779
10.6278,1799
10.6306,1797
10.6333,1793
10.6361,1801
10.6389,1807
10.6417,1809
10.6444,1810
10.6472,1823
10.6500,1850
10.6528,1857
10.6556,1865
10.6583,1862
10.6611,1857
10.6639,1837
10.6667,1829
10.6694,1815
10.6722,1821
10.6750,1820
10.6778,1806
10.6806,1793
10.6833,1776
10.6861,1762
10.6889,1751
10.6917,1745
10.6944,1753
10.6972,1750
10.7000,1747
10.7028,1746
10.7056,1739
10.7083,1747
10.7111,1756
10.7139,1760
10.7167,1769
10.7194,1757
10.7222,1741
10.7250,1732
10.7278,1731
10.7306,1737
10.7333,1742
10.7361,1743
10.7389,1728
10.7417,1719
10.7444,1719
10.7472,1729
10.7500,1731
10.7528,1748
10.7556,1757
10.7583,1765
10.7611,1755
10.7639,1758
10.7667,1756
10.7694,1753
10.7722,1752
10.7750,1745
10.7778,1739
10.7806,1728
10.7833,1733
10.7861,1724
10.7889,1726
10.7917,1735
10.7944,1747
10.7972,1752
10.8000,1747
10.8028,1737
10.8056,1732
10.8083,1733
10.8111,1736
10.8139,1727
10.8167,1725
10.8194,1737
10.8222,1722
10.8250,1722
10.8278,1740
10.8306,1730
10.8333,1729
10.8361,1729
10.8389,1729
10.8417,1721
10.8444,1721
10.8472,1726
10.8500,1725
10.8528,1732
10.8556,1745
10.8583,1765
10.8611,1775
10.8639,1796
10.8667,1803
10.8694,1812
10.8722,1818
10.8750,1816
10.8778,1828
10.8806,1836
10.8833,1859
10.8861,1885
10.8889,1900
10.8917,1912
10.8944,1925
10.8972,1932
10.9000,1927
10.9028,1920
10.9056,1925
10.9083,1930
10.9111,1930
10.9139,1912
10.9167,1909
10.9194,1869
10.9222,1846
10.9250,1810
10.9278,1785
10.9306,1758
10.9333,1723
10.9361,1706
10.9389,1698
10.9417,1697
10.9444,1699
10.9472,1706
10.9500,1703
10.9528,1703
10.9556,1704
10.9583,1698
10.9611,1705
10.9639,1708
10.9667,1706
10.9694,1696
10.9722,1694
10.9750,1696
10.9778,1684
10.9806,1690
10.9833,1689
10.9861,1688
10.9889,1691
10.9917,1693
10.9944,1699
10.9972,1691
11.0000,1691
11.0028,1684
11.0056,1674
11.0083,1645
11.0111,1603
11.0139,1559
11.0167,1541
11.0194,1547
11.0222,1578
11.0250,1672
11.0278,1840
11.0306,2100
11.0333,2434
11.0361,2794
11.0389,3143
11.0417,3341
11.0444,3309
11.0472,3081
11.0500,2770
11.0528,2459
11.0556,2190
11.0583,1971
11.0611,1797
11.0639,1656
11.0667,1583
11.0694,1567
11.0722,1575
11.0750,1602
11.0778,1624
11.0806,1645
11.0833,1667
11.0861,1690
11.0889,1705
11.0917,1709
11.0944,1713
11.0972,1706
11.1000,1694
11.1028,1685
11.1056,1687
11.1083,1703
11.1111,1720
11.1139,1721
11.1167,1722
11.1194,1717
11.1222,1712
11.1250,1729
11.1278,1734
11.1306,1746
11.1333,1743
11.1361,1739
11.1389,1726
11.1417,1723
11.1444,1722
11.1472,1736
11.1500,1758
11.1528,1765
11.1556,1771
11.1583,1768
11.1611,1751
11.1639,1748
11.1667,1757
11.1694,1774
11.1722,1798
11.1750,1798
11.1778,1798
11.1806,1788
11.1833,1791
11.1861,1806
11.1889,1810
11.1917,1814
11.1944,1822
11.1972,1820
11.2000,1816
11.2028,1807
11.2056,1822
11.2083,1822
11.2111,1844
11.2139,1851
11.2167,1860
11.2194,1866
11.2222,1873
11.2250,1879
11.2278,1879
11.2306,1876
11.2333,1886
11.2361,1865
11.2389,1857
11.2417,1848
11.2444,1846
11.2472,1850
11.2500,1841
11.2528,1835
11.2556,1818
11.2583,1818
11.2611,1804
11.2639,1806
11.2667,1804
11.2694,1808
11.2722,1797
11.2750,1790
11.2778,1780
11.2806,1776
11.2833,1782
11.2861,1788
11.2889,1793
11.2917,1794
11.2944,1784
11.2972,1789
11.3000,1771
11.3028,1769
11.3056,1774
11.3083,1776
11.3111,1776
11.3139,1789
11.3167,1770
11.3194,1774
11.3222,1772
11.3250,1773
11.3278,1773
11.3306,1770
11.3333,1767
11.3361,1760
11.3389,1756
11.3417,1760
11.3444,1747
11.3472,1750
11.3500,1754
11.3528,1759
11.3556,1763
11.3583,1750
11.3611,1752
11.3639,1750
11.3667,1750
11.3694,1751
11.3722,1755
11.3750,1747
11.3778,1740
11.3806,1734
11.3833,1736
11.3861,1729
11.3889,1730
11.3917,1736
11.3944,1736
11.3972,1728
11.4000,1724
11.4028,1710
11.4056,1706
11.4083,1707
11.4111,1704
11.4139,1707
11.4167,1713
11.4194,1716
11.4222,1712
11.4250,1712
11.4278,1719
11.4306,1724
11.4333,1723
11.4361,1717
11.4389,1707
11.4417,1704
11.4444,1705
11.4472,1711
11.4500,1708
11.4528,1698
11.4556,1691
11.4583,1694
11.4611,1693
11.4639,1703
11.4667,1720
11.4694,1735
11.4722,1741
11.4750,1741
11.4778,1745
11.4806,1745
11.4833,1754
11.4861,1762
11.4889,1789
11.4917,1820
11.4944,1843
11.4972,1855
11.5000,1861
11.5028,1857
11.5056,1861
11.5083,1874
11.5111,1877
11.5139,1873
11.5167,1871
11.5194,1869
11.5222,1851
11.5250,1826
11.5278,1788
11.5306,1757
11.5333,1734
11.5361,1704
11.5389,1675
11.5417,1660
11.5444,1636
11.5472,1620
11.5500,1609
11.5528,1601
11.5556,1607
11.5583,1607
11.5611,1608
11.5639,1617
11.5667,1623
11.5694,1629
11.5722,1626
11.5750,1609
11.5778,1593
11.5806,1590
11.5833,1588
11.5861,1590
11.5889,1603
11.5917,1614
11.5944,1614
11.5972,1612
11.6000,1609
11.6028,1617
11.6056,1613
11.6083,1617
11.6111,1618
11.6139,1609
11.6167,1582
11.6194,1537
11.6222,1475
11.6250,1448
11.6278,1456
11.6306,1482
11.6333,1557
11.6361,1707
11.6389,1928
11.6417,2241
11.6444,2594
11.6472,2968
11.6500,3219
11.6528,3222
11.6556,2992
11.6583,2681
11.6611,2381
11.6639,2139
11.6667,1936
11.6694,1778
11.6722,1648
11.6750,1562
11.6778,1506
11.6806,1488
11.6833,1502
11.6861,1516
11.6889,1547
11.6917,1567
11.6944,1595
11.6972,1617
11.7000,1630
11.7028,1620
11.7056,1621
11.7083,1606
11.7111,1620
11.7139,1629
11.7167,1642
11.7194,1647
11.7222,1652
11.7250,1647
11.7278,1631
11.7306,1618
11.7333,1620
11.7361,1635
11.7389,1646
11.7417,1656
11.7444,1661
11.7472,1655
11.7500,1653
11.7528,1656
11.7556,1671
11.7583,1688
11.7611,1697
11.7639,1701
11.7667,1687
11.7694,1690
11.7722,1690
11.7750,1706
11.7778,1729
11.7806,1729
11.7833,1728
11.7861,1719
11.7889,1714
11.7917,1717
11.7944,1721
11.7972,1737
11.8000,1749
11.8028,1753
11.8056,1743
11.8083,1748
11.8111,1757
11.8139,1773
11.8167,1793
11.8194,1798
11.8222,1791
11.8250,1788
11.8278,1782
11.8306,1779
11.8333,1798
11.8361,1814
11.8389,1831
11.8417,1820
11.8444,1815
11.8472,1795
11.8500,1788
11.8528,1771
11.8556,1771
11.8583,1779
11.8611,1775
11.8639,1768
11.8667,1762
11.8694,1760
11.8722,1741
11.8750,1729
11.8778,1721
11.8806,1713
11.8833,1699
11.8861,1694
11.8889,1685
11.8917,1668
11.8944,1671
11.8972,1685
11.9000,1692
11.9028,1698
11.9056,1691
11.9083,1685
11.9111,1682
11.9139,1680
11.9167,1689
11.9194,1692
11.9222,1695
11.9250,1687
11.9278,1689
11.9306,1679
11.9333,1685
11.9361,1685
11.9389,1683
11.9417,1688
11.9444,1689
11.9472,1690
11.9500,1685
11.9528,1675
11.9556,1672
11.9583,1684
11.9611,1689
11.9639,1691
11.9667,1696
11.9694,1690
11.9722,1685
11.9750,1682
11.9778,1684
11.9806,1688
11.9833,1692
11.9861,1681
11.9889,1671
11.9917,1661
11.9944,1664
11.9972,1672
12.0000,1674
12.0028,1662
12.0056,1657
12.0083,1652
12.0111,1657
12.0139,1657
12.0167,1661
12.0194,1669
12.0222,1663
12.0250,1654
12.0278,1657
12.0306,1667
12.0333,1669
12.0361,1684
12.0389,1693
12.0417,1705
12.0444,1704
12.0472,1715
12.0500,1727
12.0528,1729
12.0556,1736
12.0583,1741
12.0611,1761
12.0639,1791
12.0667,1801
12.0694,1822
12.0722,1825
12.0750,1838
12.0778,1847
12.0806,1862
12.0833,1865
12.0861,1853
12.0889,1838
12.0917,1820
12.0944,1812
12.0972,1793
12.1000,1761
12.1028,1726
12.1056,1694
12.1083,1666
12.1111,1638
12.1139,1629
12.1167,1633
12.1194,1637
12.1222,1622
12.1250,1626
12.1278,1611
12.1306,1603
12.1333,1596
12.1361,1597
12.1389,1593
12.1417,1598
12.1444,1603
12.1472,1594
12.1500,1582
12.1528,1577
12.1556,1584
12.1583,1594
12.1611,1583
12.1639,1587
12.1667,1593
12.1694,1603
12.1722,1599
12.1750,1591
12.1778,1593
12.1806,1587
12.1833,1563
12.1861,1532
12.1889,1479
12.1917,1441
12.1944,1426
12.1972,1451
12.2000,1482
12.2028,1569
12.2056,1726
12.2083,1966
12.2111,2292
12.2139,2649
12.2167,2996
12.2194,3174
12.2222,3054
12.2250,2750
12.2278,2437
12.2306,2191
12.2333,2020
12.2361,1882
12.2389,1772
12.2417,1657
12.2444,1577
12.2472,1516
12.2500,1468
12.2528,1458
12.2556,1469
12.2583,1490
12.2611,1522
12.2639,1564
12.2667,1601
12.2694,1612
12.2722,1609
12.2750,1593
12.2778,1582
12.2806,1589
12.2833,1593
12.2861,1618
12.2889,1631
12.2917,1627
12.2944,1620
12.2972,1601
12.3000,1596
12.3028,1596
12.3056,1622
12.3083,1633
12.3111,1624
12.3139,1618
12.3167,1609
12.3194,1601
12.3222,1626
12.3250,1642
12.3278,1652
12.3306,1654
12.3333,1661
12.3361,1662
12.3389,1658
12.3417,1667
12.3444,1683
12.3472,1704
12.3500,1696
12.3528,1698
12.3556,1694
12.3583,1687
12.3611,1698
12.3639,1714
12.3667,1723
12.3694,1732
12.3722,1738
12.3750,1730
12.3778,1739
12.3806,1749
12.3833,1762
12.3861,1772
12.3889,1786
12.3917,1791
12.3944,1796
12.3972,1785
12.4000,1787
12.4028,1807
12.4056,1819
12.4083,1801
12.4111,1791
12.4139,1783
12.4167,1761
12.4194,1754
12.4222,1749
12.4250,1746
12.4278,1750
12.4306,1729
12.4333,1714
12.4361,1697
12.4389,1688
12.4417,1693
12.4444,1707
12.4472,1711
12.4500,1699
12.4528,1691
12.4556,1674
12.4583,1658
12.4611,1663
12.4639,1661
12.4667,1681
12.4694,1691
12.4722,1681
12.4750,1676
12.4778,1669
12.4806,1662
12.4833,1666
12.4861,1676
12.4889,1689
12.4917,1683
12.4944,1677
12.4972,1669
12.5000,1673
12.5028,1685
12.5056,1694
12.5083,1688
12.5111,1688
12.5139,1682
12.5167,1669
12.5194,1657
12.5222,1654
12.5250,1665
12.5278,1673
12.5306,1664
12.5333,1660
12.5361,1645
12.5389,1636
12.5417,1631
12.5444,1632
12.5472,1634
12.5500,1640
12.5528,1636
12.5556,1643
12.5583,1656
12.5611,1658
12.5639,1671
12.5667,1689
12.5694,1691
12.5722,1703
12.5750,1700
12.5778,1696
12.5806,1693
12.5833,1710
12.5861,1723
12.5889,1755
12.5917,1767
12.5944,1784
12.5972,1799
12.6000,1800
12.6028,1821
12.6056,1822
12.6083,1820
12.6111,1804
12.6139,1777
12.6167,1752
12.6194,1730
12.6222,1707
12.6250,1687
12.6278,1665
12.6306,1648
12.6333,1631
12.6361,1598
12.6389,1581
12.6417,1571
12.6444,1571
12.6472,1563
12.6500,1552
12.6528,1547
12.6556,1536
12.6583,1543
12.6611,1549
12.6639,1553
12.6667,1564
12.6694,1561
12.6722,1551
12.6750,1550
12.6778,1555
12.6806,1548
12.6833,1547
12.6861,1560
12.6889,1571
12.6917,1578
12.6944,1581
12.6972,1584
12.7000,1586
12.7028,1581
12.7056,1551
12.7083,1521
12.7111,1465
12.7139,1421
12.7167,1413
12.7194,1440
12.7222,1482
12.7250,1559
12.7278,1696
12.7306,1929
12.7333,2229
12.7361,2587
12.7389,2925
12.7417,3135
12.7444,3061
12.7472,2766
12.7500,2423
12.7528,2166
12.7556,1986
12.7583,1876
12.7611,1774
12.7639,1682
12.7667,1597
12.7694,1535
12.7722,1489
12.7750,1467
12.7778,1451
12.7806,1461
12.7833,1501
12.7861,1531
12.7889,1572
12.7917,1589
12.7944,1590
12.7972,1576
12.8000,1553
12.8028,1549
12.8056,1563
12.8083,1591
12.8111,1611
12.8139,1610
12.8167,1601
12.8194,1587
12.8222,1584
12.8250,1586
12.8278,1607
12.8306,1637
12.8333,1645
12.8361,1653
12.8389,1633
12.8417,1623
12.8444,1621
12.8472,1639
12.8500,1657
12.8528,1658
12.8556,1649
12.8583,1633
12.8611,1634
12.8639,1644
12.8667,1676
12.8694,1690
12.8722,1679
12.8750,1674
12.8778,1653
12.8806,1654
12.8833,1659
12.8861,1673
12.8889,1700
12.8917,1718
12.8944,1712
12.8972,1711
12.9000,1708
12.9028,1709
12.9056,1725
12.9083,1743
12.9111,1755
12.9139,1763
12.9167,1762
12.9194,1751
12.9222,1756
12.9250,1776
12.9278,1790
12.9306,1777
12.9333,1780
12.9361,1756
12.9389,1747
12.9417,1745
12.9444,1742
12.9472,1740
12.9500,1741
12.9528,1731
12.9556,1713
12.9583,1691
12.9611,1675
12.9639,1677
12.9667,1672
12.9694,1665
12.9722,1667
12.9750,1667
12.9778,1669
12.9806,1673
12.9833,1678
12.9861,1683
12.9889,1680
12.9917,1672
12.9944,1663
12.9972,1657
13.0000,1648
13.0028,1652
13.0056,1669
13.0083,1683
13.0111,1698
13.0139,1694
13.0167,1693
13.0194,1693
13.0222,1688
13.0250,1684
13.0278,1685
13.0306,1681
13.0333,1673
13.0361,1667
13.0389,1667
13.0417,1665
13.0444,1661
13.0472,1660
13.0500,1676
13.0528,1694
13.0556,1685
13.0583,1683
13.0611,1677
13.0639,1689
13.0667,1701
13.0694,1711
13.0722,1725
13.0750,1711
13.0778,1706
13.0806,1704
13.0833,1716
13.0861,1736
13.0889,1746
13.0917,1768
13.0944,1769
13.0972,1769
13.1000,1758
13.1028,1760
13.1056,1774
13.1083,1797
13.1111,1815
13.1139,1834
13.1167,1836
13.1194,1827
13.1222,1802
13.1250,1789
13.1278,1758
13.1306,1722
13.1333,1696
13.1361,1659
13.1389,1625
13.1417,1602
13.1444,1587
13.1472,1591
13.1500,1595
13.1528,1600
13.1556,1584
13.1583,1578
13.1611,1569
13.1639,1570
13.1667,1564
13.1694,1562
13.1722,1561
13.1750,1551
13.1778,1547
13.1806,1544
13.1833,1536
13.1861,1542
13.1889,1548
13.1917,1547
13.1944,1549
13.1972,1544
13.2000,1535
13.2028,1541
13.2056,1538
13.2083,1544
13.2111,1541
13.2139,1525
13.2167,1480
13.2194,1450
13.2222,1434
13.2250,1462
13.2278,1507
13.2306,1596
13.2333,1732
13.2361,1931
13.2389,2209
13.2417,2534
13.2444,2873
13.2472,3090
13.2500,3034
13.2528,2733
13.2556,2385
13.2583,2117
13.2611,1937
13.2639,1825
13.2667,1722
13.2694,1622
13.2722,1537
13.2750,1475
13.2778,1436
13.2806,1417
13.2833,1419
13.2861,1417
13.2889,1450
13.2917,1485
13.2944,1533
13.2972,1566
13.3000,1561
13.3028,1535
13.3056,1520
13.3083,1523
13.3111,1542
13.3139,1561
13.3167,1582
13.3194,1585
13.3222,1576
13.3250,1564
13.3278,1558
13.3306,1564
13.3333,1582
13.3361,1586
13.3389,1587
13.3417,1589
13.3444,1580
13.3472,1588
13.3500,1595
13.3528,1614
13.3556,1631
13.3583,1613
13.3611,1609
13.3639,1600
13.3667,1604
13.3694,1613
13.3722,1623
13.3750,1636
13.3778,1641
13.3806,1640
13.3833,1629
13.3861,1635
13.3889,1646
13.3917,1671
13.3944,1689
13.3972,1703
13.4000,1709
13.4028,1706
13.4056,1701
13.4083,1691
13.4111,1709
13.4139,1729
13.4167,1754
13.4194,1755
13.4222,1746
13.4250,1730
13.4278,1736
13.4306,1741
13.4333,1760
13.4361,1775
13.4389,1757
13.4417,1748
13.4444,1746
13.4472,1736
13.4500,1739
13.4528,1734
13.4556,1723
13.4583,1715
13.4611,1688
13.4639,1678
13.4667,1672
13.4694,1665
13.4722,1665
13.4750,1677
13.4778,1682
13.4806,1663
13.4833,1650
13.4861,1635
13.4889,1628
13.4917,1624
13.4944,1641
13.4972,1663
13.5000,1676
13.5028,1665
13.5056,1666
13.5083,1669
13.5111,1675
13.5139,1675
13.5167,1685
13.5194,1691
13.5222,1680
13.5250,1668
13.5278,1672
13.5306,1685
13.5333,1679
13.5361,1682
13.5389,1683
13.5417,1663
13.5444,1654
13.5472,1646
13.5500,1658
13.5528,1670
13.5556,1671
13.5583,1674
13.5611,1673
13.5639,1675
13.5667,1677
13.5694,1684
13.5722,1705
13.5750,1713
13.5778,1710
13.5806,1713
13.5833,1711
13.5861,1708
13.5889,1721
13.5917,1740
13.5944,1772
13.5972,1781
13.6000,1790
13.6028,1798
13.6056,1803
13.6083,1805
13.6111,1802
13.6139,1804
13.6167,1797
13.6194,1788
13.6222,1781
13.6250,1757
13.6278,1734
13.6306,1711
13.6333,1687
13.6361,1655
13.6389,1623
13.6417,1594
13.6444,1566
13.6472,1559
13.6500,1561
13.6528,1573
13.6556,1577
13.6583,1575
13.6611,1558
13.6639,1559
13.6667,1541
13.6694,1545
13.6722,1552
13.6750,1559
13.6778,1568
13.6806,1566
13.6833,1558
13.6861,1560
13.6889,1570
13.6917,1575
13.6944,1581
13.6972,1580
13.7000,1583
13.7028,1575
13.7056,1578
13.7083,1567
13.7111,1538
13.7139,1512
13.7167,1464
13.7194,1439
13.7222,1440
13.7250,1465
13.7278,1522
13.7306,1641
13.7333,1834
13.7361,2100
13.7389,2412
13.7417,2778
13.7444,3068
13.7472,3173
13.7500,2966
13.7528,2614
13.7556,2290
13.7583,2058
13.7611,1901
13.7639,1769
13.7667,1669
13.7694,1568
13.7722,1500
13.7750,1462
13.7778,1442
13.7806,1440
13.7833,1450
13.7861,1475
13.7889,1506
13.7917,1552
13.7944,1581
13.7972,1604
13.8000,1600
13.8028,1577
13.8056,1561
13.8083,1566
13.8111,1576
13.8139,1586
13.8167,1592
13.8194,1590
13.8222,1568
13.8250,1560
13.8278,1574
13.8306,1594
13.8333,1622
13.8361,1631
13.8389,1633
13.8417,1633
13.8444,1623
13.8472,1616
13.8500,1617
13.8528,1634
13.8556,1656
13.8583,1667
13.8611,1658
13.8639,1646
13.8667,1638
13.8694,1638
13.8722,1656
13.8750,1665
13.8778,1678
13.8806,1681
13.8833,1674
13.8861,1659
13.8889,1668
13.8917,1692
13.8944,1707
13.8972,1717
13.9000,1722
13.9028,1727
13.9056,1717
13.9083,1710
13.9111,1720
13.9139,1744
13.9167,1753
13.9194,1761
13.9222,1753
13.9250,1749
13.9278,1755
13.9306,1765
13.9333,1785
13.9361,1758
13.9389,1753
13.9417,1743
13.9444,1726
13.9472,1718
13.9500,1717
13.9528,1719
13.9556,1718
13.9583,1702
13.9611,1685
13.9639,1682
13.9667,1672
13.9694,1677
13.9722,1675
13.9750,1682
13.9778,1675
13.9806,1668
13.9833,1658
13.9861,1642
13.9889,1634
13.9917,1644
13.9944,1659
13.9972,1668
14.0000,1687
14.0028,1682
14.0056,1655
14.0083,1646
14.0111,1643
14.0139,1639
14.0167,1641
14.0194,1641
14.0222,1633
14.0250,1631
14.0278,1647
14.0306,1656
14.0333,1660
14.0361,1657
14.0389,1642
14.0417,1635
14.0444,1631
14.0472,1646
14.0500,1645
14.0528,1653
14.0556,1647
14.0583,1645
14.0611,1635
14.0639,1613
14.0667,1601
14.0694,1596
14.0722,1606
14.0750,1615
14.0778,1624
14.0806,1619
14.0833,1620
14.0861,1604
14.0889,1608
14.0917,1620
14.0944,1624
14.0972,1636
14.1000,1641
14.1028,1646
14.1056,1641
14.1083,1657
14.1111,1686
14.1139,1703
14.1167,1726
14.1194,1742
14.1222,1745
14.1250,1733
14.1278,1740
14.1306,1747
14.1333,1757
14.1361,1754
14.1389,1742
14.1417,1717
14.1444,1695
14.1472,1676
14.1500,1656
14.1528,1639
14.1556,1608
14.1583,1580
14.1611,1547
14.1639,1513
14.1667,1491
14.1694,1487
14.1722,1490
14.1750,1502
14.1778,1495
14.1806,1483
14.1833,1461
14.1861,1447
14.1889,1439
14.1917,1428
14.1944,1442
14.1972,1442
14.2000,1435
14.2028,1430
14.2056,1427
14.2083,1416
14.2111,1422
14.2139,1430
14.2167,1437
14.2194,1428
14.2222,1437
14.2250,1435
14.2278,1428
14.2306,1438
14.2333,1439
14.2361,1411
14.2389,1359
14.2417,1294
14.2444,1267
14.2472,1278
14.2500,1324
14.2528,1416
14.2556,1580
14.2583,1821
14.2611,2131
14.2639,2467
14.2667,2807
14.2694,3042
14.2722,3027
14.2750,2761
14.2778,2410
14.2806,2088
14.2833,1835
14.2861,1630
14.2889,1476
14.2917,1352
14.2944,1264
14.2972,1240
14.3000,1241
14.3028,1266
14.3056,1281
14.3083,1300
14.3111,1332
14.3139,1352
14.3167,1380
14.3194,1390
14.3222,1381
14.3250,1368
14.3278,1350
14.3306,1340
14.3333,1352
14.3361,1365
14.3389,1376
14.3417,1383
14.3444,1370
14.3472,1367
14.3500,1361
14.3528,1370
14.3556,1371
14.3583,1394
14.3611,1394
14.3639,1385
14.3667,1370
14.3694,1362
14.3722,1360
14.3750,1367
14.3778,1384
14.3806,1390
14.3833,1388
14.3861,1387
14.3889,1383
14.3917,1392
14.3944,1398
14.3972,1413
14.4000,1410
14.4028,1408
14.4056,1409
14.4083,1405
14.4111,1405
14.4139,1410
14.4167,1423
14.4194,1437
14.4222,1439
14.4250,1439
14.4278,1445
14.4306,1448
14.4333,1465
14.4361,1475
14.4389,1484
14.4417,1487
14.4444,1487
14.4472,1485
14.4500,1490
14.4528,1502
14.4556,1513
14.4583,1488
14.4611,1490
14.4639,1475
14.4667,1460
14.4694,1440
14.4722,1441
14.4750,1435
14.4778,1433
14.4806,1429
14.4833,1412
14.4861,1394
14.4889,1375
14.4917,1372
14.4944,1365
14.4972,1368
14.5000,1377
14.5028,1370
14.5056,1352
14.5083,1334
14.5111,1330
14.5139,1335
14.5167,1347
14.5194,1363
14.5222,1351
14.5250,1360
14.5278,1349
14.5306,1349
14.5333,1353
14.5361,1353
14.5389,1354
14.5417,1363
14.5444,1358
14.5472,1366
14.5500,1364
14.5528,1368
14.5556,1373
14.5583,1364
14.5611,1352
14.5639,1340
14.5667,1344
14.5694,1346
14.5722,1342
14.5750,1362
14.5778,1359
14.5806,1358
14.5833,1355
14.5861,1355
14.5889,1351
14.5917,1347
14.5944,1344
14.5972,1346
14.6000,1347
14.6028,1339
14.6056,1336
14.6083,1328
14.6111,1324
14.6139,1328
14.6167,1328
14.6194,1338
14.6222,1348
14.6250,1350
14.6278,1332
14.6306,1322
14.6333,1330
14.6361,1330
14.6389,1327
14.6417,1319
14.6444,1321
14.6472,1328
14.6500,1340
14.6528,1355
14.6556,1377
14.6583,1405
14.6611,1406
14.6639,1406
14.6667,1409
14.6694,1409
14.6722,1423
14.6750,1448
14.6778,1464
14.6806,1494
14.6833,1507
14.6861,1509
14.6889,1514
14.6917,1523
14.6944,1526
14.6972,1544
14.7000,1552
14.7028,1547
14.7056,1544
14.7083,1523
14.7111,1490
14.7139,1454
14.7167,1423
14.7194,1396
14.7222,1376
14.7250,1353
14.7278,1331
14.7306,1336
14.7333,1338
14.7361,1337
14.7389,1335
14.7417,1339
14.7444,1335
14.7472,1319
14.7500,1295
14.7528,1285
14.7556,1286
14.7583,1290
14.7611,1299
14.7639,1304
14.7667,1306
14.7694,1307
14.7722,1315
14.7750,1321
14.7778,1332
14.7806,1333
14.7833,1341
14.7861,1338
14.7889,1333
14.7917,1331
14.7944,1336
14.7972,1333
14.8000,1317
14.8028,1286
14.8056,1237
14.8083,1189
14.8111,1171
14.8139,1192
14.8167,1251
14.8194,1366
14.8222,1567
14.8250,1832
14.8278,2156
14.8306,2498
14.8333,2839
14.8361,3027
14.8389,2960
14.8417,2700
14.8444,2374
14.8472,2066
14.8500,1796
14.8528,1595
14.8556,1434
14.8583,1330
14.8611,1277
14.8639,1267
14.8667,1273
14.8694,1291
14.8722,1318
14.8750,1349
14.8778,1378
14.8806,1407
14.8833,1431
14.8861,1425
14.8889,1414
14.8917,1406
14.8944,1402
14.8972,1401
14.9000,1412
14.9028,1429
14.9056,1441
14.9083,1457
14.9111,1461
14.9139,1456
14.9167,1457
14.9194,1470
14.9222,1473
14.9250,1495
14.9278,1503
14.9306,1502
14.9333,1506
14.9361,1504
14.9389,1519
14.9417,1531
14.9444,1546
14.9472,1543
14.9500,1535
14.9528,1522
14.9556,1521
14.9583,1527
14.9611,1545
14.9639,1561
14.9667,1577
14.9694,1577
14.9722,1588
14.9750,1589
14.9778,1599
14.9806,1605
14.9833,1612
14.9861,1611
14.9889,1627
14.9917,1635
14.9944,1650
14.9972,1668
15.0000,1690
15.0028,1698
15.0056,1715
15.0083,1725
15.0111,1734
15.0139,1726
15.0167,1732
15.0194,1740
15.0222,1749
15.0250,1841
15.0278,1836
15.0306,1824
15.0333,1820
15.0361,1805
15.0389,1796
15.0417,1787
15.0444,1781
15.0472,1770
15.0500,1765
15.0528,1757
15.0556,1755
15.0583,1755
15.0611,1761
15.0639,1761
15.0667,1748
15.0694,1757
15.0722,1741
15.0750,1751
15.0778,1761
15.0806,1773
15.0833,1798
15.0861,1783
15.0889,1773
15.0917,1752
15.0944,1752
15.0972,1752
15.1000,1760
15.1028,1778
15.1056,1786
15.1083,1784
15.1111,1781
15.1139,1772
15.1167,1774
15.1194,1781
15.1222,1786
15.1250,1803
15.1278,1798
15.1306,1799
15.1333,1810
15.1361,1811
15.1389,1818
15.1417,1808
15.1444,1816
15.1472,1806
15.1500,1804
15.1528,1793
15.1556,1784
15.1583,1780
15.1611,1794
15.1639,1801
15.1667,1804
15.1694,1808
15.1722,1804
15.1750,1806
15.1778,1806
15.1806,1808
15.1833,1806
15.1861,1811
15.1889,1805
15.1917,1805
15.1944,1798
15.1972,1807
15.2000,1803
15.2028,1800
15.2056,1804
15.2083,1803
15.2111,1803
15.2139,1815
15.2167,1817
15.2194,1827
15.2222,1840
15.2250,1842
15.2278,1839
15.2306,1839
15.2333,1831
15.2361,1834
15.2389,1847
15.2417,1865
15.2444,1886
15.2472,1905
15.2500,1929
15.2528,1935
15.2556,1939
15.2583,1946
15.2611,1945
15.2639,1975
15.2667,1994
15.2694,2006
15.2722,2028
15.2750,2035
15.2778,2048
15.2806,2058
15.2833,2072
15.2861,2068
15.2889,2049
15.2917,2042
15.2944,2030
15.2972,2021
15.3000,2020
15.3028,1999
15.3056,1981
15.3083,1951
15.3111,1920
15.3139,1885
15.3167,1851
15.3194,1841
15.3222,1832
15.3250,1836
15.3278,1834
15.3306,1830
15.3333,1822
15.3361,1818
15.3389,1810
15.3417,1815
15.3444,1804
15.3472,1801
15.3500,1809
15.3528,1814
15.3556,1821
15.3583,1832
15.3611,1837
15.3639,1838
15.3667,1833
15.3694,1834
15.3722,1830
15.3750,1832
15.3778,1832
15.3806,1825
15.3833,1821
15.3861,1831
15.3889,1819
15.3917,1808
15.3944,1773
15.3972,1730
15.4000,1688
15.4028,1670
15.4056,1684
15.4083,1738
15.4111,1845
15.4139,2046
15.4167,2337
15.4194,2688
15.4222,3061
15.4250,3344
15.4278,3351
15.4306,3305
15.4333,3097
15.4361,2792
15.4389,2495
15.4417,2231
15.4444,2025
15.4472,1875
15.4500,1768
15.4528,1727
15.4556,1723
15.4583,1757
15.4611,1779
15.4639,1799
15.4667,1813
15.4694,1838
15.4722,1843
15.4750,1848
15.4778,1849
15.4806,1847
15.4833,1838
15.4861,1840
15.4889,1845
15.4917,1854
15.4944,1865
15.4972,1872
15.5000,1865
15.5028,1859
15.5056,1854
15.5083,1860
15.5111,1865
15.5139,1879
15.5167,1887
15.5194,1884
15.5222,1879
15.5250,1885
15.5278,1880
15.5306,1888
15.5333,1895
15.5361,1899
15.5389,1914
15.5417,1914
15.5444,1919
15.5472,1916
15.5500,1916
15.5528,1918
15.5556,1927
15.5583,1931
15.5611,1924
15.5639,1926
15.5667,1928
15.5694,1936
15.5722,1942
15.5750,1951
15.5778,1955
15.5806,1961
15.5833,1966
15.5861,1969
15.5889,1977
15.5917,1993
15.5944,1996
15.5972,2002
15.6000,1998
15.6028,1994
15.6056,1997
15.6083,2005
15.6111,2033
15.6139,2049
15.6167,2036
15.6194,2031
15.6222,2023
15.6250,2011
15.6278,1996
15.6306,1991
15.6333,1981
15.6361,1967
15.6389,1958
15.6417,1947
15.6444,1934
15.6472,1917
15.6500,1917
15.6528,1914
15.6556,1915
15.6583,1920
15.6611,1911
15.6639,1906
15.6667,1898
15.6694,1897
15.6722,1908
15.6750,1909
15.6778,1903
15.6806,1901
15.6833,1907
15.6861,1907
15.6889,1901
15.6917,1907
15.6944,1903
15.6972,1902
15.7000,1909
15.7028,1905
15.7056,1900
15.7083,1913
15.7111,1912
15.7139,1909
15.7167,1904
15.7194,1897
15.7222,1890
15.7250,1886
15.7278,1895
15.7306,1897
15.7333,1901
15.7361,1910
15.7389,1911
15.7417,1901
15.7444,1890
15.7472,1877
15.7500,1866
15.7528,1870
15.7556,1873
15.7583,1868
15.7611,1862
15.7639,1854
15.7667,1851
15.7694,1855
15.7722,1849
15.7750,1846
15.7778,1849
15.7806,1851
15.7833,1851
15.7861,1850
15.7889,1846
15.7917,1839
15.7944,1836
15.7972,1854
15.8000,1864
15.8028,1878
15.8056,1898
15.8083,1904
15.8111,1911
15.8139,1926
15.8167,1922
15.8194,1919
15.8222,1934
15.8250,1951
15.8278,1960
15.8306,1986
15.8333,2014
15.8361,2029
15.8389,2021
15.8417,2025
15.8444,2015
15.8472,2014
15.8500,2012
15.8528,2003
15.8556,1994
15.8583,1978
15.8611,1957
15.8639,1935
15.8667,1915
15.8694,1887
15.8722,1862
15.8750,1833
15.8778,1802
15.8806,1777
15.8833,1770
15.8861,1756
15.8889,1765
15.8917,1771
15.8944,1770
15.8972,1770
15.9000,1753
15.9028,1747
15.9056,1741
15.9083,1743
15.9111,1734
15.9139,1736
15.9167,1734
15.9194,1738
15.9222,1736
15.9250,1743
15.9278,1745
15.9306,1752
15.9333,1752
15.9361,1760
15.9389,1763
15.9417,1770
15.9444,1768
15.9472,1749
15.9500,1724
15.9528,1691
15.9556,1655
15.9583,1620
15.9611,1603
15.9639,1624
15.9667,1660
15.9694,1746
15.9722,1905
15.9750,2149
15.9778,2479
15.9806,2838
15.9833,3166
15.9861,3321
15.9889,3169
15.9917,2846
15.9944,2527
15.9972,2299
16.0000,2134
16.0028,2021
16.0056,1908
16.0083,1810
16.0111,1734
16.0139,1684
16.0167,1654
16.0194,1624
16.0222,1623
16.0250,1630
16.0278,1658
16.0306,1711
16.0333,1751
16.0361,1777
16.0389,1774
16.0417,1756
16.0444,1731
16.0472,1733
16.0500,1742
16.0528,1770
16.0556,1790
16.0583,1795
16.0611,1781
16.0639,1761
16.0667,1749
16.0694,1761
16.0722,1779
16.0750,1783
16.0778,1785
16.0806,1779
16.0833,1769
16.0861,1764
16.0889,1773
16.0917,1789
16.0944,1814
16.0972,1817
16.1000,1815
16.1028,1808
16.1056,1803
16.1083,1811
16.1111,1823
16.1139,1844
16.1167,1853
16.1194,1849
16.1222,1825
16.1250,1815
16.1278,1817
16.1306,1831
16.1333,1847
16.1361,1857
16.1389,1856
16.1417,1846
16.1444,1851
16.1472,1860
16.1500,1894
16.1528,1908
16.1556,1921
16.1583,1916
16.1611,1899
16.1639,1890
16.1667,1897
16.1694,1922
16.1722,1951
16.1750,1901
16.1778,1910
16.1806,1905
16.1833,1894
16.1861,1880
16.1889,1870
16.1917,1869
16.1944,1868
16.1972,1868
16.2000,1857
16.2028,1831
16.2056,1823
16.2083,1812
16.2111,1821
16.2139,1823
16.2167,1817
16.2194,1800
16.2222,1787
16.2250,1775
16.2278,1781
16.2306,1789
16.2333,1799
16.2361,1809
16.2389,1818
16.2417,1813
16.2444,1799
16.2472,1807
16.2500,1804
16.2528,1817
16.2556,1815
16.2583,1821
16.2611,1810
16.2639,1808
16.2667,1798
16.2694,1803
16.2722,1804
16.2750,1809
16.2778,1815
16.2806,1810
16.2833,1810
16.2861,1806
16.2889,1801
16.2917,1805
16.2944,1811
16.2972,1809
16.3000,1801
16.3028,1797
16.3056,1794
16.3083,1782
16.3111,1798
16.3139,1796
16.3167,1790
16.3194,1784
16.3222,1780
16.3250,1759
16.3278,1757
16.3306,1761
16.3333,1770
16.3361,1787
16.3389,1791
16.3417,1789
16.3444,1783
16.3472,1787
16.3500,1799
16.3528,1816
16.3556,1837
16.3583,1833
16.3611,1839
16.3639,1840
16.3667,1866
16.3694,1878
16.3722,1909
16.3750,1913
16.3778,1926
16.3806,1927
16.3833,1930
16.3861,1922
16.3889,1925
16.3917,1934
16.3944,1935
16.3972,1924
16.4000,1892
16.4028,1847
16.4056,1817
16.4083,1772
16.4111,1749
16.4139,1720
16.4167,1691
16.4194,1679
16.4222,1671
16.4250,1664
16.4278,1668
16.4306,1656
16.4333,1662
16.4361,1663
16.4389,1654
16.4417,1644
16.4444,1616
16.4472,1613
16.4500,1620
16.4528,1633
16.4556,1644
16.4583,1651
16.4611,1652
16.4639,1655
16.4667,1648
16.4694,1647
16.4722,1643
16.4750,1638
16.4778,1644
16.4806,1657
16.4833,1652
16.4861,1662
16.4889,1644
16.4917,1611
16.4944,1552
16.4972,1520
16.5000,1519
16.5028,1552
16.5056,1604
16.5083,1718
16.5111,1898
16.5139,2173
16.5167,2507
16.5194,2859
16.5222,3152
16.5250,3193
16.5278,2958
16.5306,2608
16.5333,2317
16.5361,2114
16.5389,1993
16.5417,1885
16.5444,1792
16.5472,1698
16.5500,1628
16.5528,1579
16.5556,1542
16.5583,1517
16.5611,1525
16.5639,1539
16.5667,1576
16.5694,1622
16.5722,1648
16.5750,1662
16.5778,1653
16.5806,1644
16.5833,1632
16.5861,1649
16.5889,1667
16.5917,1696
16.5944,1700
16.5972,1705
16.6000,1687
16.6028,1677
16.6056,1672
16.6083,1686
16.6111,1708
16.6139,1723
16.6167,1718
16.6194,1702
16.6222,1697
16.6250,1702
16.6278,1719
16.6306,1739
16.6333,1753
16.6361,1746
16.6389,1726
16.6417,1707
16.6444,1709
16.6472,1727
16.6500,1751
16.6528,1764
16.6556,1767
16.6583,1751
16.6611,1725
16.6639,1724
16.6667,1743
16.6694,1771
16.6722,1793
16.6750,1807
16.6778,1801
16.6806,1788
16.6833,1777
16.6861,1776
16.6889,1780
16.6917,1796
16.6944,1814
16.6972,1828
16.7000,1838
16.7028,1831
16.7056,1838
16.7083,1851
16.7111,1852
16.7139,1828
16.7167,1824
16.7194,1799
16.7222,1769
16.7250,1769
16.7278,1770
16.7306,1781
16.7333,1787
16.7361,1775
16.7389,1759
16.7417,1740
16.7444,1731
16.7472,1716
16.7500,1706
16.7528,1694
16.7556,1690
16.7583,1684
16.7611,1679
16.7639,1675
16.7667,1688
16.7694,1703
16.7722,1706
16.7750,1720
16.7778,1700
16.7806,1686
16.7833,1679
16.7861,1678
16.7889,1683
16.7917,1704
16.7944,1702
16.7972,1713
16.8000,1706
16.8028,1699
16.8056,1699
16.8083,1694
16.8111,1699
16.8139,1691
16.8167,1684
16.8194,1668
16.8222,1662
16.8250,1663
16.8278,1673
16.8306,1678
16.8333,1685
16.8361,1694
16.8389,1680
16.8417,1675
16.8444,1670
16.8472,1663
16.8500,1657
16.8528,1656
16.8556,1657
16.8583,1644
16.8611,1660
16.8639,1667
16.8667,1685
16.8694,1700
16.8722,1719
16.8750,1737
16.8778,1743
16.8806,1733
16.8833,1741
16.8861,1728
16.8889,1738
16.8917,1753
16.8944,1774
16.8972,1787
16.9000,1791
16.9028,1798
16.9056,1805
16.9083,1818
16.9111,1840
16.9139,1849
16.9167,1848
16.9194,1833
16.9222,1807
16.9250,1780
16.9278,1748
16.9306,1719
16.9333,1691
16.9361,1662
16.9389,1641
16.9417,1608
16.9444,1602
16.9472,1597
16.9500,1591
16.9528,1591
16.9556,1589
16.9583,1590
16.9611,1575
16.9639,1565
16.9667,1568
16.9694,1571
16.9722,1572
16.9750,1565
16.9778,1558
16.9806,1560
16.9833,1558
16.9861,1551
16.9889,1565
16.9917,1573
16.9944,1571
16.9972,1569
17.0000,1574
17.0028,1563
17.0056,1574
17.0083,1581
17.0111,1574
17.0139,1557
17.0167,1530
17.0194,1480
17.0222,1447
17.0250,1443
17.0278,1478
17.0306,1544
17.0333,1646
17.0361,1806
17.0389,2049
17.0417,2356
17.0444,2685
17.0472,2994
17.0500,3104
17.0528,2929
17.0556,2596
17.0583,2295
17.0611,2080
17.0639,1939
17.0667,1822
17.0694,1723
17.0722,1619
17.0750,1528
17.0778,1473
17.0806,1432
17.0833,1415
17.0861,1430
17.0889,1463
17.0917,1503
17.0944,1544
17.0972,1575
17.1000,1587
17.1028,1583
17.1056,1568
17.1083,1557
17.1111,1569
17.1139,1602
17.1167,1601
17.1194,1611
17.1222,1604
17.1250,1591
17.1278,1573
17.1306,1583
17.1333,1606
17.1361,1626
17.1389,1623
17.1417,1623
17.1444,1616
17.1472,1619
17.1500,1629
17.1528,1635
17.1556,1644
17.1583,1653
17.1611,1653
17.1639,1649
17.1667,1648
17.1694,1639
17.1722,1663
17.1750,1684
17.1778,1692
17.1806,1705
17.1833,1686
17.1861,1679
17.1889,1682
17.1917,1694
17.1944,1716
17.1972,1723
17.2000,1734
17.2028,1735
17.2056,1729
17.2083,1716
17.2111,1722
17.2139,1733
17.2167,1751
17.2194,1765
17.2222,1766
17.2250,1771
17.2278,1769
17.2306,1776
17.2333,1789
17.2361,1808
17.2389,1778
17.2417,1773
17.2444,1763
17.2472,1748
17.2500,1728
17.2528,1717
17.2556,1720
17.2583,1725
17.2611,1728
17.2639,1703
17.2667,1688
17.2694,1668
17.2722,1663
17.2750,1676
17.2778,1670
17.2806,1662
17.2833,1646
17.2861,1642
17.2889,1630
17.2917,1633
17.2944,1645
17.2972,1651
17.3000,1644
17.3028,1645
17.3056,1632
17.3083,1620
17.3111,1620
17.3139,1633
17.3167,1636
17.3194,1646
17.3222,1643
17.3250,1628
17.3278,1635
17.3306,1642
17.3333,1650
17.3361,1666
17.3389,1674
17.3417,1659
17.3444,1656
17.3472,1646
17.3500,1634
17.3528,1643
17.3556,1646
17.3583,1651
17.3611,1647
17.3639,1633
17.3667,1621
17.3694,1620
17.3722,1630
17.3750,1634
17.3778,1642
17.3806,1643
17.3833,1626
17.3861,1613
17.3889,1603
17.3917,1603
17.3944,1610
17.3972,1608
17.4000,1619
17.4028,1620
17.4056,1611
17.4083,1608
17.4111,1606
17.4139,1595
17.4167,1602
17.4194,1613
17.4222,1621
17.4250,1633
17.4278,1648
17.4306,1654
17.4333,1664
17.4361,1666
17.4389,1673
17.4417,1672
17.4444,1678
17.4472,1678
17.4500,1701
17.4528,1725
17.4556,1750
17.4583,1778
17.4611,1789
17.4639,1797
17.4667,1791
17.4694,1790
17.4722,1797
17.4750,1791
17.4778,1793
17.4806,1786
17.4833,1759
17.4861,1729
17.4889,1698
17.4917,1661
17.4944,1626
17.4972,1607
17.5000,1579
17.5028,1578
17.5056,1566
17.5083,1561
17.5111,1553
17.5139,1549
17.5167,1548
17.5194,1543
17.5222,1532
17.5250,1535
17.5278,1532
17.5306,1528
17.5333,1541
17.5361,1538
17.5389,1538
17.5417,1513
17.5444,1509
17.5472,1508
17.5500,1511
17.5528,1525
17.5556,1525
17.5583,1525
17.5611,1531
17.5639,1531
17.5667,1522
17.5694,1520
17.5722,1511
17.5750,1491
17.5778,1459
17.5806,1412
17.5833,1392
17.5861,1400
17.5889,1432
17.5917,1511
17.5944,1664
17.5972,1893
17.6000,2201
17.6028,2554
17.6056,2890
17.6083,3125
17.6111,3088
17.6139,2788
17.6167,2441
17.6194,2153
17.6222,1940
17.6250,1790
17.6278,1667
17.6306,1562
17.6333,1472
17.6361,1427
17.6389,1403
17.6417,1396
17.6444,1403
17.6472,1407
17.6500,1432
17.6528,1473
17.6556,1514
17.6583,1530
17.6611,1529
17.6639,1504
17.6667,1489
17.6694,1488
17.6722,1501
17.6750,1522
17.6778,1552
17.6806,1564
17.6833,1554
17.6861,1536
17.6889,1522
17.6917,1535
17.6944,1543
17.6972,1558
17.7000,1563
17.7028,1562
17.7056,1557
17.7083,1541
17.7111,1549
17.7139,1566
17.7167,1588
17.7194,1589
17.7222,1587
17.7250,1581
17.7278,1582
17.7306,1589
17.7333,1606
17.7361,1621
17.7389,1629
17.7417,1616
17.7444,1599
17.7472,1594
17.7500,1597
17.7528,1605
17.7556,1622
17.7583,1631
17.7611,1643
17.7639,1636
17.7667,1636
17.7694,1638
17.7722,1647
17.7750,1665
17.7778,1688
17.7806,1702
17.7833,1689
17.7861,1689
17.7889,1685
17.7917,1709
17.7944,1721
17.7972,1750
17.8000,1727
17.8028,1712
17.8056,1691
17.8083,1669
17.8111,1658
17.8139,1658
17.8167,1663
17.8194,1664
17.8222,1646
17.8250,1631
17.8278,1620
17.8306,1622
17.8333,1626
17.8361,1625
17.8389,1622
17.8417,1608
17.8444,1591
17.8472,1571
17.8500,1574
17.8528,1579
17.8556,1585
17.8583,1593
17.8611,1598
17.8639,1587
17.8667,1589
17.8694,1587
17.8722,1580
17.8750,1585
17.8778,1596
17.8806,1596
17.8833,1601
17.8861,1599
17.8889,1604
17.8917,1606
17.8944,1619
17.8972,1614
17.9000,1612
17.9028,1608
17.9056,1591
17.9083,1586
17.9111,1593
17.9139,1601
17.9167,1608
17.9194,1603
17.9222,1600
17.9250,1585
17.9278,1594
17.9306,1592
17.9333,1605
17.9361,1615
17.9389,1614
17.9417,1613
17.9444,1598
17.9472,1577
17.9500,1577
17.9528,1586
17.9556,1597
17.9583,1598
17.9611,1602
17.9639,1579
17.9667,1572
17.9694,1564
17.9722,1574
17.9750,1576
17.9778,1583
17.9806,1576
17.9833,1557
17.9861,1569
17.9889,1564
17.9917,1559
17.9944,1564
17.9972,1563
18.0000,1570
18.0028,1564
18.0056,1557
18.0083,1561
18.0111,1576
18.0139,1590
18.0167,1627
18.0194,1638
18.0222,1641
18.0250,1643
18.0278,1637
18.0306,1640
18.0333,1655
18.0361,1676
18.0389,1693
18.0417,1718
18.0444,1731
18.0472,1744
18.0500,1752
18.0528,1761
18.0556,1770
18.0583,1766
18.0611,1766
18.0639,1763
18.0667,1753
18.0694,1758
18.0722,1744
18.0750,1729
18.0778,1701
18.0806,1670
18.0833,1647
18.0861,1617
18.0889,1586
18.0917,1567
18.0944,1553
18.0972,1552
18.1000,1542
18.1028,1528
18.1056,1523
18.1083,1535
18.1111,1523
18.1139,1526
18.1167,1529
18.1194,1541
18.1222,1542
18.1250,1524
18.1278,1514
18.1306,1511
18.1333,1514
18.1361,1528
18.1389,1526
18.1417,1538
18.1444,1529
18.1472,1534
18.1500,1538
18.1528,1530
18.1556,1534
18.1583,1538
18.1611,1545
18.1639,1539
18.1667,1516
18.1694,1481
18.1722,1439
18.1750,1404
18.1778,1412
18.1806,1449
18.1833,1515
18.1861,1645
18.1889,1853
18.1917,2119
18.1944,2445
18.1972,2773
18.2000,3082
18.2028,3199
18.2056,3046
18.2083,2732
18.2111,2401
18.2139,2132
18.2167,1917
18.2194,1753
18.2222,1619
18.2250,1513
18.2278,1457
18.2306,1434
18.2333,1436
18.2361,1452
18.2389,1474
18.2417,1501
18.2444,1528
18.2472,1554
18.2500,1573
18.2528,1595
18.2556,1585
18.2583,1558
18.2611,1541
18.2639,1544
18.2667,1552
18.2694,1574
18.2722,1583
18.2750,1588
18.2778,1588
18.2806,1584
18.2833,1579
18.2861,1598
18.2889,1602
18.2917,1618
18.2944,1614
18.2972,1616
18.3000,1602
18.3028,1608
18.3056,1610
18.3083,1626
18.3111,1634
18.3139,1637
18.3167,1632
18.3194,1631
18.3222,1638
18.3250,1637
18.3278,1644
18.3306,1652
18.3333,1648
18.3361,1653
18.3389,1641
18.3417,1649
18.3444,1659
18.3472,1680
18.3500,1704
18.3528,1717
18.3556,1717
18.3583,1712
18.3611,1714
18.3639,1718
18.3667,1725
18.3694,1744
18.3722,1754
18.3750,1764
18.3778,1764
18.3806,1768
18.3833,1775
18.3861,1790
18.3889,1803
18.3917,1786
18.3944,1796
18.3972,1784
18.4000,1777
18.4028,1765
18.4056,1754
18.4083,1741
18.4111,1734
18.4139,1721
18.4167,1709
18.4194,1703
18.4222,1702
18.4250,1691
18.4278,1692
18.4306,1690
18.4333,1689
18.4361,1674
18.4389,1670
18.4417,1662
18.4444,1660
18.4472,1668
18.4500,1674
18.4528,1673
18.4556,1673
18.4583,1660
18.4611,1659
18.4639,1655
18.4667,1652
18.4694,1663
18.4722,1674
18.4750,1679
18.4778,1681
18.4806,1678
18.4833,1680
18.4861,1667
18.4889,1664
18.4917,1664
18.4944,1655
18.4972,1668
18.5000,1657
18.5028,1653
18.5056,1661
18.5083,1679
18.5111,1679
18.5139,1677
18.5167,1676
18.5194,1678
18.5222,1669
18.5250,1664
18.5278,1665
18.5306,1672
18.5333,1669
18.5361,1670
18.5389,1669
18.5417,1659
18.5444,1651
18.5472,1649
18.5500,1650
18.5528,1653
18.5556,1649
18.5583,1650
18.5611,1653
18.5639,1653
18.5667,1656
18.5694,1651
18.5722,1657
18.5750,1650
18.5778,1644
18.5806,1633
18.5833,1627
18.5861,1636
18.5889,1638
18.5917,1647
18.5944,1660
18.5972,1667
18.6000,1670
18.6028,1661
18.6056,1660
18.6083,1668
18.6111,1662
18.6139,1658
18.6167,1654
18.6194,1640
18.6222,1651
18.6250,1649
18.6278,1670
18.6306,1664
18.6333,1673
18.6361,1660
18.6389,1655
18.6417,1666
18.6444,1679
18.6472,1693
18.6500,1698
18.6528,1721
18.6556,1735
18.6583,1752
18.6611,1754
18.6639,1752
18.6667,1761
18.6694,1778
18.6722,1802
18.6750,1814
18.6778,1827
18.6806,1837
18.6833,1846
18.6861,1847
18.6889,1860
18.6917,1872
18.6944,1869
18.6972,1867
18.7000,1854
18.7028,1833
18.7056,1819
18.7083,1795
18.7111,1776
18.7139,1768
18.7167,1745
18.7194,1724
18.7222,1694
18.7250,1667
18.7278,1657
18.7306,1650
18.7333,1653
18.7361,1642
18.7389,1636
18.7417,1629
18.7444,1619
18.7472,1616
18.7500,1613
18.7528,1614
18.7556,1630
18.7583,1623
18.7611,1625
18.7639,1625
18.7667,1619
18.7694,1625
18.7722,1627
18.7750,1633
18.7778,1623
18.7806,1620
18.7833,1614
18.7861,1625
18.7889,1638
18.7917,1641
18.7944,1640
18.7972,1623
18.8000,1589
18.8028,1532
18.8056,1478
18.8083,1468
18.8111,1486
18.8139,1534
18.8167,1632
18.8194,1809
18.8222,2064
18.8250,2376
18.8278,2725
18.8306,3063
18.8333,3290
18.8361,3261
18.8389,3033
18.8417,2710
18.8444,2390
18.8472,2133
18.8500,1893
18.8528,1723
18.8556,1584
18.8583,1520
18.8611,1514
18.8639,1527
18.8667,1546
18.8694,1564
18.8722,1579
18.8750,1600
18.8778,1627
18.8806,1638
18.8833,1651
18.8861,1634
18.8889,1627
18.8917,1631
18.8944,1632
18.8972,1635
18.9000,1645
18.9028,1659
18.9056,1652
18.9083,1650
18.9111,1647
18.9139,1638
18.9167,1631
18.9194,1649
18.9222,1661
18.9250,1684
18.9278,1681
18.9306,1678
18.9333,1675
18.9361,1665
18.9389,1667
18.9417,1681
18.9444,1688
18.9472,1702
18.9500,1684
18.9528,1682
18.9556,1683
18.9583,1692
18.9611,1704
18.9639,1708
18.9667,1716
18.9694,1717
18.9722,1709
18.9750,1708
18.9778,1718
18.9806,1734
18.9833,1738
18.9861,1752
18.9889,1744
18.9917,1742
18.9944,1748
18.9972,1755
19.0000,1777
19.0028,1776
19.0056,1782
19.0083,1797
19.0111,1799
19.0139,1809
19.0167,1818
19.0194,1845
19.0222,1826
19.0250,1838
19.0278,1820
19.0306,1803
19.0333,1781
19.0361,1778
19.0389,1778
19.0417,1778
19.0444,1779
19.0472,1762
19.0500,1748
19.0528,1744
19.0556,1731
19.0583,1730
19.0611,1722
19.0639,1719
19.0667,1707
19.0694,1693
19.0722,1698
19.0750,1701
19.0778,1707
19.0806,1702
19.0833,1701
19.0861,1692
19.0889,1683
19.0917,1670
19.0944,1665
19.0972,1656
19.1000,1657
19.1028,1651
19.1056,1656
19.1083,1660
19.1111,1662
19.1139,1659
19.1167,1664
19.1194,1665
19.1222,1674
19.1250,1672
19.1278,1672
19.1306,1665
19.1333,1660
19.1361,1670
19.1389,1669
19.1417,1673
19.1444,1657
19.1472,1652
19.1500,1635
19.1528,1623
19.1556,1614
19.1583,1622
19.1611,1620
19.1639,1627
19.1667,1617
19.1694,1617
19.1722,1618
19.1750,1611
19.1778,1608
19.1806,1603
19.1833,1591
19.1861,1597
19.1889,1593
19.1917,1584
19.1944,1589
19.1972,1592
19.2000,1589
19.2028,1579
19.2056,1577
19.2083,1581
19.2111,1581
19.2139,1592
19.2167,1584
19.2194,1586
19.2222,1589
19.2250,1578
19.2278,1576
19.2306,1570
19.2333,1568
19.2361,1563
19.2389,1563
19.2417,1554
19.2444,1550
19.2472,1542
19.2500,1549
19.2528,1554
19.2556,1557
19.2583,1553
19.2611,1548
19.2639,1552
19.2667,1551
19.2694,1546
19.2722,1534
19.2750,1527
19.2778,1526
19.2806,1534
19.2833,1528
19.2861,1521
19.2889,1509
19.2917,1500
19.2944,1513
19.2972,1511
19.3000,1529
19.3028,1542
19.3056,1560
19.3083,1571
19.3111,1582
19.3139,1579
19.3167,1582
19.3194,1591
19.3222,1588
19.3250,1602
19.3278,1610
19.3306,1625
19.3333,1641
19.3361,1643
19.3389,1654
19.3417,1648
19.3444,1649
19.3472,1654
19.3500,1652
19.3528,1645
19.3556,1627
19.3583,1618
19.3611,1600
19.3639,1584
19.3667,1547
19.3694,1521
19.3722,1486
19.3750,1463
19.3778,1445
19.3806,1427
19.3833,1420
19.3861,1419
19.3889,1402
19.3917,1388
19.3944,1381
19.3972,1364
19.4000,1363
19.4028,1353
19.4056,1340
19.4083,1332
19.4111,1331
19.4139,1329
19.4167,1329
19.4194,1338
19.4222,1340
19.4250,1329
19.4278,1324
19.4306,1315
19.4333,1320
19.4361,1317
19.4389,1323
19.4417,1331
19.4444,1321
19.4472,1314
19.4500,1299
19.4528,1274
19.4556,1231
19.4583,1188
19.4611,1150
19.4639,1135
19.4667,1136
19.4694,1187
19.4722,1290
19.4750,1469
19.4778,1748
19.4806,2064
19.4833,2418
19.4861,2751
19.4889,2933
19.4917,2843
19.4944,2561
19.4972,2246
19.5000,1958
19.5028,1710
19.5056,1509
19.5083,1338
19.5111,1213
19.5139,1149
19.5167,1121
19.5194,1121
19.5222,1152
19.5250,1169
19.5278,1196
19.5306,1216
19.5333,1227
19.5361,1238
19.5389,1241
19.5417,1243
19.5444,1217
19.5472,1208
19.5500,1192
19.5528,1198
19.5556,1214
19.5583,1231
19.5611,1236
19.5639,1235
19.5667,1227
19.5694,1217
19.5722,1207
19.5750,1213
19.5778,1219
19.5806,1224
19.5833,1237
19.5861,1230
19.5889,1227
19.5917,1238
19.5944,1250
19.5972,1264
19.6000,1261
19.6028,1258
19.6056,1244
19.6083,1243
19.6111,1246
19.6139,1260
19.6167,1262
19.6194,1271
19.6222,1266
19.6250,1258
19.6278,1256
19.6306,1262
19.6333,1267
19.6361,1271
19.6389,1277
19.6417,1281
19.6444,1271
19.6472,1278
19.6500,1283
19.6528,1292
19.6556,1303
19.6583,1311
19.6611,1313
19.6639,1306
19.6667,1312
19.6694,1318
19.6722,1335
19.6750,1342
19.6778,1350
19.6806,1346
19.6833,1329
19.6861,1317
19.6889,1307
19.6917,1306
19.6944,1304
19.6972,1296
19.7000,1289
19.7028,1256
19.7056,1238
19.7083,1234
19.7111,1234
19.7139,1231
19.7167,1231
19.7194,1238
19.7222,1222
19.7250,1211
19.7278,1200
19.7306,1208
19.7333,1218
19.7361,1213
19.7389,1220
19.7417,1218
19.7444,1207
19.7472,1202
19.7500,1197
19.7528,1198
19.7556,1209
19.7583,1220
19.7611,1223
19.7639,1222
19.7667,1223
19.7694,1228
19.7722,1231
19.7750,1237
19.7778,1241
19.7806,1242
19.7833,1224
19.7861,1226
19.7889,1230
19.7917,1249
19.7944,1258
19.7972,1255
19.8000,1256
19.8028,1233
19.8056,1229
19.8083,1221
19.8111,1229
19.8139,1238
19.8167,1243
19.8194,1246
19.8222,1244
19.8250,1236
19.8278,1237
19.8306,1240
19.8333,1237
19.8361,1251
19.8389,1256
19.8417,1264
19.8444,1259
19.8472,1257
19.8500,1261
19.8528,1272
19.8556,1282
19.8583,1282
19.8611,1281
19.8639,1284
19.8667,1285
19.8694,1287
19.8722,1285
19.8750,1285
19.8778,1292
19.8806,1302
19.8833,1298
19.8861,1295
19.8889,1292
19.8917,1292
19.8944,1300
19.8972,1313
19.9000,1316
19.9028,1320
19.9056,1321
19.9083,1321
19.9111,1319
19.9139,1325
19.9167,1324
19.9194,1343
19.9222,1346
19.9250,1354
19.9278,1375
19.9306,1394
19.9333,1416
19.9361,1432
19.9389,1458
19.9417,1464
19.9444,1470
19.9472,1490
19.9500,1504
19.9528,1528
19.9556,1540
19.9583,1547
19.9611,1556
19.9639,1564
19.9667,1588
19.9694,1593
19.9722,1599
19.9750,1592
19.9778,1593
19.9806,1588
19.9833,1569
19.9861,1542
19.9889,1514
19.9917,1498
19.9944,1477
19.9972,1463
20.0000,1457
20.0028,1444
20.0056,1429
20.0083,1418
20.0111,1415
20.0139,1414
20.0167,1430
20.0194,1431
20.0222,1418
20.0250,1420
20.0278,1418
20.0306,1428
20.0333,1433
20.0361,1437
20.0389,1432
20.0417,1442
20.0444,1448
20.0472,1455
20.0500,1453
20.0528,1472
20.0556,1467
20.0583,1467
20.0611,1469
20.0639,1470
20.0667,1470
20.0694,1470
20.0722,1458
20.0750,1425
20.0778,1384
20.0806,1352
20.0833,1341
20.0861,1370
20.0889,1408
20.0917,1500
20.0944,1667
20.0972,1924
20.1000,2253
20.1028,2611
20.1056,2949
20.1083,3122
20.1111,3010
20.1139,2715
20.1167,2408
20.1194,2169
20.1222,1992
20.1250,1854
20.1278,1737
20.1306,1627
20.1333,1549
20.1361,1505
20.1389,1486
20.1417,1483
20.1444,1497
20.1472,1522
20.1500,1551
20.1528,1575
20.1556,1614
20.1583,1633
20.1611,1638
20.1639,1636
20.1667,1621
20.1694,1619
20.1722,1630
20.1750,1659
20.1778,1675
20.1806,1681
20.1833,1676
20.1861,1670
20.1889,1676
20.1917,1702
20.1944,1726
20.1972,1744
20.2000,1744
20.2028,1723
20.2056,1720
20.2083,1716
20.2111,1734
20.2139,1768
20.2167,1783
20.2194,1798
20.2222,1809
20.2250,1791
20.2278,1790
20.2306,1804
20.2333,1837
20.2361,1860
20.2389,1864
20.2417,1865
20.2444,1854
20.2472,1852
20.2500,1860
20.2528,1881
20.2556,1914
20.2583,1925
20.2611,1932
20.2639,1938
20.2667,1939
20.2694,1941
20.2722,1952
20.2750,1967
20.2778,1972
20.2806,1984
20.2833,1982
20.2861,1982
20.2889,1996
20.2917,2015
20.2944,2026
20.2972,2144
20.3000,2137
20.3028,2106
20.3056,2098
20.3083,2082
20.3111,2075
20.3139,2078
20.3167,2088
20.3194,2071
20.3222,2061
20.3250,2044
20.3278,2029
20.3306,2030
20.3333,2028
20.3361,2027
20.3389,2026
20.3417,2006
20.3444,1994
20.3472,1994
20.3500,1982
20.3528,2005
20.3556,2016
20.3583,2018
20.3611,2027
20.3639,2014
20.3667,2008
20.3694,2011
20.3722,2030
20.3750,2030
20.3778,2036
20.3806,2031
20.3833,2033
20.3861,2042
20.3889,2043
20.3917,2043
20.3944,2055
20.3972,2050
20.4000,2045
20.4028,2038
20.4056,2042
20.4083,2036
20.4111,2043
20.4139,2061
20.4167,2057
20.4194,2055
20.4222,2043
20.4250,2037
20.4278,2030
20.4306,2022
20.4333,2024
20.4361,2027
20.4389,2034
20.4417,2032
20.4444,2025
20.4472,2025
20.4500,2033
20.4528,2030
20.4556,2035
20.4583,2034
20.4611,2024
20.4639,2019
20.4667,2003
20.4694,2000
20.4722,2005
20.4750,2013
20.4778,2014
20.4806,2013
20.4833,2010
20.4861,2006
20.4889,2018
20.4917,2027
20.4944,2033
20.4972,2050
20.5000,2068
20.5028,2060
20.5056,2082
20.5083,2092
20.5111,2114
20.5139,2126
20.5167,2144
20.5194,2175
20.5222,2184
20.5250,2192
20.5278,2199
20.5306,2210
20.5333,2214
20.5361,2228
20.5389,2224
20.5417,2219
20.5444,2215
20.5472,2218
20.5500,2203
20.5528,2187
20.5556,2172
20.5583,2141
20.5611,2103
20.5639,2072
20.5667,2035
20.5694,2015
20.5722,2005
20.5750,1997
20.5778,1994
20.5806,2003
20.5833,2000
20.5861,1991
20.5889,1986
20.5917,1972
20.5944,1975
20.5972,1986
20.6000,1994
20.6028,1990
20.6056,1985
20.6083,1986
20.6111,1997
20.6139,2008
20.6167,2008
20.6194,2016
20.6222,2014
20.6250,2007
20.6278,2010
20.6306,2003
20.6333,2000
20.6361,1994
20.6389,1962
20.6417,1930
20.6444,1884
20.6472,1845
20.6500,1832
20.6528,1858
20.6556,1911
20.6583,2005
20.6611,2148
20.6639,2379
20.6667,2673
20.6694,3024
20.6722,3331
20.6750,3359
20.6778,3347
20.6806,3144
20.6833,2834
20.6861,2587
20.6889,2416
20.6917,2290
20.6944,2185
20.6972,2084
20.7000,1988
20.7028,1920
20.7056,1875
20.7083,1856
20.7111,1846
20.7139,1869
20.7167,1897
20.7194,1929
20.7222,1970
20.7250,1989
20.7278,1981
20.7306,1979
20.7333,1962
20.7361,1972
20.7389,1980
20.7417,1997
20.7444,2007
20.7472,2007
20.7500,2007
20.7528,1990
20.7556,1996
20.7583,2014
20.7611,2021
20.7639,2021
20.7667,2020
20.7694,2023
20.7722,2008
20.7750,2004
20.7778,2005
20.7806,2022
20.7833,2038
20.7861,2041
20.7889,2033
20.7917,2023
20.7944,2027
20.7972,2033
20.8000,2053
20.8028,2059
20.8056,2055
20.8083,2048
20.8111,2034
20.8139,2033
20.8167,2046
20.8194,2065
20.8222,2083
20.8250,2097
20.8278,2105
20.8306,2104
20.8333,2101
20.8361,2102
20.8389,2099
20.8417,2097
20.8444,2110
20.8472,2112
20.8500,2109
20.8528,2114
20.8556,2121
20.8583,2129
20.8611,2138
20.8639,2130
20.8667,2137
20.8694,2135
20.8722,2120
20.8750,2103
20.8778,2093
20.8806,2079
20.8833,2062
20.8861,2048
20.8889,2031
20.8917,2006
20.8944,1993
20.8972,1982
20.9000,1975
20.9028,1975
20.9056,1976
20.9083,1966
20.9111,1954
20.9139,1949
20.9167,1946
20.9194,1942
20.9222,1951
20.9250,1949
20.9278,1952
20.9306,1956
20.9333,1952
20.9361,1946
20.9389,1941
20.9417,1939
20.9444,1930
20.9472,1938
20.9500,1932
20.9528,1930
20.9556,1931
20.9583,1928
20.9611,1929
20.9639,1925
20.9667,1920
20.9694,1915
20.9722,1914
20.9750,1911
20.9778,1909
20.9806,1910
20.9833,1909
20.9861,1905
20.9889,1895
20.9917,1876
20.9944,1876
20.9972,1883
21.0000,1878
21.0028,1879
21.0056,1864
21.0083,1856
21.0111,1841
21.0139,1846
21.0167,1852
21.0194,1864
21.0222,1879
21.0250,1891
21.0278,1894
21.0306,1900
21.0333,1891
21.0361,1891
21.0389,1894
21.0417,1905
21.0444,1925
21.0472,1939
21.0500,1942
21.0528,1957
21.0556,1962
21.0583,1973
21.0611,1977
21.0639,1990
21.0667,1997
21.0694,2009
21.0722,2022
21.0750,2019
21.0778,2015
21.0806,2009
21.0833,1993
21.0861,1961
21.0889,1923
21.0917,1885
21.0944,1847
21.0972,1814
21.1000,1795
21.1028,1783
21.1056,1788
21.1083,1784
21.1111,1779
21.1139,1781
21.1167,1776
21.1194,1766
21.1222,1755
21.1250,1743
21.1278,1731
21.1306,1721
21.1333,1717
21.1361,1716
21.1389,1713
21.1417,1723
21.1444,1728
21.1472,1730
21.1500,1724
21.1528,1728
21.1556,1747
21.1583,1751
21.1611,1756
21.1639,1749
21.1667,1746
21.1694,1741
21.1722,1713
21.1750,1683
21.1778,1639
21.1806,1596
21.1833,1591
21.1861,1618
21.1889,1665
21.1917,1744
21.1944,1865
21.1972,2084
21.2000,2382
21.2028,2735
21.2056,3077
21.2083,3299
21.2111,3220
21.2139,2889
21.2167,2546
21.2194,2280
21.2222,2110
21.2250,1990
21.2278,1890
21.2306,1785
21.2333,1693
21.2361,1635
21.2389,1595
21.2417,1585
21.2444,1596
21.2472,1610
21.2500,1632
21.2528,1663
21.2556,1696
21.2583,1729
21.2611,1720
21.2639,1692
21.2667,1677
21.2694,1684
21.2722,1706
21.2750,1725
21.2778,1744
21.2806,1747
21.2833,1733
21.2861,1730
21.2889,1717
21.2917,1712
21.2944,1730
21.2972,1742
21.3000,1737
21.3028,1729
21.3056,1718
21.3083,1718
21.3111,1728
21.3139,1745
21.3167,1770
21.3194,1775
21.3222,1764
21.3250,1750
21.3278,1753
21.3306,1760
21.3333,1788
21.3361,1813
21.3389,1818
21.3417,1803
21.3444,1797
21.3472,1777
21.3500,1775
21.3528,1787
21.3556,1821
21.3583,1832
21.3611,1840
21.3639,1830
21.3667,1829
21.3694,1837
21.3722,1854
21.3750,1875
21.3778,1871
21.3806,1866
21.3833,1854
21.3861,1851
21.3889,1857
21.3917,1868
21.3944,1890
21.3972,1916
21.4000,1864
21.4028,1858
21.4056,1840
21.4083,1834
21.4111,1831
21.4139,1834
21.4167,1849
21.4194,1845
21.4222,1820
21.4250,1815
21.4278,1780
21.4306,1771
21.4333,1779
21.4361,1774
21.4389,1776
21.4417,1770
21.4444,1756
21.4472,1736
21.4500,1735
21.4528,1741
21.4556,1740
21.4583,1760
21.4611,1752
21.4639,1752
21.4667,1746
21.4694,1742
21.4722,1741
21.4750,1743
21.4778,1746
21.4806,1748
21.4833,1733
21.4861,1721
21.4889,1711
21.4917,1721
21.4944,1731
21.4972,1740
21.5000,1741
21.5028,1733
21.5056,1723
21.5083,1722
21.5111,1724
21.5139,1731
21.5167,1741
21.5194,1742
21.5222,1740
21.5250,1733
21.5278,1730
21.5306,1713
21.5333,1724
21.5361,1726
21.5389,1732
21.5417,1725
21.5444,1714
21.5472,1703
21.5500,1701
21.5528,1694
21.5556,1701
21.5583,1702
21.5611,1690
21.5639,1693
21.5667,1703
21.5694,1702
21.5722,1713
21.5750,1739
21.5778,1761
21.5806,1773
21.5833,1778
21.5861,1776
21.5889,1789
21.5917,1798
21.5944,1827
21.5972,1845
21.6000,1856
21.6028,1864
21.6056,1874
21.6083,1888
21.6111,1893
21.6139,1907
21.6167,1897
21.6194,1901
21.6222,1885
21.6250,1870
21.6278,1848
21.6306,1811
21.6333,1777
21.6361,1754
21.6389,1737
21.6417,1717
21.6444,1688
21.6472,1657
21.6500,1649
21.6528,1646
21.6556,1650
21.6583,1661
21.6611,1645
21.6639,1638
21.6667,1621
21.6694,1610
21.6722,1604
21.6750,1611
21.6778,1614
21.6806,1614
21.6833,1616
21.6861,1612
21.6889,1612
21.6917,1626
21.6944,1632
21.6972,1638
21.7000,1637
21.7028,1638
21.7056,1634
21.7083,1626
21.7111,1625
21.7139,1607
21.7167,1576
21.7194,1519
21.7222,1480
21.7250,1467
21.7278,1487
21.7306,1532
21.7333,1640
21.7361,1824
21.7389,2086
21.7417,2414
21.7444,2780
21.7472,3108
21.7500,3279
21.7528,3181
21.7556,2866
21.7583,2511
21.7611,2209
21.7639,1992
21.7667,1817
21.7694,1681
21.7722,1573
21.7750,1511
21.7778,1494
21.7806,1492
21.7833,1512
21.7861,1535
21.7889,1559
21.7917,1590
21.7944,1622
21.7972,1639
21.8000,1637
21.8028,1625
21.8056,1606
21.8083,1605
21.8111,1599
21.8139,1611
21.8167,1637
21.8194,1659
21.8222,1656
21.8250,1646
21.8278,1627
21.8306,1623
21.8333,1626
21.8361,1637
21.8389,1649
21.8417,1669
21.8444,1658
21.8472,1657
21.8500,1664
21.8528,1678
21.8556,1696
21.8583,1706
21.8611,1706
21.8639,1686
21.8667,1675
21.8694,1670
21.8722,1682
21.8750,1708
21.8778,1718
21.8806,1728
21.8833,1725
21.8861,1721
21.8889,1720
21.8917,1716
21.8944,1731
21.8972,1732
21.9000,1744
21.9028,1742
21.9056,1735
21.9083,1729
21.9111,1743
21.9139,1755
21.9167,1772
21.9194,1798
21.9222,1796
21.9250,1790
21.9278,1790
21.9306,1801
21.9333,1818
21.9361,1843
21.9389,1829
21.9417,1827
21.9444,1813
21.9472,1788
21.9500,1773
21.9528,1773
21.9556,1782
21.9583,1777
21.9611,1781
21.9639,1774
21.9667,1757
21.9694,1739
21.9722,1730
21.9750,1729
21.9778,1725
21.9806,1707
21.9833,1699
21.9861,1670
21.9889,1662
21.9917,1660
21.9944,1672
21.9972,1684
22.0000,1700
22.0028,1711
22.0056,1697
22.0083,1682
22.0111,1675
22.0139,1670
22.0167,1680
22.0194,1684
22.0222,1687
22.0250,1687
22.0278,1685
22.0306,1684
22.0333,1690
22.0361,1706
22.0389,1705
22.0417,1685
22.0444,1680
22.0472,1674
22.0500,1678
22.0528,1675
22.0556,1684
22.0583,1686
22.0611,1696
22.0639,1685
22.0667,1682
22.0694,1673
22.0722,1664
22.0750,1665
22.0778,1658
22.0806,1661
22.0833,1658
22.0861,1649
22.0889,1645
22.0917,1666
22.0944,1677
22.0972,1683
22.1000,1687
22.1028,1696
22.1056,1707
22.1083,1714
22.1111,1717
22.1139,1733
22.1167,1748
22.1194,1759
22.1222,1777
22.1250,1782
22.1278,1795
22.1306,1800
22.1333,1813
22.1361,1827
22.1389,1832
22.1417,1839
22.1444,1840
22.1472,1840
22.1500,1819
22.1528,1800
22.1556,1767
22.1583,1746
22.1611,1720
22.1639,1693
22.1667,1657
22.1694,1625
22.1722,1601
22.1750,1593
22.1778,1590
22.1806,1596
22.1833,1593
22.1861,1578
22.1889,1572
22.1917,1565
22.1944,1567
22.1972,1563
22.2000,1565
22.2028,1561
22.2056,1562
22.2083,1565
22.2111,1567
22.2139,1575
22.2167,1572
22.2194,1578
22.2222,1578
22.2250,1574
22.2278,1579
22.2306,1587
22.2333,1587
22.2361,1586
22.2389,1591
22.2417,1567
22.2444,1529
22.2472,1474
22.2500,1421
22.2528,1405
22.2556,1432
22.2583,1480
22.2611,1599
22.2639,1808
22.2667,2091
22.2694,2439
22.2722,2799
22.2750,3127
22.2778,3280
22.2806,3162
22.2833,2865
22.2861,2523
22.2889,2201
22.2917,1949
22.2944,1764
22.2972,1634
22.3000,1529
22.3028,1492
22.3056,1475
22.3083,1503
22.3111,1515
22.3139,1540
22.3167,1568
22.3194,1579
22.3222,1581
22.3250,1585
22.3278,1591
22.3306,1578
22.3333,1576
22.3361,1571
22.3389,1575
22.3417,1593
22.3444,1609
22.3472,1626
22.3500,1617
22.3528,1591
22.3556,1593
22.3583,1590
22.3611,1603
22.3639,1622
22.3667,1628
22.3694,1630
22.3722,1617
22.3750,1621
22.3778,1628
22.3806,1633
22.3833,1648
22.3861,1650
22.3889,1654
22.3917,1644
22.3944,1641
22.3972,1642
22.4000,1651
22.4028,1656
22.4056,1665
22.4083,1673
22.4111,1670
22.4139,1668
22.4167,1673
22.4194,1665
22.4222,1672
22.4250,1687
22.4278,1699
22.4306,1709
22.4333,1714
22.4361,1704
22.4389,1716
22.4417,1728
22.4444,1744
22.4472,1750
22.4500,1760
22.4528,1757
22.4556,1757
22.4583,1770
22.4611,1784
22.4639,1808
22.4667,1787
22.4694,1791
22.4722,1774
22.4750,1765
22.4778,1747
22.4806,1724
22.4833,1717
22.4861,1706
22.4889,1714
22.4917,1699
22.4944,1690
22.4972,1683
22.5000,1662
22.5028,1660
22.5056,1664
22.5083,1662
22.5111,1661
22.5139,1652
22.5167,1648
22.5194,1650
22.5222,1656
22.5250,1664
22.5278,1677
22.5306,1674
22.5333,1650
22.5361,1649
22.5389,1657
22.5417,1672
22.5444,1664
22.5472,1668
22.5500,1661
22.5528,1662
22.5556,1652
22.5583,1644
22.5611,1655
22.5639,1646
22.5667,1649
22.5694,1653
22.5722,1650
22.5750,1645
22.5778,1638
22.5806,1639
22.5833,1632
22.5861,1633
22.5889,1629
22.5917,1633
22.5944,1625
22.5972,1623
22.6000,1615
22.6028,1618
22.6056,1621
22.6083,1626
22.6111,1624
22.6139,1613
22.6167,1606
22.6194,1592
22.6222,1599
22.6250,1605
22.6278,1610
22.6306,1610
22.6333,1614
22.6361,1618
22.6389,1616
22.6417,1620
22.6444,1619
22.6472,1619
22.6500,1609
22.6528,1615
22.6556,1622
22.6583,1641
22.6611,1658
22.6639,1668
22.6667,1681
22.6694,1675
22.6722,1691
22.6750,1704
22.6778,1712
22.6806,1725
22.6833,1752
22.6861,1768
22.6889,1785
22.6917,1800
22.6944,1803
22.6972,1803
22.7000,1810
22.7028,1811
22.7056,1809
22.7083,1797
22.7111,1792
22.7139,1766
22.7167,1733
22.7194,1710
22.7222,1687
22.7250,1668
22.7278,1645
22.7306,1609
22.7333,1580
22.7361,1554
22.7389,1548
22.7417,1547
22.7444,1562
22.7472,1570
22.7500,1563
22.7528,1569
22.7556,1562
22.7583,1540
22.7611,1541
22.7639,1533
22.7667,1534
22.7694,1535
22.7722,1541
22.7750,1531
22.7778,1533
22.7806,1533
22.7833,1528
22.7861,1531
22.7889,1536
22.7917,1549
22.7944,1543
22.7972,1550
22.8000,1539
22.8028,1517
22.8056,1477
22.8083,1426
22.8111,1375
22.8139,1375
22.8167,1404
22.8194,1459
22.8222,1588
22.8250,1796
22.8278,2087
22.8306,2432
22.8333,2791
22.8361,3101
22.8389,3216
22.8417,3060
22.8444,2760
22.8472,2438
22.8500,2163
22.8528,1927
22.8556,1736
22.8583,1586
22.8611,1489
22.8639,1452
22.8667,1454
22.8694,1464
22.8722,1475
22.8750,1482
22.8778,1493
22.8806,1522
22.8833,1563
22.8861,1581
22.8889,1577
22.8917,1562
22.8944,1554
22.8972,1541
22.9000,1554
22.9028,1557
22.9056,1563
22.9083,1560
22.9111,1562
22.9139,1556
22.9167,1563
22.9194,1577
22.9222,1588
22.9250,1592
22.9278,1604
22.9306,1593
22.9333,1587
22.9361,1584
22.9389,1586
22.9417,1598
22.9444,1612
22.9472,1628
22.9500,1626
22.9528,1621
22.9556,1610
22.9583,1613
22.9611,1622
22.9639,1626
22.9667,1647
22.9694,1653
22.9722,1647
22.9750,1631
22.9778,1636
22.9806,1644
22.9833,1663
22.9861,1676
22.9889,1679
22.9917,1681
22.9944,1678
22.9972,1675
23.0000,1679
23.0028,1701
23.0056,1730
23.0083,1753
23.0111,1753
23.0139,1748
23.0167,1732
23.0194,1741
23.0222,1740
23.0250,1753
23.0278,1774
23.0306,1770
23.0333,1752
23.0361,1750
23.0389,1728
23.0417,1719
23.0444,1724
23.0472,1721
23.0500,1715
23.0528,1702
23.0556,1683
23.0583,1666
23.0611,1662
23.0639,1663
23.0667,1673
23.0694,1669
23.0722,1662
23.0750,1653
23.0778,1638
23.0806,1632
23.0833,1636
23.0861,1638
23.0889,1642
23.0917,1648
23.0944,1652
23.0972,1655
23.1000,1649
23.1028,1648
23.1056,1651
23.1083,1659
23.1111,1661
23.1139,1653
23.1167,1656
23.1194,1647
23.1222,1647
23.1250,1639
23.1278,1639
23.1306,1640
23.1333,1631
23.1361,1627
23.1389,1618
23.1417,1621
23.1444,1622
23.1472,1628
23.1500,1633
23.1528,1634
23.1556,1626
23.1583,1622
23.1611,1630
23.1639,1642
23.1667,1647
23.1694,1649
23.1722,1633
23.1750,1612
23.1778,1601
23.1806,1608
23.1833,1602
23.1861,1594
23.1889,1590
23.1917,1568
23.1944,1565
23.1972,1569
23.2000,1577
23.2028,1585
23.2056,1592
23.2083,1590
23.2111,1584
23.2139,1576
23.2167,1576
23.2194,1569
23.2222,1572
23.2250,1582
23.2278,1581
23.2306,1588
23.2333,1575
23.2361,1574
23.2389,1578
23.2417,1576
23.2444,1572
23.2472,1582
23.2500,1581
23.2528,1586
23.2556,1585
23.2583,1575
23.2611,1590
23.2639,1593
23.2667,1614
23.2694,1626
23.2722,1628
23.2750,1648
23.2778,1652
23.2806,1663
23.2833,1674
23.2861,1699
23.2889,1715
23.2917,1735
23.2944,1744
23.2972,1748
23.3000,1764
23.3028,1765
23.3056,1772
23.3083,1766
23.3111,1776
23.3139,1766
23.3167,1752
23.3194,1760
23.3222,1749
23.3250,1728
23.3278,1699
23.3306,1675
23.3333,1645
23.3361,1619
23.3389,1591
23.3417,1584
23.3444,1574
23.3472,1561
23.3500,1566
23.3528,1566
23.3556,1560
23.3583,1559
23.3611,1551
23.3639,1536
23.3667,1523
23.3694,1515
23.3722,1524
23.3750,1530
23.3778,1533
23.3806,1541
23.3833,1539
23.3861,1529
23.3889,1531
23.3917,1546
23.3944,1544
23.3972,1552
23.4000,1557
23.4028,1558
23.4056,1549
23.4083,1541
23.4111,1533
23.4139,1501
23.4167,1447
23.4194,1416
23.4222,1397
23.4250,1417
23.4278,1451
23.4306,1542
23.4333,1700
23.4361,1960
23.4389,2291
23.4417,2661
23.4444,3012
23.4472,3192
23.4500,3101
23.4528,2835
23.4556,2524
23.4583,2227
23.4611,1997
23.4639,1810
23.4667,1661
23.4694,1545
23.4722,1474
23.4750,1453
23.4778,1464
23.4806,1484
23.4833,1499
23.4861,1525
23.4889,1556
23.4917,1577
23.4944,1598
23.4972,1589
23.5000,1572
23.5028,1552
23.5056,1529
23.5083,1535
23.5111,1549
23.5139,1574
23.5167,1593
23.5194,1614
23.5222,1610
23.5250,1612
23.5278,1595
23.5306,1596
23.5333,1610
23.5361,1623
23.5389,1624
23.5417,1632
23.5444,1619
23.5472,1633
23.5500,1635
23.5528,1642
23.5556,1645
23.5583,1653
23.5611,1644
23.5639,1635
23.5667,1628
23.5694,1636
23.5722,1647
23.5750,1666
23.5778,1671
23.5806,1671
23.5833,1660
23.5861,1662
23.5889,1674
23.5917,1680
23.5944,1690
23.5972,1707
23.6000,1710
23.6028,1711
23.6056,1706
23.6083,1714
23.6111,1731
23.6139,1746
23.6167,1749
23.6194,1761
23.6222,1763
23.6250,1773
23.6278,1781
23.6306,1783
23.6333,1789
23.6361,1821
23.6389,1825
23.6417,1808
23.6444,1797
23.6472,1788
23.6500,1777
23.6528,1773
23.6556,1768
23.6583,1762
23.6611,1743
23.6639,1739
23.6667,1730
23.6694,1734
23.6722,1741
23.6750,1732
23.6778,1716
23.6806,1697
23.6833,1702
23.6861,1695
23.6889,1703
23.6917,1714
23.6944,1707
23.6972,1703
23.7000,1701
23.7028,1703
23.7056,1704
23.7083,1705
23.7111,1705
23.7139,1712
23.7167,1703
23.7194,1694
23.7222,1695
23.7250,1700
23.7278,1691
23.7306,1688
23.7333,1692
23.7361,1701
23.7389,1701
23.7417,1695
23.7444,1682
23.7472,1680
23.7500,1687
23.7528,1690
23.7556,1695
23.7583,1697
23.7611,1683
23.7639,1673
23.7667,1672
23.7694,1685
23.7722,1681
23.7750,1682
23.7778,1679
23.7806,1682
23.7833,1678
23.7861,1665
23.7889,1656
23.7917,1647
23.7944,1648
23.7972,1646
23.8000,1646
23.8028,1638
23.8056,1644
23.8083,1650
23.8111,1666
23.8139,1666
23.8167,1667
23.8194,1665
23.8222,1654
23.8250,1649
23.8278,1650
23.8306,1662
23.8333,1670
23.8361,1672
23.8389,1669
23.8417,1675
23.8444,1676
23.8472,1695
23.8500,1699
23.8528,1711
23.8556,1725
23.8583,1743
23.8611,1750
23.8639,1754
23.8667,1764
23.8694,1784
23.8722,1806
23.8750,1813
23.8778,1837
23.8806,1856
23.8833,1853
23.8861,1854
23.8889,1849
23.8917,1855
23.8944,1853
23.8972,1851
23.9000,1839
23.9028,1806
23.9056,1761
23.9083,1739
23.9111,1713
23.9139,1683
23.9167,1654
23.9194,1630
23.9222,1619
23.9250,1609
23.9278,1610
23.9306,1625
23.9333,1627
23.9361,1635
23.9389,1632
23.9417,1621
23.9444,1609
23.9472,1604
23.9500,1606
23.9528,1604
23.9556,1618
23.9583,1614
23.9611,1611
23.9639,1620
23.9667,1622
23.9694,1608
23.9722,1612
23.9750,1602
23.9778,1599
23.9806,1598
23.9833,1607
23.9861,1603
23.9889,1605
23.9917,1599
23.9944,1545
23.9972,1499
24.0000,1466
24.0028,1466
24.0056,1495
24.0083,1576
24.0111,1696
24.0139,1902
24.0167,2195
24.0194,2545
24.0222,2901
24.0250,3143
24.0278,3127
24.0306,2845
24.0333,2518
24.0361,2263
24.0389,2079
24.0417,1966
24.0444,1857
24.0472,1758
24.0500,1656
24.0528,1581
24.0556,1529
24.0583,1499
24.0611,1483
24.0639,1508
24.0667,1532
24.0694,1577
24.0722,1612
24.0750,1633
24.0778,1650
24.0806,1642
24.0833,1628
24.0861,1610
24.0889,1612
24.0917,1630
24.0944,1641
24.0972,1650
24.1000,1642
24.1028,1638
24.1056,1641
24.1083,1657
24.1111,1678
24.1139,1692
24.1167,1697
24.1194,1686
24.1222,1679
24.1250,1683
24.1278,1682
24.1306,1704
24.1333,1711
24.1361,1715
24.1389,1710
24.1417,1689
24.1444,1672
24.1472,1667
24.1500,1680
24.1528,1703
24.1556,1726
24.1583,1726
24.1611,1736
24.1639,1725
24.1667,1726
24.1694,1735
24.1722,1753
24.1750,1774
24.1778,1773
24.1806,1755
24.1833,1744
24.1861,1739
24.1889,1761
24.1917,1769
24.1944,1794
24.1972,1790
24.2000,1783
24.2028,1781
24.2056,1791
24.2083,1799
24.2111,1827
24.2139,1842
24.2167,1808
24.2194,1800
24.2222,1781
24.2250,1773
24.2278,1780
24.2306,1791
24.2333,1796
24.2361,1788
24.2389,1777
24.2417,1762
24.2444,1742
24.2472,1739
24.2500,1739
24.2528,1744
24.2556,1743
24.2583,1731
24.2611,1706
24.2639,1703
24.2667,1688
24.2694,1695
24.2722,1707
24.2750,1716
24.2778,1717
24.2806,1708
24.2833,1699
24.2861,1690
24.2889,1699
24.2917,1714
24.2944,1720
24.2972,1722
24.3000,1717
24.3028,1709
24.3056,1701
24.3083,1698
24.3111,1694
24.3139,1706
24.3167,1708
24.3194,1707
24.3222,1707
24.3250,1695
24.3278,1700
24.3306,1703
24.3333,1703
24.3361,1703
24.3389,1703
24.3417,1692
24.3444,1689
24.3472,1685
24.3500,1680
24.3528,1687
24.3556,1695
24.3583,1691
24.3611,1683
24.3639,1667
24.3667,1662
24.3694,1654
24.3722,1664
24.3750,1658
24.3778,1656
24.3806,1656
24.3833,1652
24.3861,1644
24.3889,1647
24.3917,1655
24.3944,1670
24.3972,1674
24.4000,1674
24.4028,1672
24.4056,1669
24.4083,1684
24.4111,1685
24.4139,1692
24.4167,1701
24.4194,1717
24.4222,1713
24.4250,1716
24.4278,1723
24.4306,1743
24.4333,1754
24.4361,1783
24.4389,1803
24.4417,1823
24.4444,1830
24.4472,1836
24.4500,1856
24.4528,1867
24.4556,1873
24.4583,1864
24.4611,1841
24.4639,1817
24.4667,1790
24.4694,1768
24.4722,1744
24.4750,1723
24.4778,1684
24.4806,1657
24.4833,1622
24.4861,1618
24.4889,1611
24.4917,1617
24.4944,1619
24.4972,1609
24.5000,1595
24.5028,1586
24.5056,1580
24.5083,1574
24.5111,1580
24.5139,1582
24.5167,1580
24.5194,1570
24.5222,1563
24.5250,1569
24.5278,1580
24.5306,1573
24.5333,1583
24.5361,1591
24.5389,1594
24.5417,1583
24.5444,1584
24.5472,1589
24.5500,1592
24.5528,1581
24.5556,1554
24.5583,1515
24.5611,1457
24.5639,1416
24.5667,1416
24.5694,1447
24.5722,1508
24.5750,1623
24.5778,1801
24.5806,2049
24.5833,2364
24.5861,2726
24.5889,3050
24.5917,3167
24.5944,2983
24.5972,2635
24.6000,2316
24.6028,2082
24.6056,1928
24.6083,1824
24.6111,1733
24.6139,1623
24.6167,1550
24.6194,1503
24.6222,1484
24.6250,1481
24.6278,1480
24.6306,1493
24.6333,1526
24.6361,1565
24.6389,1603
24.6417,1612
24.6444,1612
24.6472,1577
24.6500,1564
24.6528,1564
24.6556,1585
24.6583,1609
24.6611,1628
24.6639,1633
24.6667,1611
24.6694,1602
24.6722,1602
24.6750,1609
24.6778,1622
24.6806,1641
24.6833,1633
24.6861,1633
24.6889,1631
24.6917,1647
24.6944,1649
24.6972,1668
24.7000,1678
24.7028,1671
24.7056,1668
24.7083,1665
24.7111,1671
24.7139,1679
24.7167,1698
24.7194,1704
24.7222,1700
24.7250,1694
24.7278,1685
24.7306,1685
24.7333,1686
24.7361,1706
24.7389,1730
24.7417,1743
24.7444,1742
24.7472,1735
24.7500,1738
24.7528,1736
24.7556,1751
24.7583,1767
24.7611,1768
24.7639,1765
24.7667,1755
24.7694,1755
24.7722,1776
24.7750,1807
24.7778,1820
24.7806,1802
24.7833,1801
24.7861,1792
24.7889,1780
24.7917,1778
24.7944,1767
24.7972,1768
24.8000,1762
24.8028,1754
24.8056,1735
24.8083,1713
24.8111,1707
24.8139,1708
24.8167,1709
24.8194,1704
24.8222,1703
24.8250,1687
24.8278,1677
24.8306,1674
24.8333,1680
24.8361,1684
24.8389,1694
24.8417,1691
24.8444,1680
24.8472,1663
24.8500,1662
24.8528,1665
24.8556,1675
24.8583,1682
24.8611,1690
24.8639,1688
24.8667,1687
24.8694,1685
24.8722,1671
24.8750,1679
24.8778,1673
24.8806,1685
24.8833,1684
24.8861,1676
24.8889,1676
24.8917,1675
24.8944,1680
24.8972,1673
24.9000,1669
24.9028,1664
24.9056,1658
24.9083,1645
24.9111,1646
24.9139,1654
24.9167,1657
24.9194,1655
24.9222,1650
24.9250,1648
24.9278,1637
24.9306,1632
24.9333,1645
24.9361,1651
24.9389,1660
24.9417,1644
24.9444,1643
24.9472,1639
24.9500,1633
24.9528,1621
24.9556,1626
24.9583,1633
24.9611,1641
24.9639,1641
24.9667,1637
24.9694,1630
24.9722,1632
24.9750,1636
24.9778,1646
24.9806,1649
24.9833,1643
24.9861,1637
24.9889,1628
24.9917,1623
24.9944,1631
24.9972,1638
25.0000,1653
25.0028,1667
25.0056,1691
25.0083,1694
25.0111,1702
25.0139,1716
25.0167,1724
25.0194,1735
25.0222,1751
25.0250,1760
25.0278,1773
25.0306,1783
25.0333,1804
25.0361,1810
25.0389,1819
25.0417,1824
25.0444,1825
25.0472,1820
25.0500,1820
25.0528,1803
25.0556,1798
25.0583,1778
25.0611,1748
25.0639,1724
25.0667,1693
25.0694,1659
25.0722,1635
25.0750,1620
25.0778,1610
25.0806,1604
25.0833,1586
25.0861,1578
25.0889,1568
25.0917,1571
25.0944,1572
25.0972,1570
25.1000,1560
25.1028,1563
25.1056,1557
25.1083,1555
25.1111,1561
25.1139,1562
25.1167,1569
25.1194,1577
25.1222,1572
25.1250,1568
25.1278,1569
25.1306,1554
25.1333,1547
25.1361,1550
25.1389,1562
25.1417,1576
25.1444,1563
25.1472,1530
25.1500,1473
25.1528,1426
25.1556,1414
25.1583,1441
25.1611,1486
25.1639,1574
25.1667,1737
25.1694,1991
25.1722,2307
25.1750,2658
25.1778,3010
25.1806,3234
25.1833,3186
25.1861,2916
25.1889,2564
25.1917,2258
25.1944,2006
25.1972,1829
25.2000,1676
25.2028,1554
25.2056,1481
25.2083,1447
25.2111,1448
25.2139,1472
25.2167,1495
25.2194,1509
25.2222,1539
25.2250,1558
25.2278,1575
25.2306,1579
25.2333,1575
25.2361,1566
25.2389,1563
25.2417,1569
25.2444,1580
25.2472,1588
25.2500,1601
25.2528,1619
25.2556,1612
25.2583,1604
25.2611,1585
25.2639,1591
25.2667,1601
25.2694,1602
25.2722,1609
25.2750,1611
25.2778,1602
25.2806,1604
25.2833,1609
25.2861,1629
25.2889,1645
25.2917,1649
25.2944,1639
25.2972,1635
25.3000,1629
25.3028,1638
25.3056,1638
25.3083,1639
25.3111,1653
25.3139,1652
25.3167,1651
25.3194,1643
25.3222,1643
25.3250,1657
25.3278,1679
25.3306,1698
25.3333,1697
25.3361,1699
25.3389,1703
25.3417,1709
25.3444,1716
25.3472,1731
25.3500,1743
25.3528,1757
25.3556,1751
25.3583,1761
25.3611,1751
25.3639,1768
25.3667,1781
25.3694,1786
25.3722,1789
25.3750,1776
25.3778,1757
25.3806,1745
25.3833,1740
25.3861,1740
25.3889,1737
25.3917,1728
25.3944,1714
25.3972,1694
25.4000,1681
25.4028,1678
25.4056,1686
25.4083,1685
25.4111,1671
25.4139,1658
25.4167,1634
25.4194,1632
25.4222,1634
25.4250,1646
25.4278,1655
25.4306,1658
25.4333,1654
25.4361,1650
25.4389,1639
25.4417,1643
25.4444,1652
25.4472,1662
25.4500,1672
25.4528,1675
25.4556,1668
25.4583,1666
25.4611,1667
25.4639,1661
25.4667,1667
25.4694,1667
25.4722,1663
25.4750,1664
25.4778,1663
25.4806,1664
25.4833,1663
25.4861,1662
25.4889,1666
25.4917,1661
25.4944,1651
25.4972,1652
25.5000,1651
25.5028,1652
25.5056,1642
25.5083,1644
25.5111,1649
25.5139,1655
25.5167,1644
25.5194,1636
25.5222,1629
25.5250,1619
25.5278,1632
25.5306,1631
25.5333,1636
25.5361,1631
25.5389,1627
25.5417,1632
25.5444,1629
25.5472,1628
25.5500,1633
25.5528,1630
25.5556,1624
25.5583,1619
25.5611,1617
25.5639,1613
25.5667,1622
25.5694,1630
25.5722,1632
25.5750,1636
25.5778,1626
25.5806,1613
25.5833,1617
25.5861,1618
25.5889,1611
25.5917,1618
25.5944,1618
25.5972,1620
25.6000,1625
25.6028,1628
25.6056,1635
25.6083,1635
25.6111,1634
25.6139,1645
25.6167,1655
25.6194,1664
25.6222,1678
25.6250,1696
25.6278,1711
25.6306,1719
25.6333,1726
25.6361,1723
25.6389,1733
25.6417,1753
25.6444,1781
25.6472,1802
25.6500,1813
25.6528,1816
25.6556,1817
25.6583,1824
25.6611,1826
25.6639,1832
25.6667,1842
25.6694,1838
25.6722,1829
25.6750,1802
25.6778,1768
25.6806,1731
25.6833,1691
25.6861,1666
25.6889,1656
25.6917,1648
25.6944,1630
25.6972,1609
25.7000,1603
25.7028,1586
25.7056,1588
25.7083,1574
25.7111,1573
25.7139,1566
25.7167,1574
25.7194,1582
25.7222,1577
25.7250,1575
25.7278,1570
25.7306,1575
25.7333,1574
25.7361,1580
25.7389,1583
25.7417,1586
25.7444,1585
25.7472,1583
25.7500,1582
25.7528,1574
25.7556,1579
25.7583,1582
25.7611,1576
25.7639,1543
25.7667,1483
25.7694,1423
25.7722,1403
25.7750,1420
25.7778,1450
25.7806,1547
25.7833,1710
25.7861,1960
25.7889,2263
25.7917,2613
25.7944,2964
25.7972,3201
25.8000,3205
25.8028,2971
25.8056,2662
25.8083,2355
25.8111,2083
25.8139,1872
25.8167,1702
25.8194,1566
25.8222,1494
25.8250,1465
25.8278,1471
25.8306,1493
25.8333,1510
25.8361,1517
25.8389,1538
25.8417,1562
25.8444,1580
25.8472,1595
25.8500,1592
25.8528,1572
25.8556,1562
25.8583,1565
25.8611,1577
25.8639,1595
25.8667,1617
25.8694,1619
25.8722,1614
25.8750,1599
25.8778,1601
25.8806,1606
25.8833,1629
25.8861,1638
25.8889,1643
25.8917,1633
25.8944,1620
25.8972,1618
25.9000,1619
25.9028,1630
25.9056,1640
25.9083,1644
25.9111,1647
25.9139,1644
25.9167,1641
25.9194,1655
25.9222,1657
25.9250,1673
25.9278,1672
25.9306,1670
25.9333,1663
25.9361,1658
25.9389,1669
25.9417,1670
25.9444,1694
25.9472,1703
25.9500,1707
25.9528,1712
25.9556,1710
25.9583,1713
25.9611,1715
25.9639,1731
25.9667,1742
25.9694,1740
25.9722,1744
25.9750,1758
25.9778,1764
25.9806,1770
25.9833,1791
25.9861,1815
25.9889,1817
25.9917,1807
25.9944,1787
25.9972,1766
26.0000,1757
26.0028,1748
26.0056,1747
26.0083,1747
26.0111,1731
26.0139,1716
26.0167,1700
26.0194,1691
26.0222,1682
26.0250,1684
26.0278,1682
26.0306,1683
26.0333,1687
26.0361,1675
26.0389,1670
26.0417,1659
26.0444,1663
26.0472,1655
26.0500,1662
26.0528,1665
26.0556,1663
26.0583,1654
26.0611,1663
26.0639,1666
26.0667,1665
26.0694,1671
26.0722,1665
26.0750,1657
26.0778,1645
26.0806,1655
26.0833,1658
26.0861,1660
26.0889,1667
26.0917,1667
26.0944,1655
26.0972,1661
26.1000,1651
26.1028,1646
26.1056,1660
26.1083,1663
26.1111,1668
26.1139,1662
26.1167,1651
26.1194,1645
26.1222,1632
26.1250,1640
26.1278,1645
26.1306,1643
26.1333,1636
26.1361,1633
26.1389,1633
26.1417,1637
26.1444,1643
26.1472,1638
26.1500,1634
26.1528,1624
26.1556,1616
26.1583,1615
26.1611,1623
26.1639,1634
26.1667,1636
26.1694,1633
26.1722,1632
26.1750,1634
26.1778,1626
26.1806,1622
26.1833,1623
26.1861,1618
26.1889,1620
26.1917,1613
26.1944,1601
26.1972,1600
26.2000,1603
26.2028,1618
26.2056,1615
26.2083,1630
26.2111,1619
26.2139,1622
26.2167,1619
26.2194,1611
26.2222,1613
26.2250,1622
26.2278,1621
26.2306,1621
26.2333,1610
26.2361,1612
26.2389,1626
26.2417,1633
26.2444,1651
26.2472,1679
26.2500,1702
26.2528,1724
26.2556,1734
26.2583,1735
26.2611,1744
26.2639,1751
26.2667,1762
26.2694,1777
26.2722,1790
26.2750,1789
26.2778,1812
26.2806,1818
26.2833,1831
26.2861,1839
26.2889,1842
26.2917,1831
26.2944,1825
26.2972,1805
26.3000,1795
26.3028,1764
26.3056,1749
26.3083,1709
26.3111,1688
26.3139,1652
26.3167,1627
26.3194,1608
26.3222,1601
26.3250,1603
26.3278,1604
26.3306,1609
26.3333,1606
26.3361,1594
26.3389,1592
26.3417,1587
26.3444,1594
26.3472,1601
26.3500,1602
26.3528,1593
26.3556,1587
26.3583,1588
26.3611,1587
26.3639,1582
26.3667,1584
26.3694,1584
26.3722,1576
26.3750,1581
26.3778,1581
26.3806,1578
26.3833,1588
26.3861,1580
26.3889,1550
26.3917,1508
26.3944,1458
26.3972,1422
26.4000,1435
26.4028,1450
26.4056,1507
