Tiempo(s),Valor_ADC
0.0028,1882
0.0056,1839
0.0083,1795
0.0111,1754
0.0139,1731
0.0167,1727
0.0194,1717
0.0222,1690
0.0250,1647
0.0278,1599
0.0306,1573
0.0333,1541
0.0361,1520
0.0389,1516
0.0417,1537
0.0444,1554
0.0472,1570
0.0500,1590
0.0528,1615
0.0556,1628
0.0583,1635
0.0611,1640
0.0639,1640
0.0667,1665
0.0694,1664
0.0722,1681
0.0750,1673
0.0778,1667
0.0806,1659
0.0833,1648
0.0861,1652
0.0889,1655
0.0917,1657
0.0944,1648
0.0972,1652
0.1000,1651
0.1028,1652
0.1056,1646
0.1083,1637
0.1111,1651
0.1139,1656
0.1167,1657
0.1194,1654
0.1222,1660
0.1250,1648
0.1278,1658
0.1306,1658
0.1333,1651
0.1361,1653
0.1389,1653
0.1417,1653
0.1444,1654
0.1472,1662
0.1500,1667
0.1528,1674
0.1556,1673
0.1583,1668
0.1611,1665
0.1639,1671
0.1667,1675
0.1694,1685
0.1722,1690
0.1750,1684
0.1778,1680
0.1806,1680
0.1833,1688
0.1861,1683
0.1889,1819
0.1917,1824
0.1944,1819
0.1972,1825
0.2000,1819
0.2028,1817
0.2056,1826
0.2083,1823
0.2111,1830
0.2139,1833
0.2167,1829
0.2194,1820
0.2222,1813
0.2250,1803
0.2278,1795
0.2306,1791
0.2333,1794
0.2361,1785
0.2389,1783
0.2417,1781
0.2444,1770
0.2472,1763
0.2500,1757
0.2528,1745
0.2556,1743
0.2583,1741
0.2611,1740
0.2639,1732
0.2667,1721
0.2694,1715
0.2722,1716
0.2750,1710
0.2778,1709
0.2806,1710
0.2833,1714
0.2861,1725
0.2889,1712
0.2917,1717
0.2944,1721
0.2972,1705
0.3000,1700
0.3028,1691
0.3056,1688
0.3083,1680
0.3111,1681
0.3139,1679
0.3167,1687
0.3194,1688
0.3222,1681
0.3250,1683
0.3278,1681
0.3306,1678
0.3333,1689
0.3361,1693
0.3389,1704
0.3417,1710
0.3444,1706
0.3472,1704
0.3500,1699
0.3528,1691
0.3556,1688
0.3583,1687
0.3611,1689
0.3639,1694
0.3667,1694
0.3694,1698
0.3722,1701
0.3750,1693
0.3778,1699
0.3806,1707
0.3833,1704
0.3861,1713
0.3889,1721
0.3917,1717
0.3944,1707
0.3972,1711
0.4000,1704
0.4028,1698
0.4056,1697
0.4083,1696
0.4111,1694
0.4139,1699
0.4167,1709
0.4194,1710
0.4222,1713
0.4250,1713
0.4278,1710
0.4306,1714
0.4333,1711
0.4361,1702
0.4389,1703
0.4417,1702
0.4444,1704
0.4472,1712
0.4500,1703
0.4528,1705
0.4556,1709
0.4583,1703
0.4611,1712
0.4639,1705
0.4667,1693
0.4694,1696
0.4722,1689
0.4750,1689
0.4778,1696
0.4806,1694
0.4833,1702
0.4861,1708
0.4889,1707
0.4917,1704
0.4944,1701
0.4972,1713
0.5000,1703
0.5028,1708
0.5056,1704
0.5083,1709
0.5111,1706
0.5139,1712
0.5167,1718
0.5194,1720
0.5222,1723
0.5250,1722
0.5278,1720
0.5306,1723
0.5333,1729
0.5361,1733
0.5389,1728
0.5417,1725
0.5444,1732
0.5472,1734
0.5500,1730
0.5528,1729
0.5556,1727
0.5583,1730
0.5611,1737
0.5639,1733
0.5667,1739
0.5694,1738
0.5722,1736
0.5750,1733
0.5778,1732
0.5806,1735
0.5833,1735
0.5861,1737
0.5889,1740
0.5917,1743
0.5944,1762
0.5972,1758
0.6000,1746
0.6028,1742
0.6056,1734
0.6083,1736
0.6111,1732
0.6139,1740
0.6167,1734
0.6194,1752
0.6222,1748
0.6250,1752
0.6278,1759
0.6306,1763
0.6333,1757
0.6361,1773
0.6389,1774
0.6417,1790
0.6444,1794
0.6472,1794
0.6500,1787
0.6528,1779
0.6556,1779
0.6583,1776
0.6611,1781
0.6639,1786
0.6667,1793
0.6694,1800
0.6722,1801
0.6750,1795
0.6778,1789
0.6806,1773
0.6833,1782
0.6861,1782
0.6889,1792
0.6917,1790
0.6944,1789
0.6972,1780
0.7000,1776
0.7028,1786
0.7056,1788
0.7083,1814
0.7111,1837
0.7139,1861
0.7167,1857
0.7194,1818
0.7222,1769
0.7250,1704
0.7278,1664
0.7306,1632
0.7333,1643
0.7361,1690
0.7389,1752
0.7417,1823
0.7444,1879
0.7472,1934
0.7500,1942
0.7528,1919
0.7556,1870
0.7583,1818
0.7611,1790
0.7639,1790
0.7667,1798
0.7694,1790
0.7722,1780
0.7750,1746
0.7778,1708
0.7806,1669
0.7833,1648
0.7861,1628
0.7889,1628
0.7917,1655
0.7944,1679
0.7972,1705
0.8000,1723
0.8028,1749
0.8056,1757
0.8083,1781
0.8111,1781
0.8139,1784
0.8167,1781
0.8194,1787
0.8222,1792
0.8250,1795
0.8278,1793
0.8306,1789
0.8333,1793
0.8361,1791
0.8389,1787
0.8417,1784
0.8444,1784
0.8472,1785
0.8500,1793
0.8528,1790
0.8556,1791
0.8583,1793
0.8611,1795
0.8639,1785
0.8667,1784
0.8694,1779
0.8722,1775
0.8750,1775
0.8778,1778
0.8806,1789
0.8833,1778
0.8861,1787
0.8889,1777
0.8917,1770
0.8944,1775
0.8972,1779
0.9000,1787
0.9028,1787
0.9056,1789
0.9083,1777
0.9111,1774
0.9139,1785
0.9167,1781
0.9194,1788
0.9222,1790
0.9250,1792
0.9278,1784
0.9306,1784
0.9333,1784
0.9361,1788
0.9389,1884
0.9417,1883
0.9444,1874
0.9472,1878
0.9500,1883
0.9528,1883
0.9556,1881
0.9583,1886
0.9611,1885
0.9639,1873
0.9667,1878
0.9694,1869
0.9722,1867
0.9750,1864
0.9778,1856
0.9806,1853
0.9833,1846
0.9861,1838
0.9889,1827
0.9917,1815
0.9944,1812
0.9972,1809
1.0000,1800
1.0028,1798
1.0056,1793
1.0083,1786
1.0111,1782
1.0139,1780
1.0167,1769
1.0194,1755
1.0222,1742
1.0250,1734
1.0278,1726
1.0306,1730
1.0333,1741
1.0361,1739
1.0389,1737
1.0417,1727
1.0444,1715
1.0472,1704
1.0500,1700
1.0528,1690
1.0556,1697
1.0583,1697
1.0611,1694
1.0639,1695
1.0667,1691
1.0694,1688
1.0722,1683
1.0750,1683
1.0778,1692
1.0806,1680
1.0833,1688
1.0861,1677
1.0889,1672
1.0917,1675
1.0944,1677
1.0972,1691
1.1000,1686
1.1028,1696
1.1056,1694
1.1083,1703
1.1111,1700
1.1139,1707
1.1167,1703
1.1194,1692
1.1222,1693
1.1250,1706
1.1278,1704
1.1306,1706
1.1333,1712
1.1361,1722
1.1389,1721
1.1417,1717
1.1444,1719
1.1472,1720
1.1500,1722
1.1528,1722
1.1556,1718
1.1583,1713
1.1611,1716
1.1639,1720
1.1667,1720
1.1694,1718
1.1722,1721
1.1750,1727
1.1778,1726
1.1806,1729
1.1833,1731
1.1861,1734
1.1889,1736
1.1917,1730
1.1944,1729
1.1972,1725
1.2000,1728
1.2028,1729
1.2056,1729
1.2083,1734
1.2111,1738
1.2139,1736
1.2167,1731
1.2194,1725
1.2222,1721
1.2250,1720
1.2278,1713
1.2306,1709
1.2333,1716
1.2361,1717
1.2389,1718
1.2417,1725
1.2444,1719
1.2472,1719
1.2500,1723
1.2528,1722
1.2556,1712
1.2583,1717
1.2611,1710
1.2639,1709
1.2667,1696
1.2694,1691
1.2722,1688
1.2750,1689
1.2778,1699
1.2806,1697
1.2833,1690
1.2861,1700
1.2889,1699
1.2917,1703
1.2944,1693
1.2972,1696
1.3000,1696
1.3028,1698
1.3056,1699
1.3083,1704
1.3111,1695
1.3139,1690
1.3167,1689
1.3194,1685
1.3222,1688
1.3250,1691
1.3278,1696
1.3306,1692
1.3333,1690
1.3361,1693
1.3389,1699
1.3417,1705
1.3444,1706
1.3472,1707
1.3500,1713
1.3528,1724
1.3556,1722
1.3583,1723
1.3611,1721
1.3639,1708
1.3667,1715
1.3694,1710
1.3722,1700
1.3750,1706
1.3778,1705
1.3806,1701
1.3833,1702
1.3861,1708
1.3889,1708
1.3917,1706
1.3944,1703
1.3972,1705
1.4000,1701
1.4028,1709
1.4056,1721
1.4083,1717
1.4111,1709
1.4139,1708
1.4167,1703
1.4194,1702
1.4222,1694
1.4250,1695
1.4278,1693
1.4306,1699
1.4333,1692
1.4361,1686
1.4389,1687
1.4417,1680
1.4444,1681
1.4472,1677
1.4500,1680
1.4528,1680
1.4556,1686
1.4583,1678
1.4611,1679
1.4639,1683
1.4667,1698
1.4694,1734
1.4722,1761
1.4750,1772
1.4778,1736
1.4806,1673
1.4833,1612
1.4861,1567
1.4889,1538
1.4917,1542
1.4944,1577
1.4972,1638
1.5000,1707
1.5028,1773
1.5056,1828
1.5083,1851
1.5111,1840
1.5139,1782
1.5167,1731
1.5194,1712
1.5222,1688
1.5250,1693
1.5278,1705
1.5306,1678
1.5333,1653
1.5361,1617
1.5389,1581
1.5417,1547
1.5444,1527
1.5472,1536
1.5500,1549
1.5528,1579
1.5556,1605
1.5583,1631
1.5611,1663
1.5639,1691
1.5667,1702
1.5694,1708
1.5722,1697
1.5750,1699
1.5778,1700
1.5806,1702
1.5833,1705
1.5861,1693
1.5889,1694
1.5917,1696
1.5944,1694
1.5972,1713
1.6000,1710
1.6028,1718
1.6056,1712
1.6083,1709
1.6111,1710
1.6139,1704
1.6167,1705
1.6194,1716
1.6222,1710
1.6250,1718
1.6278,1709
1.6306,1711
1.6333,1720
1.6361,1720
1.6389,1729
1.6417,1725
1.6444,1728
1.6472,1725
1.6500,1729
1.6528,1723
1.6556,1722
1.6583,1720
1.6611,1725
1.6639,1725
1.6667,1733
1.6694,1739
1.6722,1745
1.6750,1744
1.6778,1744
1.6806,1756
1.6833,1763
1.6861,1756
1.6889,1754
1.6917,1753
1.6944,1752
1.6972,1897
1.7000,1888
1.7028,1895
1.7056,1898
1.7083,1903
1.7111,1897
1.7139,1896
1.7167,1897
1.7194,1895
1.7222,1892
1.7250,1898
1.7278,1896
1.7306,1890
1.7333,1892
1.7361,1884
1.7389,1877
1.7417,1870
1.7444,1864
1.7472,1852
1.7500,1848
1.7528,1844
1.7556,1842
1.7583,1836
1.7611,1830
1.7639,1835
1.7667,1829
1.7694,1828
1.7722,1811
1.7750,1802
1.7778,1795
1.7806,1791
1.7833,1787
1.7861,1790
1.7889,1793
1.7917,1785
1.7944,1787
1.7972,1779
1.8000,1776
1.8028,1772
1.8056,1761
1.8083,1754
1.8111,1751
1.8139,1758
1.8167,1752
1.8194,1748
1.8222,1748
1.8250,1750
1.8278,1750
1.8306,1750
1.8333,1758
1.8361,1765
1.8389,1760
1.8417,1760
1.8444,1754
1.8472,1756
1.8500,1770
1.8528,1762
1.8556,1772
1.8583,1777
1.8611,1775
1.8639,1774
1.8667,1774
1.8694,1773
1.8722,1772
1.8750,1765
1.8778,1770
1.8806,1776
1.8833,1779
1.8861,1787
1.8889,1795
1.8917,1805
1.8944,1800
1.8972,1791
1.9000,1786
1.9028,1777
1.9056,1777
1.9083,1768
1.9111,1771
1.9139,1767
1.9167,1759
1.9194,1752
1.9222,1755
1.9250,1756
1.9278,1760
1.9306,1753
1.9333,1754
1.9361,1764
1.9389,1759
1.9417,1751
1.9444,1757
1.9472,1752
1.9500,1770
1.9528,1761
1.9556,1763
1.9583,1760
1.9611,1758
1.9639,1759
1.9667,1751
1.9694,1754
1.9722,1759
1.9750,1767
1.9778,1765
1.9806,1773
1.9833,1778
1.9861,1778
1.9889,1776
1.9917,1776
1.9944,1768
1.9972,1764
2.0000,1765
2.0028,1758
2.0056,1763
2.0083,1763
2.0111,1777
2.0139,1773
2.0167,1766
2.0194,1759
2.0222,1757
2.0250,1751
2.0278,1751
2.0306,1762
2.0333,1766
2.0361,1757
2.0389,1759
2.0417,1756
2.0444,1750
2.0472,1759
2.0500,1753
2.0528,1744
2.0556,1749
2.0583,1742
2.0611,1756
2.0639,1757
2.0667,1759
2.0694,1757
2.0722,1760
2.0750,1761
2.0778,1751
2.0806,1749
2.0833,1752
2.0861,1750
2.0889,1754
2.0917,1750
2.0944,1761
2.0972,1760
2.1000,1770
2.1028,1765
2.1056,1763
2.1083,1763
2.1111,1761
2.1139,1765
2.1167,1776
2.1194,1779
2.1222,1785
2.1250,1782
2.1278,1765
2.1306,1762
2.1333,1754
2.1361,1754
2.1389,1765
2.1417,1763
2.1444,1759
2.1472,1759
2.1500,1760
2.1528,1762
2.1556,1765
2.1583,1763
2.1611,1769
2.1639,1772
2.1667,1770
2.1694,1759
2.1722,1754
2.1750,1736
2.1778,1729
2.1806,1718
2.1833,1714
2.1861,1723
2.1889,1727
2.1917,1732
2.1944,1727
2.1972,1729
2.2000,1748
2.2028,1784
2.2056,1811
2.2083,1828
2.2111,1807
2.2139,1748
2.2167,1680
2.2194,1630
2.2222,1609
2.2250,1614
2.2278,1650
2.2306,1706
2.2333,1774
2.2361,1827
2.2389,1873
2.2417,1917
2.2444,1918
2.2472,1900
2.2500,1856
2.2528,1818
2.2556,1793
2.2583,1782
2.2611,1783
2.2639,1765
2.2667,1718
2.2694,1685
2.2722,1650
2.2750,1609
2.2778,1587
2.2806,1576
2.2833,1588
2.2861,1616
2.2889,1635
2.2917,1666
2.2944,1694
2.2972,1711
2.3000,1719
2.3028,1732
2.3056,1728
2.3083,1723
2.3111,1737
2.3139,1737
2.3167,1731
2.3194,1729
2.3222,1728
2.3250,1728
2.3278,1735
2.3306,1739
2.3333,1748
2.3361,1751
2.3389,1751
2.3417,1751
2.3444,1739
2.3472,1727
2.3500,1733
2.3528,1736
2.3556,1737
2.3583,1739
2.3611,1741
2.3639,1738
2.3667,1732
2.3694,1726
2.3722,1730
2.3750,1730
2.3778,1736
2.3806,1726
2.3833,1725
2.3861,1718
2.3889,1726
2.3917,1715
2.3944,1724
2.3972,1729
2.4000,1728
2.4028,1730
2.4056,1730
2.4083,1725
2.4111,1726
2.4139,1726
2.4167,1723
2.4194,1724
2.4222,1714
2.4250,1725
2.4278,1716
2.4306,1852
2.4333,1854
2.4361,1873
2.4389,1867
2.4417,1875
2.4444,1877
2.4472,1873
2.4500,1867
2.4528,1871
2.4556,1875
2.4583,1889
2.4611,1887
2.4639,1862
2.4667,1847
2.4694,1827
2.4722,1825
2.4750,1821
2.4778,1815
2.4806,1815
2.4833,1810
2.4861,1804
2.4889,1806
2.4917,1802
2.4944,1800
2.4972,1797
2.5000,1787
2.5028,1774
2.5056,1767
2.5083,1758
2.5111,1752
2.5139,1760
2.5167,1746
2.5194,1739
2.5222,1739
2.5250,1741
2.5278,1737
2.5306,1734
2.5333,1725
2.5361,1735
2.5389,1730
2.5417,1721
2.5444,1716
2.5472,1711
2.5500,1701
2.5528,1698
2.5556,1698
2.5583,1703
2.5611,1696
2.5639,1703
2.5667,1696
2.5694,1696
2.5722,1691
2.5750,1684
2.5778,1678
2.5806,1682
2.5833,1684
2.5861,1679
2.5889,1682
2.5917,1680
2.5944,1684
2.5972,1690
2.6000,1702
2.6028,1695
2.6056,1687
2.6083,1681
2.6111,1673
2.6139,1682
2.6167,1670
2.6194,1687
2.6222,1689
2.6250,1700
2.6278,1694
2.6306,1689
2.6333,1689
2.6361,1690
2.6389,1692
2.6417,1688
2.6444,1688
2.6472,1684
2.6500,1681
2.6528,1680
2.6556,1677
2.6583,1688
2.6611,1685
2.6639,1683
2.6667,1686
2.6694,1677
2.6722,1680
2.6750,1677
2.6778,1679
2.6806,1672
2.6833,1681
2.6861,1683
2.6889,1680
2.6917,1682
2.6944,1683
2.6972,1684
2.7000,1672
2.7028,1685
2.7056,1686
2.7083,1680
2.7111,1686
2.7139,1682
2.7167,1682
2.7194,1682
2.7222,1670
2.7250,1670
2.7278,1667
2.7306,1671
2.7333,1673
2.7361,1675
2.7389,1681
2.7417,1672
2.7444,1676
2.7472,1676
2.7500,1679
2.7528,1681
2.7556,1693
2.7583,1683
2.7611,1688
2.7639,1688
2.7667,1683
2.7694,1682
2.7722,1681
2.7750,1678
2.7778,1674
2.7806,1677
2.7833,1673
2.7861,1680
2.7889,1678
2.7917,1673
2.7944,1672
2.7972,1687
2.8000,1688
2.8028,1692
2.8056,1711
2.8083,1705
2.8111,1705
2.8139,1710
2.8167,1710
2.8194,1706
2.8222,1704
2.8250,1709
2.8278,1717
2.8306,1727
2.8333,1733
2.8361,1735
2.8389,1730
2.8417,1726
2.8444,1717
2.8472,1711
2.8500,1710
2.8528,1714
2.8556,1720
2.8583,1712
2.8611,1713
2.8639,1716
2.8667,1717
2.8694,1721
2.8722,1717
2.8750,1711
2.8778,1725
2.8806,1737
2.8833,1744
2.8861,1755
2.8889,1753
2.8917,1743
2.8944,1753
2.8972,1745
2.9000,1743
2.9028,1731
2.9056,1739
2.9083,1742
2.9111,1737
2.9139,1733
2.9167,1725
2.9194,1717
2.9222,1709
2.9250,1711
2.9278,1701
2.9306,1698
2.9333,1696
2.9361,1691
2.9389,1693
2.9417,1693
2.9444,1701
2.9472,1724
2.9500,1752
2.9528,1768
2.9556,1752
2.9583,1696
2.9611,1639
2.9639,1590
2.9667,1546
2.9694,1550
2.9722,1580
2.9750,1632
2.9778,1696
2.9806,1748
2.9833,1793
2.9861,1823
2.9889,1830
2.9917,1802
2.9944,1752
2.9972,1715
3.0000,1701
3.0028,1701
3.0056,1709
3.0083,1699
3.0111,1664
3.0139,1628
3.0167,1588
3.0194,1556
3.0222,1535
3.0250,1535
3.0278,1549
3.0306,1565
3.0333,1585
3.0361,1614
3.0389,1638
3.0417,1658
3.0444,1668
3.0472,1677
3.0500,1679
3.0528,1682
3.0556,1677
3.0583,1679
3.0611,1683
3.0639,1675
3.0667,1670
3.0694,1665
3.0722,1665
3.0750,1669
3.0778,1667
3.0806,1669
3.0833,1667
3.0861,1671
3.0889,1670
3.0917,1674
3.0944,1680
3.0972,1680
3.1000,1678
3.1028,1679
3.1056,1678
3.1083,1678
3.1111,1676
3.1139,1683
3.1167,1682
3.1194,1677
3.1222,1682
3.1250,1691
3.1278,1697
3.1306,1689
3.1333,1692
3.1361,1695
3.1389,1703
3.1417,1708
3.1444,1706
3.1472,1705
3.1500,1700
3.1528,1710
3.1556,1714
3.1583,1827
3.1611,1830
3.1639,1832
3.1667,1842
3.1694,1853
3.1722,1865
3.1750,1898
3.1778,1925
3.1806,1923
3.1833,1869
3.1861,1811
3.1889,1757
3.1917,1716
3.1944,1697
3.1972,1701
3.2000,1713
3.2028,1742
3.2056,1772
3.2083,1795
3.2111,1804
3.2139,1804
3.2167,1794
3.2194,1783
3.2222,1773
3.2250,1771
3.2278,1757
3.2306,1770
3.2333,1859
3.2361,1990
3.2389,2137
3.2417,2258
3.2444,2349
3.2472,2393
3.2500,2417
3.2528,2421
3.2556,2401
3.2583,2383
3.2611,2370
3.2639,2356
3.2667,2344
3.2694,2327
3.2722,2311
3.2750,2291
3.2778,2269
3.2806,2244
3.2833,2234
3.2861,2217
3.2889,2208
3.2917,2196
3.2944,2169
3.2972,2157
3.3000,2124
3.3028,2105
3.3056,2097
3.3083,2090
3.3111,2074
3.3139,2064
3.3167,2052
3.3194,2048
3.3222,2036
3.3250,2021
3.3278,2013
3.3306,2015
3.3333,2001
3.3361,1984
3.3389,1979
3.3417,1971
3.3444,1966
3.3472,1969
3.3500,1972
3.3528,1978
3.3556,1975
3.3583,1970
3.3611,1965
3.3639,1969
3.3667,1979
3.3694,1988
3.3722,1985
3.3750,1977
3.3778,1979
3.3806,1964
3.3833,1964
3.3861,1976
3.3889,1978
3.3917,1982
3.3944,1981
3.3972,1984
3.4000,1985
3.4028,1988
3.4056,1992
3.4083,1982
3.4111,1988
3.4139,1988
3.4167,1992
3.4194,1990
3.4222,1983
3.4250,1980
3.4278,1986
3.4306,1987
3.4333,1986
3.4361,1983
3.4389,1984
3.4417,1977
3.4444,1975
3.4472,1979
3.4500,1979
3.4528,1971
3.4556,1973
3.4583,1970
3.4611,1972
3.4639,1973
3.4667,1984
3.4694,1999
3.4722,2006
3.4750,2013
3.4778,2005
3.4806,2009
3.4833,1998
3.4861,1998
3.4889,1994
3.4917,1993
3.4944,1991
3.4972,1974
3.5000,1966
3.5028,1955
3.5056,1940
3.5083,1944
3.5111,1944
3.5139,1945
3.5167,1948
3.5194,1928
3.5222,1921
3.5250,1901
3.5278,1895
3.5306,1893
3.5333,1873
3.5361,1868
3.5389,1855
3.5417,1843
3.5444,1823
3.5472,1818
3.5500,1808
3.5528,1802
3.5556,1791
3.5583,1782
3.5611,1778
3.5639,1775
3.5667,1772
3.5694,1768
3.5722,1765
3.5750,1761
3.5778,1753
3.5806,1746
3.5833,1756
3.5861,1743
3.5889,1740
3.5917,1734
3.5944,1720
3.5972,1710
3.6000,1696
3.6028,1674
3.6056,1655
3.6083,1641
3.6111,1626
3.6139,1622
3.6167,1614
3.6194,1610
3.6222,1611
3.6250,1598
3.6278,1603
3.6306,1610
3.6333,1625
3.6361,1629
3.6389,1635
3.6417,1625
3.6444,1622
3.6472,1611
3.6500,1608
3.6528,1612
3.6556,1608
3.6583,1605
3.6611,1598
3.6639,1594
3.6667,1593
3.6694,1586
3.6722,1587
3.6750,1584
3.6778,1579
3.6806,1566
3.6833,1563
3.6861,1554
3.6889,1545
3.6917,1539
3.6944,1528
3.6972,1525
3.7000,1524
3.7028,1544
3.7056,1568
3.7083,1588
3.7111,1559
3.7139,1507
3.7167,1453
3.7194,1391
3.7222,1349
3.7250,1344
3.7278,1375
3.7306,1441
3.7333,1522
3.7361,1579
3.7389,1630
3.7417,1680
3.7444,1688
3.7472,1650
3.7500,1593
3.7528,1544
3.7556,1524
3.7583,1527
3.7611,1547
3.7639,1541
3.7667,1522
3.7694,1498
3.7722,1466
3.7750,1451
3.7778,1430
3.7806,1439
3.7833,1472
3.7861,1498
3.7889,1549
3.7917,1579
3.7944,1615
3.7972,1639
3.8000,1651
3.8028,1653
3.8056,1644
3.8083,1635
3.8111,1634
3.8139,1623
3.8167,1632
3.8194,1625
3.8222,1629
3.8250,1631
3.8278,1641
3.8306,1649
3.8333,1650
3.8361,1647
3.8389,1643
3.8417,1635
3.8444,1633
3.8472,1628
3.8500,1635
3.8528,1636
3.8556,1641
3.8583,1637
3.8611,1622
3.8639,1618
3.8667,1619
3.8694,1610
3.8722,1612
3.8750,1603
3.8778,1599
3.8806,1611
3.8833,1613
3.8861,1621
3.8889,1626
3.8917,1627
3.8944,1638
3.8972,1633
3.9000,1639
3.9028,1637
3.9056,1640
3.9083,1637
3.9111,1651
3.9139,1646
3.9167,1638
3.9194,1644
3.9222,1643
3.9250,1650
3.9278,1649
3.9306,1695
3.9333,1690
3.9361,1697
3.9389,1694
3.9417,1697
3.9444,1698
3.9472,1700
3.9500,1698
3.9528,1704
3.9556,1698
3.9583,1691
3.9611,1692
3.9639,1695
3.9667,1696
3.9694,1688
3.9722,1683
3.9750,1667
3.9778,1674
3.9806,1649
3.9833,1652
3.9861,1651
3.9889,1658
3.9917,1658
3.9944,1651
3.9972,1648
4.0000,1645
4.0028,1630
4.0056,1621
4.0083,1618
4.0111,1612
4.0139,1609
4.0167,1600
4.0194,1595
4.0222,1590
4.0250,1590
4.0278,1590
4.0306,1598
4.0333,1591
4.0361,1590
4.0389,1590
4.0417,1595
4.0444,1599
4.0472,1597
4.0500,1596
4.0528,1591
4.0556,1585
4.0583,1586
4.0611,1579
4.0639,1579
4.0667,1579
4.0694,1570
4.0722,1574
4.0750,1576
4.0778,1573
4.0806,1571
4.0833,1570
4.0861,1576
4.0889,1580
4.0917,1580
4.0944,1575
4.0972,1580
4.1000,1589
4.1028,1586
4.1056,1585
4.1083,1590
4.1111,1592
4.1139,1594
4.1167,1594
4.1194,1594
4.1222,1579
4.1250,1586
4.1278,1580
4.1306,1585
4.1333,1591
4.1361,1597
4.1389,1599
4.1417,1605
4.1444,1599
4.1472,1584
4.1500,1577
4.1528,1579
4.1556,1591
4.1583,1592
4.1611,1600
4.1639,1607
4.1667,1619
4.1694,1618
4.1722,1626
4.1750,1626
4.1778,1628
4.1806,1628
4.1833,1631
4.1861,1630
4.1889,1634
4.1917,1634
4.1944,1624
4.1972,1625
4.2000,1626
4.2028,1624
4.2056,1625
4.2083,1626
4.2111,1619
4.2139,1605
4.2167,1585
4.2194,1568
4.2222,1574
4.2250,1573
4.2278,1586
4.2306,1588
4.2333,1589
4.2361,1595
4.2389,1586
4.2417,1568
4.2444,1564
4.2472,1550
4.2500,1549
4.2528,1551
4.2556,1558
4.2583,1559
4.2611,1550
4.2639,1551
4.2667,1543
4.2694,1553
4.2722,1556
4.2750,1556
4.2778,1562
4.2806,1560
4.2833,1571
4.2861,1569
4.2889,1576
4.2917,1578
4.2944,1578
4.2972,1575
4.3000,1584
4.3028,1576
4.3056,1577
4.3083,1589
4.3111,1599
4.3139,1598
4.3167,1615
4.3194,1616
4.3222,1625
4.3250,1626
4.3278,1633
4.3306,1643
4.3333,1644
4.3361,1646
4.3389,1646
4.3417,1646
4.3444,1649
4.3472,1647
4.3500,1649
4.3528,1653
4.3556,1662
4.3583,1666
4.3611,1677
4.3639,1686
4.3667,1685
4.3694,1687
4.3722,1683
4.3750,1685
4.3778,1694
4.3806,1688
4.3833,1690
4.3861,1700
4.3889,1710
4.3917,1716
4.3944,1716
4.3972,1724
4.4000,1736
4.4028,1747
4.4056,1742
4.4083,1743
4.4111,1734
4.4139,1732
4.4167,1733
4.4194,1737
4.4222,1749
4.4250,1747
4.4278,1739
4.4306,1750
4.4333,1746
4.4361,1747
4.4389,1750
4.4417,1774
4.4444,1800
4.4472,1811
4.4500,1788
4.4528,1750
4.4556,1689
4.4583,1651
4.4611,1627
4.4639,1636
4.4667,1664
4.4694,1711
4.4722,1782
4.4750,1848
4.4778,1892
4.4806,1935
4.4833,1937
4.4861,1905
4.4889,1864
4.4917,1827
4.4944,1801
4.4972,1799
4.5000,1810
4.5028,1804
4.5056,1775
4.5083,1737
4.5111,1694
4.5139,1652
4.5167,1617
4.5194,1613
4.5222,1613
4.5250,1644
4.5278,1666
4.5306,1701
4.5333,1742
4.5361,1760
4.5389,1775
4.5417,1771
4.5444,1771
4.5472,1766
4.5500,1773
4.5528,1780
4.5556,1780
4.5583,1784
4.5611,1792
4.5639,1801
4.5667,1805
4.5694,1805
4.5722,1809
4.5750,1809
4.5778,1810
4.5806,1818
4.5833,1809
4.5861,1799
4.5889,1799
4.5917,1803
4.5944,1804
4.5972,1800
4.6000,1802
4.6028,1801
4.6056,1797
4.6083,1809
4.6111,1810
4.6139,1825
4.6167,1819
4.6194,1822
4.6222,1821
4.6250,1825
4.6278,1830
4.6306,1832
4.6333,1827
4.6361,1833
4.6389,1833
4.6417,1828
4.6444,1830
4.6472,1830
4.6500,1833
4.6528,1834
4.6556,1831
4.6583,1831
4.6611,1831
4.6639,1825
4.6667,1837
4.6694,1949
4.6722,1956
4.6750,1957
4.6778,1965
4.6806,1967
4.6833,1966
4.6861,1958
4.6889,1960
4.6917,1953
4.6944,1960
4.6972,1949
4.7000,1940
4.7028,1930
4.7056,1923
4.7083,1918
4.7111,1911
4.7139,1912
4.7167,1907
4.7194,1893
4.7222,1888
4.7250,1889
4.7278,1874
4.7306,1873
4.7333,1862
4.7361,1860
4.7389,1854
4.7417,1843
4.7444,1838
4.7472,1820
4.7500,1810
4.7528,1791
4.7556,1789
4.7583,1792
4.7611,1790
4.7639,1792
4.7667,1783
4.7694,1780
4.7722,1776
4.7750,1765
4.7778,1750
4.7806,1751
4.7833,1746
4.7861,1749
4.7889,1743
4.7917,1742
4.7944,1737
4.7972,1735
4.8000,1720
4.8028,1728
4.8056,1720
4.8083,1728
4.8111,1720
4.8139,1714
4.8167,1706
4.8194,1706
4.8222,1714
4.8250,1712
4.8278,1712
4.8306,1710
4.8333,1711
4.8361,1710
4.8389,1706
4.8417,1714
4.8444,1708
4.8472,1700
4.8500,1706
4.8528,1705
4.8556,1719
4.8583,1710
4.8611,1703
4.8639,1710
4.8667,1712
4.8694,1705
4.8722,1711
4.8750,1710
4.8778,1720
4.8806,1721
4.8833,1723
4.8861,1720
4.8889,1720
4.8917,1717
4.8944,1730
4.8972,1733
4.9000,1742
4.9028,1741
4.9056,1733
4.9083,1737
4.9111,1727
4.9139,1735
4.9167,1738
4.9194,1732
4.9222,1719
4.9250,1720
4.9278,1710
4.9306,1713
4.9333,1724
4.9361,1722
4.9389,1719
4.9417,1727
4.9444,1712
4.9472,1712
4.9500,1712
4.9528,1711
4.9556,1718
4.9583,1709
4.9611,1711
4.9639,1711
4.9667,1716
4.9694,1721
4.9722,1730
4.9750,1723
4.9778,1717
4.9806,1721
4.9833,1720
4.9861,1718
4.9889,1717
4.9917,1724
4.9944,1718
4.9972,1714
5.0000,1708
5.0028,1703
5.0056,1704
5.0083,1701
5.0111,1712
5.0139,1705
5.0167,1711
5.0194,1706
5.0222,1712
5.0250,1713
5.0278,1709
5.0306,1718
5.0333,1711
5.0361,1717
5.0389,1718
5.0417,1722
5.0444,1722
5.0472,1726
5.0500,1729
5.0528,1723
5.0556,1733
5.0583,1731
5.0611,1727
5.0639,1737
5.0667,1738
5.0694,1731
5.0722,1751
5.0750,1738
5.0778,1741
5.0806,1733
5.0833,1733
5.0861,1724
5.0889,1721
5.0917,1710
5.0944,1714
5.0972,1708
5.1000,1718
5.1028,1720
5.1056,1719
5.1083,1736
5.1111,1741
5.1139,1737
5.1167,1725
5.1194,1736
5.1222,1734
5.1250,1733
5.1278,1728
5.1306,1728
5.1333,1729
5.1361,1725
5.1389,1713
5.1417,1711
5.1444,1709
5.1472,1707
5.1500,1704
5.1528,1703
5.1556,1688
5.1583,1685
5.1611,1675
5.1639,1675
5.1667,1665
5.1694,1669
5.1722,1672
5.1750,1671
5.1778,1680
5.1806,1682
5.1833,1689
5.1861,1700
5.1889,1719
5.1917,1748
5.1944,1745
5.1972,1707
5.2000,1643
5.2028,1594
5.2056,1544
5.2083,1525
5.2111,1540
5.2139,1576
5.2167,1632
5.2194,1704
5.2222,1750
5.2250,1802
5.2278,1819
5.2306,1806
5.2333,1769
5.2361,1724
5.2389,1692
5.2417,1679
5.2444,1687
5.2472,1689
5.2500,1660
5.2528,1629
5.2556,1590
5.2583,1549
5.2611,1515
5.2639,1496
5.2667,1495
5.2694,1510
5.2722,1530
5.2750,1563
5.2778,1591
5.2806,1614
5.2833,1627
5.2861,1637
5.2889,1642
5.2917,1641
5.2944,1639
5.2972,1642
5.3000,1647
5.3028,1656
5.3056,1642
5.3083,1651
5.3111,1652
5.3139,1661
5.3167,1655
5.3194,1664
5.3222,1658
5.3250,1667
5.3278,1667
5.3306,1678
5.3333,1675
5.3361,1676
5.3389,1675
5.3417,1681
5.3444,1682
5.3472,1684
5.3500,1683
5.3528,1692
5.3556,1692
5.3583,1692
5.3611,1703
5.3639,1701
5.3667,1706
5.3694,1710
5.3722,1711
5.3750,1712
5.3778,1712
5.3806,1707
5.3833,1704
5.3861,1703
5.3889,1705
5.3917,1704
5.3944,1713
5.3972,1717
5.4000,1720
5.4028,1730
5.4056,1726
5.4083,1728
5.4111,1726
5.4139,1723
5.4167,1890
5.4194,1887
5.4222,1899
5.4250,1908
5.4278,1907
5.4306,1901
5.4333,1901
5.4361,1903
5.4389,1910
5.4417,1911
5.4444,1911
5.4472,1908
5.4500,1909
5.4528,1906
5.4556,1903
5.4583,1894
5.4611,1881
5.4639,1878
5.4667,1881
5.4694,1876
5.4722,1865
5.4750,1855
5.4778,1850
5.4806,1841
5.4833,1841
5.4861,1838
5.4889,1830
5.4917,1824
5.4944,1805
5.4972,1804
5.5000,1796
5.5028,1792
5.5056,1787
5.5083,1785
5.5111,1787
5.5139,1773
5.5167,1788
5.5194,1784
5.5222,1782
5.5250,1786
5.5278,1778
5.5306,1772
5.5333,1778
5.5361,1769
5.5389,1767
5.5417,1775
5.5444,1774
5.5472,1783
5.5500,1779
5.5528,1778
5.5556,1772
5.5583,1756
5.5611,1767
5.5639,1759
5.5667,1769
5.5694,1767
5.5722,1769
5.5750,1773
5.5778,1773
5.5806,1774
5.5833,1779
5.5861,1782
5.5889,1786
5.5917,1790
5.5944,1780
5.5972,1780
5.6000,1776
5.6028,1778
5.6056,1781
5.6083,1786
5.6111,1792
5.6139,1795
5.6167,1787
5.6194,1785
5.6222,1785
5.6250,1786
5.6278,1791
5.6306,1784
5.6333,1785
5.6361,1780
5.6389,1784
5.6417,1775
5.6444,1789
5.6472,1796
5.6500,1782
5.6528,1789
5.6556,1794
5.6583,1791
5.6611,1789
5.6639,1792
5.6667,1790
5.6694,1787
5.6722,1781
5.6750,1781
5.6778,1790
5.6806,1788
5.6833,1796
5.6861,1792
5.6889,1784
5.6917,1777
5.6944,1773
5.6972,1765
5.7000,1760
5.7028,1761
5.7056,1769
5.7083,1760
5.7111,1764
5.7139,1761
5.7167,1766
5.7194,1760
5.7222,1756
5.7250,1753
5.7278,1754
5.7306,1758
5.7333,1756
5.7361,1754
5.7389,1758
5.7417,1749
5.7444,1751
5.7472,1755
5.7500,1761
5.7528,1763
5.7556,1759
5.7583,1751
5.7611,1750
5.7639,1751
5.7667,1754
5.7694,1743
5.7722,1745
5.7750,1754
5.7778,1756
5.7806,1747
5.7833,1755
5.7861,1753
5.7889,1758
5.7917,1752
5.7944,1745
5.7972,1752
5.8000,1752
5.8028,1749
5.8056,1756
5.8083,1757
5.8111,1760
5.8139,1759
5.8167,1759
5.8194,1768
5.8222,1769
5.8250,1774
5.8278,1771
5.8306,1758
5.8333,1757
5.8361,1751
5.8389,1741
5.8417,1738
5.8444,1745
5.8472,1736
5.8500,1746
5.8528,1751
5.8556,1752
5.8583,1757
5.8611,1752
5.8639,1740
5.8667,1736
5.8694,1743
5.8722,1741
5.8750,1750
5.8778,1751
5.8806,1761
5.8833,1760
5.8861,1761
5.8889,1766
5.8917,1758
5.8944,1756
5.8972,1758
5.9000,1757
5.9028,1751
5.9056,1742
5.9083,1738
5.9111,1739
5.9139,1739
5.9167,1735
5.9194,1726
5.9222,1720
5.9250,1732
5.9278,1729
5.9306,1722
5.9333,1725
5.9361,1742
5.9389,1757
5.9417,1779
5.9444,1776
5.9472,1735
5.9500,1682
5.9528,1617
5.9556,1570
5.9583,1542
5.9611,1547
5.9639,1583
5.9667,1637
5.9694,1697
5.9722,1759
5.9750,1813
5.9778,1849
5.9806,1825
5.9833,1781
5.9861,1738
5.9889,1704
5.9917,1676
5.9944,1688
5.9972,1693
6.0000,1676
6.0028,1640
6.0056,1610
6.0083,1570
6.0111,1537
6.0139,1532
6.0167,1537
6.0194,1549
6.0222,1570
6.0250,1591
6.0278,1623
6.0306,1651
6.0333,1663
6.0361,1671
6.0389,1670
6.0417,1670
6.0444,1677
6.0472,1685
6.0500,1692
6.0528,1687
6.0556,1691
6.0583,1696
6.0611,1701
6.0639,1703
6.0667,1701
6.0694,1706
6.0722,1710
6.0750,1697
6.0778,1699
6.0806,1691
6.0833,1695
6.0861,1701
6.0889,1703
6.0917,1708
6.0944,1718
6.0972,1715
6.1000,1701
6.1028,1707
6.1056,1710
6.1083,1714
6.1111,1718
6.1139,1716
6.1167,1719
6.1194,1719
6.1222,1720
6.1250,1722
6.1278,1714
6.1306,1717
6.1333,1719
6.1361,1721
6.1389,1723
6.1417,1726
6.1444,1728
6.1472,1736
6.1500,1738
6.1528,1749
6.1556,1735
6.1583,1737
6.1611,1730
6.1639,1737
6.1667,1885
6.1694,1881
6.1722,1878
6.1750,1875
6.1778,1870
6.1806,1877
6.1833,1878
6.1861,1876
6.1889,1880
6.1917,1877
6.1944,1875
6.1972,1866
6.2000,1861
6.2028,1857
6.2056,1851
6.2083,1849
6.2111,1850
6.2139,1839
6.2167,1838
6.2194,1832
6.2222,1810
6.2250,1811
6.2278,1799
6.2306,1792
6.2333,1783
6.2361,1782
6.2389,1780
6.2417,1771
6.2444,1763
6.2472,1753
6.2500,1749
6.2528,1739
6.2556,1736
6.2583,1731
6.2611,1726
6.2639,1725
6.2667,1724
6.2694,1728
6.2722,1728
6.2750,1716
6.2778,1708
6.2806,1705
6.2833,1703
6.2861,1693
6.2889,1696
6.2917,1685
6.2944,1696
6.2972,1690
6.3000,1690
6.3028,1689
6.3056,1681
6.3083,1688
6.3111,1693
6.3139,1697
6.3167,1700
6.3194,1711
6.3222,1709
6.3250,1711
6.3278,1713
6.3306,1709
6.3333,1711
6.3361,1712
6.3389,1714
6.3417,1716
6.3444,1712
6.3472,1711
6.3500,1707
6.3528,1708
6.3556,1708
6.3583,1719
6.3611,1721
6.3639,1722
6.3667,1721
6.3694,1727
6.3722,1727
6.3750,1722
6.3778,1713
6.3806,1709
6.3833,1713
6.3861,1710
6.3889,1716
6.3917,1718
6.3944,1720
6.3972,1711
6.4000,1709
6.4028,1701
6.4056,1700
6.4083,1695
6.4111,1699
6.4139,1696
6.4167,1697
6.4194,1700
6.4222,1698
6.4250,1702
6.4278,1704
6.4306,1707
6.4333,1711
6.4361,1709
6.4389,1699
6.4417,1699
6.4444,1702
6.4472,1702
6.4500,1697
6.4528,1699
6.4556,1691
6.4583,1696
6.4611,1697
6.4639,1704
6.4667,1704
6.4694,1705
6.4722,1706
6.4750,1702
6.4778,1701
6.4806,1702
6.4833,1701
6.4861,1702
6.4889,1697
6.4917,1699
6.4944,1709
6.4972,1712
6.5000,1722
6.5028,1717
6.5056,1705
6.5083,1699
6.5111,1688
6.5139,1692
6.5167,1695
6.5194,1702
6.5222,1697
6.5250,1698
6.5278,1702
6.5306,1702
6.5333,1704
6.5361,1701
6.5389,1703
6.5417,1702
6.5444,1700
6.5472,1701
6.5500,1698
6.5528,1700
6.5556,1702
6.5583,1713
6.5611,1722
6.5639,1730
6.5667,1725
6.5694,1719
6.5722,1714
6.5750,1715
6.5778,1713
6.5806,1719
6.5833,1720
6.5861,1726
6.5889,1725
6.5917,1722
6.5944,1724
6.5972,1725
6.6000,1729
6.6028,1727
6.6056,1722
6.6083,1729
6.6111,1725
6.6139,1738
6.6167,1739
6.6194,1735
6.6222,1737
6.6250,1727
6.6278,1732
6.6306,1741
6.6333,1747
6.6361,1752
6.6389,1755
6.6417,1746
6.6444,1745
6.6472,1744
6.6500,1746
6.6528,1749
6.6556,1754
6.6583,1755
6.6611,1754
6.6639,1748
6.6667,1736
6.6694,1729
6.6722,1719
6.6750,1709
6.6778,1718
6.6806,1726
6.6833,1736
6.6861,1737
6.6889,1730
6.6917,1736
6.6944,1736
6.6972,1766
6.7000,1791
6.7028,1805
6.7056,1784
6.7083,1739
6.7111,1686
6.7139,1626
6.7167,1590
6.7194,1587
6.7222,1618
6.7250,1680
6.7278,1747
6.7306,1808
6.7333,1863
6.7361,1902
6.7389,1914
6.7417,1884
6.7444,1835
6.7472,1783
6.7500,1755
6.7528,1739
6.7556,1751
6.7583,1733
6.7611,1715
6.7639,1692
6.7667,1649
6.7694,1619
6.7722,1592
6.7750,1595
6.7778,1589
6.7806,1593
6.7833,1618
6.7861,1640
6.7889,1665
6.7917,1686
6.7944,1694
6.7972,1702
6.8000,1700
6.8028,1698
6.8056,1703
6.8083,1707
6.8111,1712
6.8139,1721
6.8167,1716
6.8194,1713
6.8222,1709
6.8250,1717
6.8278,1727
6.8306,1732
6.8333,1737
6.8361,1730
6.8389,1719
6.8417,1724
6.8444,1726
6.8472,1729
6.8500,1731
6.8528,1737
6.8556,1740
6.8583,1735
6.8611,1734
6.8639,1737
6.8667,1742
6.8694,1736
6.8722,1732
6.8750,1721
6.8778,1713
6.8806,1709
6.8833,1707
6.8861,1710
6.8889,1714
6.8917,1714
6.8944,1728
6.8972,1736
6.9000,1737
6.9028,1744
6.9056,1736
6.9083,1736
6.9111,1734
6.9139,1723
6.9167,1717
6.9194,1715
6.9222,1726
6.9250,1855
6.9278,1858
6.9306,1863
6.9333,1863
6.9361,1867
6.9389,1858
6.9417,1853
6.9444,1856
6.9472,1844
6.9500,1844
6.9528,1842
6.9556,1833
6.9583,1826
6.9611,1834
6.9639,1829
6.9667,1820
6.9694,1817
6.9722,1807
6.9750,1800
6.9778,1785
6.9806,1770
6.9833,1760
6.9861,1753
6.9889,1754
6.9917,1754
6.9944,1753
6.9972,1750
7.0000,1744
7.0028,1733
7.0056,1739
7.0083,1731
7.0111,1734
7.0139,1726
7.0167,1714
7.0194,1704
7.0222,1700
7.0250,1692
7.0278,1685
7.0306,1691
7.0333,1691
7.0361,1693
7.0389,1680
7.0417,1675
7.0444,1665
7.0472,1670
7.0500,1669
7.0528,1673
7.0556,1677
7.0583,1669
7.0611,1677
7.0639,1680
7.0667,1683
7.0694,1685
7.0722,1674
7.0750,1671
7.0778,1670
7.0806,1664
7.0833,1675
7.0861,1683
7.0889,1689
7.0917,1687
7.0944,1687
7.0972,1691
7.1000,1688
7.1028,1696
7.1056,1699
7.1083,1710
7.1111,1698
7.1139,1707
7.1167,1711
7.1194,1717
7.1222,1729
7.1250,1728
7.1278,1725
7.1306,1716
7.1333,1709
7.1361,1716
7.1389,1714
7.1417,1721
7.1444,1726
7.1472,1722
7.1500,1721
7.1528,1715
7.1556,1719
7.1583,1721
7.1611,1716
7.1639,1719
7.1667,1716
7.1694,1705
7.1722,1702
7.1750,1711
7.1778,1716
7.1806,1733
7.1833,1739
7.1861,1734
7.1889,1726
7.1917,1721
7.1944,1719
7.1972,1721
7.2000,1727
7.2028,1723
7.2056,1727
7.2083,1725
7.2111,1727
7.2139,1737
7.2167,1741
7.2194,1741
7.2222,1739
7.2250,1728
7.2278,1734
7.2306,1737
7.2333,1737
7.2361,1735
7.2389,1736
7.2417,1738
7.2444,1736
7.2472,1734
7.2500,1737
7.2528,1745
7.2556,1742
7.2583,1750
7.2611,1743
7.2639,1733
7.2667,1734
7.2694,1735
7.2722,1746
7.2750,1736
7.2778,1728
7.2806,1729
7.2833,1745
7.2861,1746
7.2889,1752
7.2917,1762
7.2944,1770
7.2972,1766
7.3000,1757
7.3028,1754
7.3056,1759
7.3083,1763
7.3111,1765
7.3139,1772
7.3167,1770
7.3194,1761
7.3222,1763
7.3250,1773
7.3278,1784
7.3306,1788
7.3333,1785
7.3361,1784
7.3389,1778
7.3417,1777
7.3444,1772
7.3472,1778
7.3500,1772
7.3528,1776
7.3556,1781
7.3583,1779
7.3611,1795
7.3639,1798
7.3667,1790
7.3694,1779
7.3722,1773
7.3750,1770
7.3778,1784
7.3806,1785
7.3833,1786
7.3861,1783
7.3889,1778
7.3917,1782
7.3944,1785
7.3972,1782
7.4000,1779
7.4028,1778
7.4056,1776
7.4083,1776
7.4111,1767
7.4139,1760
7.4167,1762
7.4194,1763
7.4222,1761
7.4250,1759
7.4278,1758
7.4306,1744
7.4333,1737
7.4361,1741
7.4389,1758
7.4417,1790
7.4444,1811
7.4472,1813
7.4500,1788
7.4528,1732
7.4556,1684
7.4583,1630
7.4611,1600
7.4639,1604
7.4667,1648
7.4694,1723
7.4722,1809
7.4750,1886
7.4778,1949
7.4806,1983
7.4833,1971
7.4861,1917
7.4889,1864
7.4917,1816
7.4944,1789
7.4972,1765
7.5000,1753
7.5028,1725
7.5056,1691
7.5083,1655
7.5111,1625
7.5139,1603
7.5167,1579
7.5194,1572
7.5222,1576
7.5250,1590
7.5278,1618
7.5306,1639
7.5333,1662
7.5361,1672
7.5389,1690
7.5417,1698
7.5444,1699
7.5472,1695
7.5500,1711
7.5528,1717
7.5556,1731
7.5583,1721
7.5611,1715
7.5639,1705
7.5667,1704
7.5694,1705
7.5722,1711
7.5750,1713
7.5778,1715
7.5806,1710
7.5833,1711
7.5861,1715
7.5889,1718
7.5917,1713
7.5944,1713
7.5972,1696
7.6000,1697
7.6028,1701
7.6056,1694
7.6083,1699
7.6111,1708
7.6139,1714
7.6167,1728
7.6194,1717
7.6222,1720
7.6250,1718
7.6278,1715
7.6306,1717
7.6333,1726
7.6361,1729
7.6389,1731
7.6417,1726
7.6444,1731
7.6472,1726
7.6500,1733
7.6528,1729
7.6556,1741
7.6583,1747
7.6611,1745
7.6639,1750
7.6667,1755
7.6694,1858
7.6722,1859
7.6750,1860
7.6778,1860
7.6806,1871
7.6833,1884
7.6861,1881
7.6889,1884
7.6917,1877
7.6944,1873
7.6972,1874
7.7000,1877
7.7028,1863
7.7056,1857
7.7083,1849
7.7111,1842
7.7139,1838
7.7167,1830
7.7194,1823
7.7222,1817
7.7250,1807
7.7278,1790
7.7306,1783
7.7333,1770
7.7361,1756
7.7389,1758
7.7417,1747
7.7444,1744
7.7472,1728
7.7500,1717
7.7528,1721
7.7556,1712
7.7583,1702
7.7611,1703
7.7639,1695
7.7667,1693
7.7694,1682
7.7722,1681
7.7750,1687
7.7778,1682
7.7806,1680
7.7833,1675
7.7861,1664
7.7889,1663
7.7917,1658
7.7944,1665
7.7972,1664
7.8000,1663
7.8028,1661
7.8056,1656
7.8083,1659
7.8111,1656
7.8139,1657
7.8167,1658
7.8194,1650
7.8222,1654
7.8250,1650
7.8278,1658
7.8306,1665
7.8333,1663
7.8361,1667
7.8389,1663
7.8417,1666
7.8444,1669
7.8472,1674
7.8500,1674
7.8528,1684
7.8556,1679
7.8583,1686
7.8611,1689
7.8639,1684
7.8667,1690
7.8694,1691
7.8722,1624
7.8750,1597
7.8778,1621
7.8806,1659
7.8833,1685
7.8861,1709
7.8889,1713
7.8917,1701
7.8944,1712
7.8972,1702
7.9000,1715
7.9028,1700
7.9056,1697
7.9083,1703
7.9111,1708
7.9139,1716
7.9167,1713
7.9194,1717
7.9222,1701
7.9250,1690
7.9278,1682
7.9306,1686
7.9333,1692
7.9361,1678
7.9389,1681
7.9417,1690
7.9444,1683
7.9472,1685
7.9500,1680
7.9528,1680
7.9556,1683
7.9583,1685
7.9611,1683
7.9639,1689
7.9667,1687
7.9694,1683
7.9722,1686
7.9750,1682
7.9778,1680
7.9806,1673
7.9833,1668
7.9861,1670
7.9889,1677
7.9917,1681
7.9944,1682
7.9972,1682
8.0000,1677
8.0028,1665
8.0056,1669
8.0083,1663
8.0111,1669
8.0139,1668
8.0167,1677
8.0194,1675
8.0222,1674
8.0250,1674
8.0278,1669
8.0306,1677
8.0333,1675
8.0361,1673
8.0389,1679
8.0417,1679
8.0444,1676
8.0472,1677
8.0500,1684
8.0528,1686
8.0556,1680
8.0583,1689
8.0611,1692
8.0639,1692
8.0667,1695
8.0694,1703
8.0722,1702
8.0750,1711
8.0778,1706
8.0806,1708
8.0833,1702
8.0861,1701
8.0889,1692
8.0917,1700
8.0944,1707
8.0972,1705
8.1000,1710
8.1028,1706
8.1056,1709
8.1083,1709
8.1111,1722
8.1139,1726
8.1167,1736
8.1194,1739
8.1222,1736
8.1250,1747
8.1278,1759
8.1306,1763
8.1333,1758
8.1361,1765
8.1389,1762
8.1417,1757
8.1444,1757
8.1472,1754
8.1500,1758
8.1528,1760
8.1556,1758
8.1583,1748
8.1611,1740
8.1639,1731
8.1667,1719
8.1694,1726
8.1722,1715
8.1750,1712
8.1778,1715
8.1806,1709
8.1833,1713
8.1861,1715
8.1889,1727
8.1917,1733
8.1944,1758
8.1972,1788
8.2000,1797
8.2028,1757
8.2056,1690
8.2083,1629
8.2111,1584
8.2139,1553
8.2167,1557
8.2194,1585
8.2222,1646
8.2250,1707
8.2278,1775
8.2306,1832
8.2333,1853
8.2361,1853
8.2389,1808
8.2417,1764
8.2444,1727
8.2472,1710
8.2500,1711
8.2528,1708
8.2556,1687
8.2583,1658
8.2611,1624
8.2639,1583
8.2667,1552
8.2694,1525
8.2722,1535
8.2750,1551
8.2778,1565
8.2806,1591
8.2833,1616
8.2861,1636
8.2889,1643
8.2917,1668
8.2944,1673
8.2972,1682
8.3000,1692
8.3028,1689
8.3056,1705
8.3083,1703
8.3111,1703
8.3139,1705
8.3167,1706
8.3194,1709
8.3222,1730
8.3250,1719
8.3278,1723
8.3306,1727
8.3333,1724
8.3361,1724
8.3389,1722
8.3417,1718
8.3444,1725
8.3472,1724
8.3500,1722
8.3528,1716
8.3556,1714
8.3583,1718
8.3611,1717
8.3639,1725
8.3667,1738
8.3694,1744
8.3722,1737
8.3750,1738
8.3778,1732
8.3806,1741
8.3833,1741
8.3861,1737
8.3889,1744
8.3917,1753
8.3944,1751
8.3972,1755
8.4000,1764
8.4028,1763
8.4056,1764
8.4083,1763
8.4111,1765
8.4139,1764
8.4167,1763
8.4194,1771
8.4222,1872
8.4250,1876
8.4278,1877
8.4306,1883
8.4333,1888
8.4361,1886
8.4389,1880
8.4417,1874
8.4444,1874
8.4472,1871
8.4500,1872
8.4528,1881
8.4556,1867
8.4583,1871
8.4611,1866
8.4639,1865
8.4667,1856
8.4694,1850
8.4722,1838
8.4750,1824
8.4778,1819
8.4806,1817
8.4833,1816
8.4861,1815
8.4889,1810
8.4917,1797
8.4944,1793
8.4972,1786
8.5000,1771
8.5028,1762
8.5056,1765
8.5083,1757
8.5111,1758
8.5139,1755
8.5167,1752
8.5194,1749
8.5222,1745
8.5250,1747
8.5278,1753
8.5306,1756
8.5333,1753
8.5361,1754
8.5389,1761
8.5417,1753
8.5444,1763
8.5472,1762
8.5500,1756
8.5528,1749
8.5556,1750
8.5583,1748
8.5611,1740
8.5639,1738
8.5667,1741
8.5694,1743
8.5722,1748
8.5750,1764
8.5778,1775
8.5806,1787
8.5833,1795
8.5861,1787
8.5889,1778
8.5917,1773
8.5944,1770
8.5972,1774
8.6000,1777
8.6028,1777
8.6056,1777
8.6083,1777
8.6111,1769
8.6139,1769
8.6167,1772
8.6194,1773
8.6222,1774
8.6250,1772
8.6278,1759
8.6306,1760
8.6333,1754
8.6361,1759
8.6389,1760
8.6417,1754
8.6444,1753
8.6472,1754
8.6500,1752
8.6528,1752
8.6556,1750
8.6583,1748
8.6611,1746
8.6639,1736
8.6667,1735
8.6694,1735
8.6722,1737
8.6750,1738
8.6778,1733
8.6806,1739
8.6833,1748
8.6861,1747
8.6889,1757
8.6917,1762
8.6944,1760
8.6972,1762
8.7000,1764
8.7028,1768
8.7056,1766
8.7083,1768
8.7111,1766
8.7139,1758
8.7167,1759
8.7194,1756
8.7222,1752
8.7250,1754
8.7278,1757
8.7306,1756
8.7333,1757
8.7361,1747
8.7389,1744
8.7417,1743
8.7444,1743
8.7472,1750
8.7500,1753
8.7528,1749
8.7556,1752
8.7583,1748
8.7611,1746
8.7639,1742
8.7667,1742
8.7694,1741
8.7722,1746
8.7750,1743
8.7778,1745
8.7806,1748
8.7833,1747
8.7861,1745
8.7889,1744
8.7917,1745
8.7944,1740
8.7972,1743
8.8000,1734
8.8028,1734
8.8056,1740
8.8083,1740
8.8111,1732
8.8139,1730
8.8167,1723
8.8194,1724
8.8222,1722
8.8250,1725
8.8278,1722
8.8306,1714
8.8333,1725
8.8361,1719
8.8389,1725
8.8417,1725
8.8444,1731
8.8472,1736
8.8500,1733
8.8528,1734
8.8556,1719
8.8583,1716
8.8611,1712
8.8639,1707
8.8667,1717
8.8694,1708
8.8722,1725
8.8750,1726
8.8778,1723
8.8806,1716
8.8833,1704
8.8861,1707
8.8889,1712
8.8917,1721
8.8944,1725
8.8972,1709
8.9000,1709
8.9028,1711
8.9056,1710
8.9083,1711
8.9111,1711
8.9139,1717
8.9167,1722
8.9194,1711
8.9222,1713
8.9250,1708
8.9278,1708
8.9306,1710
8.9333,1692
8.9361,1693
8.9389,1680
8.9417,1681
8.9444,1684
8.9472,1692
8.9500,1692
8.9528,1708
8.9556,1729
8.9583,1748
8.9611,1778
8.9639,1756
8.9667,1706
8.9694,1652
8.9722,1590
8.9750,1544
8.9778,1525
8.9806,1548
8.9833,1611
8.9861,1677
8.9889,1749
8.9917,1810
8.9944,1854
8.9972,1859
9.0000,1821
9.0028,1771
9.0056,1719
9.0083,1694
9.0111,1677
9.0139,1686
9.0167,1678
9.0194,1660
9.0222,1633
9.0250,1591
9.0278,1559
9.0306,1531
9.0333,1526
9.0361,1531
9.0389,1563
9.0417,1595
9.0444,1625
9.0472,1653
9.0500,1674
9.0528,1678
9.0556,1681
9.0583,1681
9.0611,1689
9.0639,1688
9.0667,1693
9.0694,1694
9.0722,1697
9.0750,1694
9.0778,1700
9.0806,1706
9.0833,1716
9.0861,1715
9.0889,1724
9.0917,1718
9.0944,1716
9.0972,1719
9.1000,1714
9.1028,1717
9.1056,1716
9.1083,1716
9.1111,1713
9.1139,1709
9.1167,1707
9.1194,1710
9.1222,1715
9.1250,1703
9.1278,1701
9.1306,1693
9.1333,1694
9.1361,1687
9.1389,1692
9.1417,1693
9.1444,1701
9.1472,1706
9.1500,1713
9.1528,1719
9.1556,1717
9.1583,1716
9.1611,1721
9.1639,1712
9.1667,1708
9.1694,1702
9.1722,1699
9.1750,1696
9.1778,1700
9.1806,1711
9.1833,1855
9.1861,1849
9.1889,1850
9.1917,1855
9.1944,1866
9.1972,1880
9.2000,1877
9.2028,1884
9.2056,1877
9.2083,1886
9.2111,1891
9.2139,1893
9.2167,1876
9.2194,1872
9.2222,1866
9.2250,1854
9.2278,1846
9.2306,1853
9.2333,1853
9.2361,1857
9.2389,1859
9.2417,1844
9.2444,1845
9.2472,1836
9.2500,1827
9.2528,1819
9.2556,1810
9.2583,1813
9.2611,1800
9.2639,1789
9.2667,1781
9.2694,1768
9.2722,1758
9.2750,1750
9.2778,1754
9.2806,1755
9.2833,1746
9.2861,1741
9.2889,1753
9.2917,1754
9.2944,1751
9.2972,1757
9.3000,1758
9.3028,1750
9.3056,1760
9.3083,1754
9.3111,1766
9.3139,1763
9.3167,1765
9.3194,1752
9.3222,1753
9.3250,1748
9.3278,1756
9.3306,1752
9.3333,1766
9.3361,1770
9.3389,1773
9.3417,1773
9.3444,1777
9.3472,1776
9.3500,1769
9.3528,1767
9.3556,1761
9.3583,1762
9.3611,1751
9.3639,1751
9.3667,1765
9.3694,1766
9.3722,1770
9.3750,1772
9.3778,1782
9.3806,1785
9.3833,1786
9.3861,1789
9.3889,1782
9.3917,1786
9.3944,1781
9.3972,1779
9.4000,1786
9.4028,1795
9.4056,1791
9.4083,1784
9.4111,1782
9.4139,1783
9.4167,1776
9.4194,1779
9.4222,1769
9.4250,1772
9.4278,1778
9.4306,1773
9.4333,1784
9.4361,1798
9.4389,1801
9.4417,1802
9.4444,1794
9.4472,1799
9.4500,1790
9.4528,1794
9.4556,1795
9.4583,1785
9.4611,1777
9.4639,1776
9.4667,1777
9.4694,1773
9.4722,1781
9.4750,1781
9.4778,1780
9.4806,1785
9.4833,1779
9.4861,1775
9.4889,1771
9.4917,1775
9.4944,1774
9.4972,1772
9.5000,1771
9.5028,1761
9.5056,1757
9.5083,1765
9.5111,1768
9.5139,1771
9.5167,1771
9.5194,1767
9.5222,1768
9.5250,1763
9.5278,1765
9.5306,1769
9.5333,1766
9.5361,1767
9.5389,1765
9.5417,1769
9.5444,1769
9.5472,1770
9.5500,1774
9.5528,1770
9.5556,1775
9.5583,1765
9.5611,1756
9.5639,1760
9.5667,1754
9.5694,1761
9.5722,1771
9.5750,1779
9.5778,1785
9.5806,1779
9.5833,1784
9.5861,1779
9.5889,1782
9.5917,1789
9.5944,1787
9.5972,1780
9.6000,1790
9.6028,1785
9.6056,1777
9.6083,1776
9.6111,1769
9.6139,1769
9.6167,1777
9.6194,1793
9.6222,1808
9.6250,1819
9.6278,1805
9.6306,1794
9.6333,1780
9.6361,1782
9.6389,1781
9.6417,1775
9.6444,1777
9.6472,1774
9.6500,1780
9.6528,1775
9.6556,1770
9.6583,1768
9.6611,1776
9.6639,1776
9.6667,1775
9.6694,1773
9.6722,1778
9.6750,1777
9.6778,1772
9.6806,1762
9.6833,1741
9.6861,1734
9.6889,1726
9.6917,1720
9.6944,1714
9.6972,1720
9.7000,1736
9.7028,1767
9.7056,1789
9.7083,1792
9.7111,1755
9.7139,1697
9.7167,1639
9.7194,1603
9.7222,1582
9.7250,1593
9.7278,1648
9.7306,1703
9.7333,1767
9.7361,1829
9.7389,1882
9.7417,1900
9.7444,1878
9.7472,1834
9.7500,1779
9.7528,1740
9.7556,1718
9.7583,1718
9.7611,1707
9.7639,1691
9.7667,1648
9.7694,1614
9.7722,1585
9.7750,1563
9.7778,1538
9.7806,1542
9.7833,1552
9.7861,1577
9.7889,1601
9.7917,1622
9.7944,1639
9.7972,1642
9.8000,1656
9.8028,1669
9.8056,1677
9.8083,1683
9.8111,1697
9.8139,1697
9.8167,1693
9.8194,1691
9.8222,1681
9.8250,1684
9.8278,1683
9.8306,1692
9.8333,1696
9.8361,1699
9.8389,1697
9.8417,1696
9.8444,1688
9.8472,1693
9.8500,1693
9.8528,1691
9.8556,1686
9.8583,1689
9.8611,1680
9.8639,1687
9.8667,1696
9.8694,1692
9.8722,1695
9.8750,1698
9.8778,1703
9.8806,1689
9.8833,1687
9.8861,1703
9.8889,1699
9.8917,1715
9.8944,1724
9.8972,1725
9.9000,1713
9.9028,1711
9.9056,1716
9.9083,1716
9.9111,1826
9.9139,1827
9.9167,1836
9.9194,1840
9.9222,1841
9.9250,1847
9.9278,1847
9.9306,1860
9.9333,1861
9.9361,1859
9.9389,1866
9.9417,1870
9.9444,1868
9.9472,1861
9.9500,1860
9.9528,1863
9.9556,1863
9.9583,1856
9.9611,1856
9.9639,1844
9.9667,1834
9.9694,1833
9.9722,1830
9.9750,1827
9.9778,1824
9.9806,1818
9.9833,1816
9.9861,1807
9.9889,1795
9.9917,1784
9.9944,1773
9.9972,1762
10.0000,1753
10.0028,1752
10.0056,1741
10.0083,1739
10.0111,1731
10.0139,1727
10.0167,1720
10.0194,1718
10.0222,1717
10.0250,1710
10.0278,1708
10.0306,1709
10.0333,1705
10.0361,1706
10.0389,1699
10.0417,1686
10.0444,1679
10.0472,1671
10.0500,1665
10.0528,1661
10.0556,1679
10.0583,1678
10.0611,1686
10.0639,1686
10.0667,1691
10.0694,1693
10.0722,1704
10.0750,1705
10.0778,1703
10.0806,1689
10.0833,1682
10.0861,1674
10.0889,1670
10.0917,1671
10.0944,1680
10.0972,1680
10.1000,1681
10.1028,1690
10.1056,1695
10.1083,1695
10.1111,1703
10.1139,1697
10.1167,1697
10.1194,1691
10.1222,1701
10.1250,1704
10.1278,1712
10.1306,1706
10.1333,1710
10.1361,1716
10.1389,1721
10.1417,1719
10.1444,1721
10.1472,1712
10.1500,1712
10.1528,1720
10.1556,1720
10.1583,1728
10.1611,1720
10.1639,1726
10.1667,1727
10.1694,1723
10.1722,1726
10.1750,1725
10.1778,1734
10.1806,1745
10.1833,1738
10.1861,1750
10.1889,1739
10.1917,1741
10.1944,1731
10.1972,1736
10.2000,1745
10.2028,1742
10.2056,1745
10.2083,1747
10.2111,1748
10.2139,1745
10.2167,1755
10.2194,1764
10.2222,1759
10.2250,1753
10.2278,1752
10.2306,1742
10.2333,1751
10.2361,1759
10.2389,1762
10.2417,1763
10.2444,1759
10.2472,1756
10.2500,1750
10.2528,1745
10.2556,1743
10.2583,1740
10.2611,1743
10.2639,1752
10.2667,1752
10.2694,1756
10.2722,1756
10.2750,1749
10.2778,1737
10.2806,1740
10.2833,1727
10.2861,1738
10.2889,1738
10.2917,1734
10.2944,1735
10.2972,1733
10.3000,1736
10.3028,1741
10.3056,1741
10.3083,1742
10.3111,1740
10.3139,1726
10.3167,1727
10.3194,1721
10.3222,1713
10.3250,1711
10.3278,1719
10.3306,1728
10.3333,1729
10.3361,1736
10.3389,1742
10.3417,1741
10.3444,1747
10.3472,1734
10.3500,1733
10.3528,1730
10.3556,1720
10.3583,1720
10.3611,1727
10.3639,1723
10.3667,1719
10.3694,1721
10.3722,1706
10.3750,1716
10.3778,1711
10.3806,1716
10.3833,1720
10.3861,1728
10.3889,1721
10.3917,1714
10.3944,1712
10.3972,1708
10.4000,1709
10.4028,1714
10.4056,1707
10.4083,1696
10.4111,1694
10.4139,1698
10.4167,1701
10.4194,1689
10.4222,1693
10.4250,1691
10.4278,1683
10.4306,1680
10.4333,1676
10.4361,1677
10.4389,1678
10.4417,1684
10.4444,1686
10.4472,1688
10.4500,1710
10.4528,1734
10.4556,1762
10.4583,1747
10.4611,1704
10.4639,1632
10.4667,1595
10.4694,1550
10.4722,1545
10.4750,1549
10.4778,1602
10.4806,1678
10.4833,1754
10.4861,1821
10.4889,1868
10.4917,1880
10.4944,1857
10.4972,1808
10.5000,1759
10.5028,1726
10.5056,1720
10.5083,1712
10.5111,1700
10.5139,1656
10.5167,1629
10.5194,1587
10.5222,1561
10.5250,1546
10.5278,1531
10.5306,1541
10.5333,1557
10.5361,1576
10.5389,1598
10.5417,1624
10.5444,1654
10.5472,1666
10.5500,1670
10.5528,1671
10.5556,1665
10.5583,1671
10.5611,1667
10.5639,1672
10.5667,1678
10.5694,1677
10.5722,1682
10.5750,1681
10.5778,1676
10.5806,1679
10.5833,1683
10.5861,1685
10.5889,1687
10.5917,1688
10.5944,1678
10.5972,1687
10.6000,1683
10.6028,1683
10.6056,1674
10.6083,1669
10.6111,1669
10.6139,1657
10.6167,1665
10.6194,1663
10.6222,1671
10.6250,1676
10.6278,1675
10.6306,1675
10.6333,1679
10.6361,1676
10.6389,1676
10.6417,1683
10.6444,1692
10.6472,1686
10.6500,1676
10.6528,1679
10.6556,1679
10.6583,1683
10.6611,1685
10.6639,1694
10.6667,1698
10.6694,1705
10.6722,1707
10.6750,1705
10.6778,1825
10.6806,1822
10.6833,1833
10.6861,1832
10.6889,1841
10.6917,1842
10.6944,1839
10.6972,1837
10.7000,1829
10.7028,1838
10.7056,1837
10.7083,1843
10.7111,1836
10.7139,1822
10.7167,1821
10.7194,1808
10.7222,1790
10.7250,1783
10.7278,1773
10.7306,1770
10.7333,1764
10.7361,1763
10.7389,1755
10.7417,1751
10.7444,1742
10.7472,1730
10.7500,1725
10.7528,1713
10.7556,1710
10.7583,1702
10.7611,1696
10.7639,1693
10.7667,1686
10.7694,1680
10.7722,1681
10.7750,1672
10.7778,1660
10.7806,1667
10.7833,1674
10.7861,1660
10.7889,1664
10.7917,1662
10.7944,1657
10.7972,1661
10.8000,1660
10.8028,1660
10.8056,1655
10.8083,1663
10.8111,1662
10.8139,1666
10.8167,1677
10.8194,1678
10.8222,1674
10.8250,1674
10.8278,1671
10.8306,1672
10.8333,1677
10.8361,1676
10.8389,1680
10.8417,1683
10.8444,1689
10.8472,1699
10.8500,1705
10.8528,1707
10.8556,1699
10.8583,1696
10.8611,1695
10.8639,1702
10.8667,1692
10.8694,1700
10.8722,1694
10.8750,1704
10.8778,1707
10.8806,1708
10.8833,1707
10.8861,1704
10.8889,1702
10.8917,1697
10.8944,1699
10.8972,1702
10.9000,1712
10.9028,1711
10.9056,1707
10.9083,1702
10.9111,1695
10.9139,1691
10.9167,1694
10.9194,1694
10.9222,1698
10.9250,1712
10.9278,1716
10.9306,1713
10.9333,1716
10.9361,1714
10.9389,1707
10.9417,1719
10.9444,1704
10.9472,1705
10.9500,1710
10.9528,1711
10.9556,1714
10.9583,1718
10.9611,1723
10.9639,1719
10.9667,1717
10.9694,1706
10.9722,1714
10.9750,1714
10.9778,1717
10.9806,1719
10.9833,1711
10.9861,1717
10.9889,1709
10.9917,1702
10.9944,1706
10.9972,1697
11.0000,1701
11.0028,1700
11.0056,1692
11.0083,1701
11.0111,1698
11.0139,1688
11.0167,1691
11.0194,1691
11.0222,1696
11.0250,1692
11.0278,1687
11.0306,1687
11.0333,1678
11.0361,1688
11.0389,1682
11.0417,1694
11.0444,1689
11.0472,1698
11.0500,1705
11.0528,1711
11.0556,1709
11.0583,1705
11.0611,1694
11.0639,1698
11.0667,1695
11.0694,1694
11.0722,1689
11.0750,1698
11.0778,1699
11.0806,1703
11.0833,1704
11.0861,1700
11.0889,1707
11.0917,1708
11.0944,1722
11.0972,1708
11.1000,1712
11.1028,1714
11.1056,1712
11.1083,1719
11.1111,1721
11.1139,1715
11.1167,1720
11.1194,1724
11.1222,1728
11.1250,1741
11.1278,1744
11.1306,1734
11.1333,1746
11.1361,1754
11.1389,1760
11.1417,1770
11.1444,1768
11.1472,1766
11.1500,1764
11.1528,1760
11.1556,1750
11.1583,1750
11.1611,1741
11.1639,1754
11.1667,1757
11.1694,1754
11.1722,1752
11.1750,1742
11.1778,1744
11.1806,1747
11.1833,1745
11.1861,1748
11.1889,1743
11.1917,1741
11.1944,1738
11.1972,1750
11.2000,1766
11.2028,1784
11.2056,1813
11.2083,1838
11.2111,1828
11.2139,1785
11.2167,1721
11.2194,1652
11.2222,1607
11.2250,1584
11.2278,1598
11.2306,1643
11.2333,1722
11.2361,1778
11.2389,1834
11.2417,1880
11.2444,1901
11.2472,1881
11.2500,1840
11.2528,1793
11.2556,1759
11.2583,1746
11.2611,1746
11.2639,1736
11.2667,1706
11.2694,1669
11.2722,1630
11.2750,1600
11.2778,1565
11.2806,1561
11.2833,1559
11.2861,1578
11.2889,1600
11.2917,1624
11.2944,1656
11.2972,1684
11.3000,1703
11.3028,1702
11.3056,1709
11.3083,1707
11.3111,1710
11.3139,1701
11.3167,1696
11.3194,1698
11.3222,1688
11.3250,1692
11.3278,1694
11.3306,1693
11.3333,1697
11.3361,1710
11.3389,1715
11.3417,1707
11.3444,1709
11.3472,1711
11.3500,1708
11.3528,1701
11.3556,1700
11.3583,1697
11.3611,1696
11.3639,1691
11.3667,1697
11.3694,1703
11.3722,1710
11.3750,1712
11.3778,1705
11.3806,1700
11.3833,1694
11.3861,1688
11.3889,1696
11.3917,1706
11.3944,1709
11.3972,1698
11.4000,1715
11.4028,1718
11.4056,1717
11.4083,1724
11.4111,1731
11.4139,1723
11.4167,1720
11.4194,1718
11.4222,1717
11.4250,1732
11.4278,1727
11.4306,1734
11.4333,1855
11.4361,1858
11.4389,1856
11.4417,1867
11.4444,1869
11.4472,1876
11.4500,1877
11.4528,1876
11.4556,1883
11.4583,1883
11.4611,1882
11.4639,1884
11.4667,1869
11.4694,1866
11.4722,1866
11.4750,1848
11.4778,1849
11.4806,1852
11.4833,1847
11.4861,1850
11.4889,1845
11.4917,1842
11.4944,1841
11.4972,1825
11.5000,1829
11.5028,1810
11.5056,1808
11.5083,1800
11.5111,1789
11.5139,1787
11.5167,1779
11.5194,1783
11.5222,1781
11.5250,1784
11.5278,1781
11.5306,1781
11.5333,1777
11.5361,1776
11.5389,1772
11.5417,1774
11.5444,1778
11.5472,1780
11.5500,1781
11.5528,1775
11.5556,1787
11.5583,1789
11.5611,1790
11.5639,1798
11.5667,1796
11.5694,1796
11.5722,1792
11.5750,1793
11.5778,1800
11.5806,1808
11.5833,1809
11.5861,1803
11.5889,1805
11.5917,1790
11.5944,1788
11.5972,1792
11.6000,1792
11.6028,1789
11.6056,1797
11.6083,1795
11.6111,1804
11.6139,1804
11.6167,1789
11.6194,1796
11.6222,1793
11.6250,1792
11.6278,1796
11.6306,1790
11.6333,1792
11.6361,1793
11.6389,1797
11.6417,1794
11.6444,1797
11.6472,1788
11.6500,1794
11.6528,1801
11.6556,1794
11.6583,1788
11.6611,1783
11.6639,1781
11.6667,1776
11.6694,1783
11.6722,1781
11.6750,1782
11.6778,1794
11.6806,1780
11.6833,1778
11.6861,1783
11.6889,1773
11.6917,1776
11.6944,1771
11.6972,1774
11.7000,1771
11.7028,1774
11.7056,1768
11.7083,1766
11.7111,1761
11.7139,1761
11.7167,1758
11.7194,1751
11.7222,1744
11.7250,1744
11.7278,1743
11.7306,1740
11.7333,1732
11.7361,1743
11.7389,1730
11.7417,1743
11.7444,1743
11.7472,1747
11.7500,1743
11.7528,1743
11.7556,1741
11.7583,1743
11.7611,1740
11.7639,1744
11.7667,1748
11.7694,1746
11.7722,1744
11.7750,1744
11.7778,1745
11.7806,1740
11.7833,1735
11.7861,1728
11.7889,1734
11.7917,1730
11.7944,1732
11.7972,1733
11.8000,1734
11.8028,1728
11.8056,1729
11.8083,1725
11.8111,1727
11.8139,1734
11.8167,1732
11.8194,1731
11.8222,1734
11.8250,1734
11.8278,1739
11.8306,1742
11.8333,1745
11.8361,1753
11.8389,1759
11.8417,1764
11.8444,1758
11.8472,1757
11.8500,1751
11.8528,1740
11.8556,1737
11.8583,1728
11.8611,1735
11.8639,1734
11.8667,1729
11.8694,1729
11.8722,1736
11.8750,1731
11.8778,1729
11.8806,1732
11.8833,1725
11.8861,1723
11.8889,1731
11.8917,1739
11.8944,1753
11.8972,1756
11.9000,1753
11.9028,1750
11.9056,1751
11.9083,1742
11.9111,1744
11.9139,1743
11.9167,1742
11.9194,1747
11.9222,1753
11.9250,1741
11.9278,1729
11.9306,1723
11.9333,1719
11.9361,1709
11.9389,1713
11.9417,1723
11.9444,1715
11.9472,1718
11.9500,1709
11.9528,1709
11.9556,1711
11.9583,1737
11.9611,1766
11.9639,1784
11.9667,1759
11.9694,1694
11.9722,1639
11.9750,1583
11.9778,1546
11.9806,1538
11.9833,1574
11.9861,1640
11.9889,1704
11.9917,1770
11.9944,1826
11.9972,1863
12.0000,1863
12.0028,1817
12.0056,1774
12.0083,1735
12.0111,1702
12.0139,1709
12.0167,1712
12.0194,1688
12.0222,1652
12.0250,1626
12.0278,1599
12.0306,1567
12.0333,1557
12.0361,1558
12.0389,1563
12.0417,1579
12.0444,1600
12.0472,1633
12.0500,1651
12.0528,1676
12.0556,1686
12.0583,1684
12.0611,1679
12.0639,1682
12.0667,1687
12.0694,1690
12.0722,1693
12.0750,1694
12.0778,1696
12.0806,1703
12.0833,1698
12.0861,1699
12.0889,1697
12.0917,1698
12.0944,1705
12.0972,1707
12.1000,1712
12.1028,1716
12.1056,1724
12.1083,1728
12.1111,1723
12.1139,1717
12.1167,1714
12.1194,1709
12.1222,1707
12.1250,1707
12.1278,1709
12.1306,1713
12.1333,1715
12.1361,1712
12.1389,1712
12.1417,1709
12.1444,1699
12.1472,1697
12.1500,1697
12.1528,1699
12.1556,1699
12.1583,1705
12.1611,1701
12.1639,1703
12.1667,1695
12.1694,1691
12.1722,1695
12.1750,1703
12.1778,1706
12.1806,1719
12.1833,1727
12.1861,1851
12.1889,1849
12.1917,1856
12.1944,1855
12.1972,1865
12.2000,1864
12.2028,1871
12.2056,1863
12.2083,1860
12.2111,1866
12.2139,1863
12.2167,1860
12.2194,1854
12.2222,1844
12.2250,1837
12.2278,1834
12.2306,1823
12.2333,1812
12.2361,1812
12.2389,1804
12.2417,1800
12.2444,1795
12.2472,1785
12.2500,1778
12.2528,1765
12.2556,1766
12.2583,1768
12.2611,1758
12.2639,1756
12.2667,1758
12.2694,1751
12.2722,1744
12.2750,1744
12.2778,1738
12.2806,1735
12.2833,1725
12.2861,1718
12.2889,1708
12.2917,1714
12.2944,1718
12.2972,1720
12.3000,1724
12.3028,1721
12.3056,1714
12.3083,1714
12.3111,1712
12.3139,1715
12.3167,1706
12.3194,1702
12.3222,1699
12.3250,1702
12.3278,1700
12.3306,1708
12.3333,1712
12.3361,1714
12.3389,1712
12.3417,1726
12.3444,1719
12.3472,1723
12.3500,1729
12.3528,1724
12.3556,1729
12.3583,1727
12.3611,1727
12.3639,1721
12.3667,1716
12.3694,1720
12.3722,1713
12.3750,1724
12.3778,1733
12.3806,1727
12.3833,1727
12.3861,1723
12.3889,1722
12.3917,1731
12.3944,1728
12.3972,1728
12.4000,1736
12.4028,1737
12.4056,1742
12.4083,1750
12.4111,1749
12.4139,1750
12.4167,1753
12.4194,1759
12.4222,1756
12.4250,1751
12.4278,1749
12.4306,1747
12.4333,1747
12.4361,1745
12.4389,1752
12.4417,1754
12.4444,1745
12.4472,1739
12.4500,1740
12.4528,1737
12.4556,1741
12.4583,1737
12.4611,1743
12.4639,1744
12.4667,1746
12.4694,1744
12.4722,1747
12.4750,1746
12.4778,1743
12.4806,1744
12.4833,1741
12.4861,1739
12.4889,1727
12.4917,1734
12.4944,1739
12.4972,1741
12.5000,1742
12.5028,1741
12.5056,1743
12.5083,1743
12.5111,1745
12.5139,1741
12.5167,1743
12.5194,1748
12.5222,1747
12.5250,1742
12.5278,1741
12.5306,1736
12.5333,1728
12.5361,1724
12.5389,1734
12.5417,1723
12.5444,1737
12.5472,1754
12.5500,1752
12.5528,1755
12.5556,1746
12.5583,1745
12.5611,1733
12.5639,1736
12.5667,1739
12.5694,1745
12.5722,1757
12.5750,1759
12.5778,1755
12.5806,1752
12.5833,1753
12.5861,1746
12.5889,1741
12.5917,1739
12.5944,1749
12.5972,1746
12.6000,1749
12.6028,1751
12.6056,1748
12.6083,1744
12.6111,1739
12.6139,1749
12.6167,1742
12.6194,1726
12.6222,1724
12.6250,1725
12.6278,1726
12.6306,1736
12.6333,1738
12.6361,1739
12.6389,1737
12.6417,1739
12.6444,1740
12.6472,1730
12.6500,1729
12.6528,1723
12.6556,1721
12.6583,1720
12.6611,1722
12.6639,1711
12.6667,1709
12.6694,1700
12.6722,1706
12.6750,1699
12.6778,1700
12.6806,1702
12.6833,1691
12.6861,1710
12.6889,1714
12.6917,1732
12.6944,1752
12.6972,1772
12.7000,1778
12.7028,1738
12.7056,1682
12.7083,1624
12.7111,1583
12.7139,1564
12.7167,1563
12.7194,1602
12.7222,1662
12.7250,1733
12.7278,1797
12.7306,1844
12.7333,1873
12.7361,1865
12.7389,1842
12.7417,1795
12.7444,1756
12.7472,1734
12.7500,1732
12.7528,1725
12.7556,1703
12.7583,1666
12.7611,1621
12.7639,1582
12.7667,1541
12.7694,1523
12.7722,1520
12.7750,1533
12.7778,1549
12.7806,1567
12.7833,1602
12.7861,1629
12.7889,1658
12.7917,1666
12.7944,1673
12.7972,1670
12.8000,1666
12.8028,1674
12.8056,1673
12.8083,1684
12.8111,1692
12.8139,1698
12.8167,1698
12.8194,1706
12.8222,1718
12.8250,1723
12.8278,1720
12.8306,1714
12.8333,1709
12.8361,1704
12.8389,1704
12.8417,1712
12.8444,1724
12.8472,1732
12.8500,1723
12.8528,1722
12.8556,1721
12.8583,1714
12.8611,1712
12.8639,1713
12.8667,1723
12.8694,1717
12.8722,1714
12.8750,1710
12.8778,1720
12.8806,1718
12.8833,1727
12.8861,1729
12.8889,1734
12.8917,1730
12.8944,1718
12.8972,1717
12.9000,1719
12.9028,1728
12.9056,1729
12.9083,1731
12.9111,1741
12.9139,1744
12.9167,1748
12.9194,1755
12.9222,1877
12.9250,1883
12.9278,1874
12.9306,1878
12.9333,1876
12.9361,1880
12.9389,1872
12.9417,1876
12.9444,1880
12.9472,1876
12.9500,1876
12.9528,1870
12.9556,1876
12.9583,1863
12.9611,1849
12.9639,1839
12.9667,1842
12.9694,1831
12.9722,1829
12.9750,1817
12.9778,1814
12.9806,1809
12.9833,1808
12.9861,1794
12.9889,1794
12.9917,1784
12.9944,1782
12.9972,1762
13.0000,1758
13.0028,1740
13.0056,1733
13.0083,1720
13.0111,1718
13.0139,1725
13.0167,1729
13.0194,1727
13.0222,1727
13.0250,1723
13.0278,1712
13.0306,1709
13.0333,1699
13.0361,1703
13.0389,1696
13.0417,1702
13.0444,1698
13.0472,1697
13.0500,1701
13.0528,1701
13.0556,1709
13.0583,1700
13.0611,1698
13.0639,1690
13.0667,1687
13.0694,1687
13.0722,1676
13.0750,1682
13.0778,1678
13.0806,1675
13.0833,1672
13.0861,1677
13.0889,1679
13.0917,1686
13.0944,1686
13.0972,1694
13.1000,1678
13.1028,1680
13.1056,1682
13.1083,1682
13.1111,1675
13.1139,1678
13.1167,1690
13.1194,1686
13.1222,1687
13.1250,1686
13.1278,1683
13.1306,1684
13.1333,1691
13.1361,1690
13.1389,1685
13.1417,1693
13.1444,1700
13.1472,1704
13.1500,1712
13.1528,1716
13.1556,1710
13.1583,1712
13.1611,1705
13.1639,1708
13.1667,1710
13.1694,1710
13.1722,1714
13.1750,1723
13.1778,1731
13.1806,1723
13.1833,1725
13.1861,1726
13.1889,1724
13.1917,1727
13.1944,1728
13.1972,1726
13.2000,1723
13.2028,1719
13.2056,1717
13.2083,1712
13.2111,1711
13.2139,1714
13.2167,1709
13.2194,1710
13.2222,1706
13.2250,1705
13.2278,1701
13.2306,1710
13.2333,1709
13.2361,1714
13.2389,1712
13.2417,1703
13.2444,1702
13.2472,1693
13.2500,1690
13.2528,1695
13.2556,1691
13.2583,1698
13.2611,1699
13.2639,1695
13.2667,1696
13.2694,1691
13.2722,1686
13.2750,1673
13.2778,1680
13.2806,1668
13.2833,1659
13.2861,1670
13.2889,1680
13.2917,1681
13.2944,1687
13.2972,1695
13.3000,1697
13.3028,1699
13.3056,1699
13.3083,1703
13.3111,1692
13.3139,1698
13.3167,1701
13.3194,1703
13.3222,1725
13.3250,1722
13.3278,1730
13.3306,1718
13.3333,1710
13.3361,1722
13.3389,1711
13.3417,1717
13.3444,1714
13.3472,1714
13.3500,1714
13.3528,1721
13.3556,1718
13.3583,1714
13.3611,1717
13.3639,1708
13.3667,1709
13.3694,1710
13.3722,1712
13.3750,1722
13.3778,1728
13.3806,1729
13.3833,1727
13.3861,1728
13.3889,1725
13.3917,1733
13.3944,1741
13.3972,1738
13.4000,1738
13.4028,1735
13.4056,1725
13.4083,1712
13.4111,1711
13.4139,1707
13.4167,1711
13.4194,1707
13.4222,1703
13.4250,1708
13.4278,1712
13.4306,1712
13.4333,1727
13.4361,1742
13.4389,1772
13.4417,1795
13.4444,1787
13.4472,1747
13.4500,1687
13.4528,1639
13.4556,1594
13.4583,1579
13.4611,1596
13.4639,1645
13.4667,1706
13.4694,1759
13.4722,1813
13.4750,1854
13.4778,1873
13.4806,1843
13.4833,1801
13.4861,1751
13.4889,1720
13.4917,1713
13.4944,1715
13.4972,1712
13.5000,1670
13.5028,1636
13.5056,1588
13.5083,1563
13.5111,1535
13.5139,1527
13.5167,1544
13.5194,1565
13.5222,1590
13.5250,1620
13.5278,1646
13.5306,1663
13.5333,1682
13.5361,1689
13.5389,1683
13.5417,1694
13.5444,1692
13.5472,1698
13.5500,1698
13.5528,1705
13.5556,1707
13.5583,1708
13.5611,1710
13.5639,1719
13.5667,1718
13.5694,1723
13.5722,1720
13.5750,1717
13.5778,1707
13.5806,1715
13.5833,1719
13.5861,1720
13.5889,1726
13.5917,1727
13.5944,1729
13.5972,1731
13.6000,1737
13.6028,1731
13.6056,1739
13.6083,1737
13.6111,1728
13.6139,1726
13.6167,1722
13.6194,1736
13.6222,1738
13.6250,1736
13.6278,1744
13.6306,1739
13.6333,1739
13.6361,1736
13.6389,1731
13.6417,1734
13.6444,1733
13.6472,1836
13.6500,1849
13.6528,1855
13.6556,1858
13.6583,1864
13.6611,1869
13.6639,1867
13.6667,1874
13.6694,1888
13.6722,1881
13.6750,1881
13.6778,1888
13.6806,1889
13.6833,1883
13.6861,1878
13.6889,1880
13.6917,1873
13.6944,1870
13.6972,1870
13.7000,1872
13.7028,1870
13.7056,1868
13.7083,1865
13.7111,1857
13.7139,1859
13.7167,1841
13.7194,1838
13.7222,1837
13.7250,1821
13.7278,1805
13.7306,1807
13.7333,1813
13.7361,1817
13.7389,1811
13.7417,1795
13.7444,1782
13.7472,1776
13.7500,1762
13.7528,1760
13.7556,1764
13.7583,1755
13.7611,1755
13.7639,1760
13.7667,1765
13.7694,1770
13.7722,1763
13.7750,1765
13.7778,1763
13.7806,1748
13.7833,1749
13.7861,1745
13.7889,1745
13.7917,1750
13.7944,1743
13.7972,1744
13.8000,1742
13.8028,1735
13.8056,1725
13.8083,1722
13.8111,1723
13.8139,1713
13.8167,1723
13.8194,1716
13.8222,1715
13.8250,1709
13.8278,1715
13.8306,1716
13.8333,1722
13.8361,1721
13.8389,1726
13.8417,1731
13.8444,1742
13.8472,1748
13.8500,1757
13.8528,1754
13.8556,1749
13.8583,1749
13.8611,1743
13.8639,1749
13.8667,1757
13.8694,1755
13.8722,1757
13.8750,1752
13.8778,1757
13.8806,1757
13.8833,1764
13.8861,1766
13.8889,1759
13.8917,1756
13.8944,1758
13.8972,1759
13.9000,1761
13.9028,1764
13.9056,1761
13.9083,1763
13.9111,1764
13.9139,1754
13.9167,1761
13.9194,1749
13.9222,1751
13.9250,1743
13.9278,1745
13.9306,1751
13.9333,1745
13.9361,1755
13.9389,1751
13.9417,1754
13.9444,1754
13.9472,1749
13.9500,1747
13.9528,1754
13.9556,1745
13.9583,1745
13.9611,1744
13.9639,1738
13.9667,1740
13.9694,1738
13.9722,1744
13.9750,1742
13.9778,1743
13.9806,1744
13.9833,1742
13.9861,1740
13.9889,1744
13.9917,1732
13.9944,1739
13.9972,1740
14.0000,1745
14.0028,1740
14.0056,1745
14.0083,1746
14.0111,1747
14.0139,1751
14.0167,1754
14.0194,1749
14.0222,1748
14.0250,1742
14.0278,1734
14.0306,1737
14.0333,1742
14.0361,1740
14.0389,1742
14.0417,1740
14.0444,1744
14.0472,1739
14.0500,1742
14.0528,1739
14.0556,1746
14.0583,1740
14.0611,1747
14.0639,1746
14.0667,1744
14.0694,1747
14.0722,1748
14.0750,1754
14.0778,1756
14.0806,1761
14.0833,1769
14.0861,1771
14.0889,1770
14.0917,1761
14.0944,1753
14.0972,1750
14.1000,1749
14.1028,1754
14.1056,1753
14.1083,1744
14.1111,1746
14.1139,1749
14.1167,1750
14.1194,1752
14.1222,1746
14.1250,1730
14.1278,1736
14.1306,1743
14.1333,1755
14.1361,1757
14.1389,1760
14.1417,1751
14.1444,1754
14.1472,1743
14.1500,1745
14.1528,1739
14.1556,1732
14.1583,1739
14.1611,1731
14.1639,1727
14.1667,1715
14.1694,1714
14.1722,1710
14.1750,1717
14.1778,1709
14.1806,1721
14.1833,1720
14.1861,1723
14.1889,1724
14.1917,1719
14.1944,1717
14.1972,1736
14.2000,1758
14.2028,1794
14.2056,1788
14.2083,1748
14.2111,1683
14.2139,1614
14.2167,1571
14.2194,1549
14.2222,1561
14.2250,1615
14.2278,1678
14.2306,1738
14.2333,1812
14.2361,1853
14.2389,1868
14.2417,1832
14.2444,1784
14.2472,1739
14.2500,1694
14.2528,1684
14.2556,1690
14.2583,1691
14.2611,1668
14.2639,1643
14.2667,1621
14.2694,1597
14.2722,1565
14.2750,1541
14.2778,1556
14.2806,1564
14.2833,1594
14.2861,1633
14.2889,1664
14.2917,1694
14.2944,1704
14.2972,1699
14.3000,1692
14.3028,1693
14.3056,1700
14.3083,1697
14.3111,1699
14.3139,1699
14.3167,1709
14.3194,1711
14.3222,1715
14.3250,1713
14.3278,1716
14.3306,1712
14.3333,1702
14.3361,1705
14.3389,1705
14.3417,1707
14.3444,1699
14.3472,1690
14.3500,1699
14.3528,1693
14.3556,1696
14.3583,1690
14.3611,1689
14.3639,1692
14.3667,1690
14.3694,1699
14.3722,1700
14.3750,1694
14.3778,1703
14.3806,1700
14.3833,1693
14.3861,1693
14.3889,1697
14.3917,1700
14.3944,1695
14.3972,1704
14.4000,1697
14.4028,1705
14.4056,1707
14.4083,1829
14.4111,1830
14.4139,1840
14.4167,1850
14.4194,1855
14.4222,1863
14.4250,1857
14.4278,1856
14.4306,1855
14.4333,1861
14.4361,1863
14.4389,1862
14.4417,1868
14.4444,1860
14.4472,1856
14.4500,1843
14.4528,1841
14.4556,1841
14.4583,1846
14.4611,1848
14.4639,1840
14.4667,1838
14.4694,1835
14.4722,1824
14.4750,1820
14.4778,1813
14.4806,1806
14.4833,1794
14.4861,1786
14.4889,1777
14.4917,1767
14.4944,1764
14.4972,1755
14.5000,1757
14.5028,1757
14.5056,1748
14.5083,1740
14.5111,1728
14.5139,1710
14.5167,1700
14.5194,1689
14.5222,1696
14.5250,1688
14.5278,1698
14.5306,1713
14.5333,1708
14.5361,1704
14.5389,1690
14.5417,1685
14.5444,1676
14.5472,1677
14.5500,1689
14.5528,1677
14.5556,1689
14.5583,1690
14.5611,1685
14.5639,1685
14.5667,1678
14.5694,1671
14.5722,1673
14.5750,1670
14.5778,1679
14.5806,1679
14.5833,1674
14.5861,1669
14.5889,1676
14.5917,1673
14.5944,1678
14.5972,1685
14.6000,1685
14.6028,1695
14.6056,1694
14.6083,1695
14.6111,1694
14.6139,1696
14.6167,1701
14.6194,1699
14.6222,1701
14.6250,1707
14.6278,1699
14.6306,1722
14.6333,1720
14.6361,1720
14.6389,1716
14.6417,1714
14.6444,1703
14.6472,1701
14.6500,1693
14.6528,1704
14.6556,1699
14.6583,1699
14.6611,1694
14.6639,1696
14.6667,1703
14.6694,1708
14.6722,1706
14.6750,1708
14.6778,1707
14.6806,1704
14.6833,1706
14.6861,1714
14.6889,1711
14.6917,1718
14.6944,1718
14.6972,1725
14.7000,1723
14.7028,1721
14.7056,1731
14.7083,1728
14.7111,1726
14.7139,1725
14.7167,1727
14.7194,1734
14.7222,1727
14.7250,1732
14.7278,1729
14.7306,1738
14.7333,1742
14.7361,1747
14.7389,1750
14.7417,1753
14.7444,1753
14.7472,1751
14.7500,1752
14.7528,1746
14.7556,1746
14.7583,1743
14.7611,1733
14.7639,1736
14.7667,1739
14.7694,1739
14.7722,1741
14.7750,1739
14.7778,1744
14.7806,1745
14.7833,1741
14.7861,1746
14.7889,1748
14.7917,1751
14.7944,1757
14.7972,1756
14.8000,1763
14.8028,1776
14.8056,1777
14.8083,1784
14.8111,1782
14.8139,1777
14.8167,1775
14.8194,1765
14.8222,1775
14.8250,1779
14.8278,1779
14.8306,1782
14.8333,1781
14.8361,1780
14.8389,1790
14.8417,1792
14.8444,1794
14.8472,1793
14.8500,1787
14.8528,1782
14.8556,1775
14.8583,1775
14.8611,1774
14.8639,1780
14.8667,1778
14.8694,1787
14.8722,1794
14.8750,1784
14.8778,1783
14.8806,1782
14.8833,1784
14.8861,1789
14.8889,1798
14.8917,1797
14.8944,1800
14.8972,1795
14.9000,1802
14.9028,1800
14.9056,1803
14.9083,1795
14.9111,1797
14.9139,1776
14.9167,1763
14.9194,1752
14.9222,1745
14.9250,1745
14.9278,1755
14.9306,1767
14.9333,1759
14.9361,1761
14.9389,1748
14.9417,1745
14.9444,1750
14.9472,1777
14.9500,1804
14.9528,1826
14.9556,1826
14.9583,1776
14.9611,1718
14.9639,1663
14.9667,1621
14.9694,1608
14.9722,1631
14.9750,1687
14.9778,1757
14.9806,1814
14.9833,1860
14.9861,1899
14.9889,1912
14.9917,1883
14.9944,1838
14.9972,1799
15.0000,1773
15.0028,1765
15.0056,1767
15.0083,1752
15.0111,1722
15.0139,1690
15.0167,1642
15.0194,1609
15.0222,1590
15.0250,1572
15.0278,1575
15.0306,1592
15.0333,1625
15.0361,1654
15.0389,1667
15.0417,1680
15.0444,1696
15.0472,1707
15.0500,1708
15.0528,1709
15.0556,1719
15.0583,1724
15.0611,1737
15.0639,1737
15.0667,1740
15.0694,1733
15.0722,1741
15.0750,1738
15.0778,1744
15.0806,1744
15.0833,1739
15.0861,1729
15.0889,1724
15.0917,1726
15.0944,1727
15.0972,1737
15.1000,1733
15.1028,1730
15.1056,1734
15.1083,1725
15.1111,1729
15.1139,1726
15.1167,1733
15.1194,1731
15.1222,1722
15.1250,1725
15.1278,1728
15.1306,1722
15.1333,1717
15.1361,1723
15.1389,1726
15.1417,1731
15.1444,1728
15.1472,1723
15.1500,1720
15.1528,1703
15.1556,1705
15.1583,1707
15.1611,1702
15.1639,1708
15.1667,1706
15.1694,1712
15.1722,1702
15.1750,1845
15.1778,1845
15.1806,1847
15.1833,1854
15.1861,1857
15.1889,1858
15.1917,1860
15.1944,1859
15.1972,1865
15.2000,1877
15.2028,1871
15.2056,1875
15.2083,1871
15.2111,1860
15.2139,1848
15.2167,1837
15.2194,1829
15.2222,1816
15.2250,1808
15.2278,1812
15.2306,1805
15.2333,1805
15.2361,1803
15.2389,1785
15.2417,1786
15.2444,1776
15.2472,1773
15.2500,1773
15.2528,1767
15.2556,1762
15.2583,1742
15.2611,1734
15.2639,1723
15.2667,1714
15.2694,1714
15.2722,1717
15.2750,1715
15.2778,1716
15.2806,1711
15.2833,1715
15.2861,1710
15.2889,1704
15.2917,1700
15.2944,1706
15.2972,1710
15.3000,1714
15.3028,1725
15.3056,1725
15.3083,1717
15.3111,1713
15.3139,1709
15.3167,1706
15.3194,1709
15.3222,1699
15.3250,1699
15.3278,1697
15.3306,1697
15.3333,1695
15.3361,1694
15.3389,1702
15.3417,1708
15.3444,1703
15.3472,1710
15.3500,1712
15.3528,1712
15.3556,1703
15.3583,1698
15.3611,1706
15.3639,1698
15.3667,1703
15.3694,1705
15.3722,1705
15.3750,1709
15.3778,1716
15.3806,1715
15.3833,1717
15.3861,1716
15.3889,1695
15.3917,1698
15.3944,1700
15.3972,1700
15.4000,1704
15.4028,1698
15.4056,1700
15.4083,1706
15.4111,1697
15.4139,1694
15.4167,1695
15.4194,1693
15.4222,1691
15.4250,1688
15.4278,1689
15.4306,1684
15.4333,1693
15.4361,1694
15.4389,1690
15.4417,1694
15.4444,1690
15.4472,1683
15.4500,1692
15.4528,1692
15.4556,1689
15.4583,1688
15.4611,1689
15.4639,1690
15.4667,1689
15.4694,1691
15.4722,1699
15.4750,1691
15.4778,1691
15.4806,1688
15.4833,1693
15.4861,1690
15.4889,1684
15.4917,1686
15.4944,1697
15.4972,1700
15.5000,1714
15.5028,1722
15.5056,1729
15.5083,1720
15.5111,1711
15.5139,1706
15.5167,1701
15.5194,1700
15.5222,1699
15.5250,1696
15.5278,1689
15.5306,1695
15.5333,1704
15.5361,1710
15.5389,1713
15.5417,1710
15.5444,1714
15.5472,1711
15.5500,1706
15.5528,1706
15.5556,1700
15.5583,1697
15.5611,1692
15.5639,1696
15.5667,1702
15.5694,1706
15.5722,1721
15.5750,1719
15.5778,1711
15.5806,1723
15.5833,1727
15.5861,1725
15.5889,1718
15.5917,1722
15.5944,1714
15.5972,1708
15.6000,1721
15.6028,1720
15.6056,1724
15.6083,1712
15.6111,1718
15.6139,1716
15.6167,1718
15.6194,1711
15.6222,1705
15.6250,1698
15.6278,1714
15.6306,1717
15.6333,1716
15.6361,1719
15.6389,1722
15.6417,1724
15.6444,1723
15.6472,1730
15.6500,1734
15.6528,1722
15.6556,1720
15.6583,1711
15.6611,1708
15.6639,1710
15.6667,1709
15.6694,1701
15.6722,1705
15.6750,1698
15.6778,1690
15.6806,1694
15.6833,1682
15.6861,1685
15.6889,1690
15.6917,1703
15.6944,1728
15.6972,1751
15.7000,1766
15.7028,1748
15.7056,1690
15.7083,1632
15.7111,1583
15.7139,1558
15.7167,1554
15.7194,1589
15.7222,1641
15.7250,1709
15.7278,1763
15.7306,1816
15.7333,1853
15.7361,1842
15.7389,1803
15.7417,1754
15.7444,1717
15.7472,1698
15.7500,1694
15.7528,1701
15.7556,1676
15.7583,1633
15.7611,1600
15.7639,1559
15.7667,1540
15.7694,1517
15.7722,1516
15.7750,1525
15.7778,1542
15.7806,1562
15.7833,1588
15.7861,1615
15.7889,1639
15.7917,1651
15.7944,1658
15.7972,1658
15.8000,1670
15.8028,1658
15.8056,1663
15.8083,1660
15.8111,1663
15.8139,1661
15.8167,1657
15.8194,1659
15.8222,1669
15.8250,1665
15.8278,1672
15.8306,1665
15.8333,1679
15.8361,1674
15.8389,1677
15.8417,1677
15.8444,1683
15.8472,1687
15.8500,1690
15.8528,1688
15.8556,1688
15.8583,1687
15.8611,1681
15.8639,1686
15.8667,1692
15.8694,1693
15.8722,1695
15.8750,1701
15.8778,1702
15.8806,1706
15.8833,1708
15.8861,1715
15.8889,1707
15.8917,1707
15.8944,1696
15.8972,1708
15.9000,1713
15.9028,1718
15.9056,1725
15.9083,1722
15.9111,1716
15.9139,1721
15.9167,1728
15.9194,1735
15.9222,1869
15.9250,1869
15.9278,1872
15.9306,1873
15.9333,1883
15.9361,1891
15.9389,1883
15.9417,1884
15.9444,1881
15.9472,1887
15.9500,1877
15.9528,1877
15.9556,1870
15.9583,1863
15.9611,1844
15.9639,1843
15.9667,1836
15.9694,1840
15.9722,1830
15.9750,1822
15.9778,1808
15.9806,1804
15.9833,1792
15.9861,1779
15.9889,1774
15.9917,1770
15.9944,1764
15.9972,1756
16.0000,1745
16.0028,1734
16.0056,1719
16.0083,1719
16.0111,1709
16.0139,1694
16.0167,1703
16.0194,1709
16.0222,1702
16.0250,1703
16.0278,1703
16.0306,1697
16.0333,1692
16.0361,1684
16.0389,1683
16.0417,1675
16.0444,1678
16.0472,1668
16.0500,1679
16.0528,1673
16.0556,1666
16.0583,1661
16.0611,1656
16.0639,1651
16.0667,1653
16.0694,1652
16.0722,1657
16.0750,1661
16.0778,1662
16.0806,1654
16.0833,1653
16.0861,1658
16.0889,1661
16.0917,1669
16.0944,1666
16.0972,1662
16.1000,1653
16.1028,1656
16.1056,1667
16.1083,1663
16.1111,1675
16.1139,1679
16.1167,1673
16.1194,1672
16.1222,1671
16.1250,1672
16.1278,1671
16.1306,1670
16.1333,1667
16.1361,1672
16.1389,1668
16.1417,1667
16.1444,1664
16.1472,1664
16.1500,1668
16.1528,1676
16.1556,1682
16.1583,1680
16.1611,1682
16.1639,1681
16.1667,1678
16.1694,1672
16.1722,1684
16.1750,1685
16.1778,1689
16.1806,1693
16.1833,1693
16.1861,1695
16.1889,1693
16.1917,1698
16.1944,1694
16.1972,1687
16.2000,1688
16.2028,1687
16.2056,1687
16.2083,1687
16.2111,1692
16.2139,1692
16.2167,1703
16.2194,1706
16.2222,1706
16.2250,1721
16.2278,1723
16.2306,1715
16.2333,1707
16.2361,1712
16.2389,1710
16.2417,1718
16.2444,1711
16.2472,1713
16.2500,1706
16.2528,1705
16.2556,1711
16.2583,1712
16.2611,1716
16.2639,1716
16.2667,1725
16.2694,1725
16.2722,1721
16.2750,1719
16.2778,1710
16.2806,1714
16.2833,1714
16.2861,1714
16.2889,1714
16.2917,1721
16.2944,1721
16.2972,1722
16.3000,1725
16.3028,1718
16.3056,1716
16.3083,1718
16.3111,1719
16.3139,1713
16.3167,1717
16.3194,1717
16.3222,1714
16.3250,1720
16.3278,1717
16.3306,1725
16.3333,1732
16.3361,1737
16.3389,1733
16.3417,1731
16.3444,1738
16.3472,1728
16.3500,1745
16.3528,1741
16.3556,1750
16.3583,1753
16.3611,1752
16.3639,1760
16.3667,1753
16.3694,1762
16.3722,1757
16.3750,1754
16.3778,1755
16.3806,1765
16.3833,1782
16.3861,1776
16.3889,1770
16.3917,1771
16.3944,1775
16.3972,1766
16.4000,1753
16.4028,1753
16.4056,1764
16.4083,1773
16.4111,1773
16.4139,1774
16.4167,1766
16.4194,1770
16.4222,1767
16.4250,1765
16.4278,1757
16.4306,1754
16.4333,1757
16.4361,1764
16.4389,1766
16.4417,1773
16.4444,1779
16.4472,1809
16.4500,1850
16.4528,1865
16.4556,1845
16.4583,1806
16.4611,1740
16.4639,1679
16.4667,1641
16.4694,1630
16.4722,1655
16.4750,1703
16.4778,1766
16.4806,1826
16.4833,1880
16.4861,1923
16.4889,1923
16.4917,1887
16.4944,1829
16.4972,1783
16.5000,1753
16.5028,1750
16.5056,1753
16.5083,1750
16.5111,1722
16.5139,1686
16.5167,1649
16.5194,1622
16.5222,1591
16.5250,1588
16.5278,1591
16.5306,1608
16.5333,1634
16.5361,1665
16.5389,1695
16.5417,1712
16.5444,1730
16.5472,1724
16.5500,1721
16.5528,1720
16.5556,1728
16.5583,1731
16.5611,1731
16.5639,1735
16.5667,1724
16.5694,1720
16.5722,1726
16.5750,1727
16.5778,1734
16.5806,1732
16.5833,1732
16.5861,1724
16.5889,1731
16.5917,1736
16.5944,1735
16.5972,1734
16.6000,1735
16.6028,1735
16.6056,1734
16.6083,1724
16.6111,1712
16.6139,1714
16.6167,1710
16.6194,1719
16.6222,1722
16.6250,1722
16.6278,1715
16.6306,1716
16.6333,1713
16.6361,1716
16.6389,1713
16.6417,1711
16.6444,1716
16.6472,1712
16.6500,1713
16.6528,1718
16.6556,1724
16.6583,1836
16.6611,1845
16.6639,1850
16.6667,1862
16.6694,1871
16.6722,1880
16.6750,1877
16.6778,1869
16.6806,1869
16.6833,1859
16.6861,1860
16.6889,1857
16.6917,1862
16.6944,1866
16.6972,1870
16.7000,1849
16.7028,1847
16.7056,1840
16.7083,1846
16.7111,1842
16.7139,1834
16.7167,1837
16.7194,1824
16.7222,1815
16.7250,1803
16.7278,1794
16.7306,1788
16.7333,1789
16.7361,1789
16.7389,1783
16.7417,1773
16.7444,1764
16.7472,1761
16.7500,1754
16.7528,1744
16.7556,1743
16.7583,1742
16.7611,1733
16.7639,1723
16.7667,1729
16.7694,1734
16.7722,1733
16.7750,1731
16.7778,1717
16.7806,1712
16.7833,1710
16.7861,1709
16.7889,1705
16.7917,1696
16.7944,1690
16.7972,1695
16.8000,1695
16.8028,1694
16.8056,1696
16.8083,1695
16.8111,1695
16.8139,1697
16.8167,1701
16.8194,1702
16.8222,1702
16.8250,1699
16.8278,1707
16.8306,1701
16.8333,1703
16.8361,1704
16.8389,1698
16.8417,1708
16.8444,1703
16.8472,1703
16.8500,1708
16.8528,1712
16.8556,1711
16.8583,1707
16.8611,1714
16.8639,1706
16.8667,1701
16.8694,1702
16.8722,1698
16.8750,1706
16.8778,1705
16.8806,1704
16.8833,1716
16.8861,1712
16.8889,1715
16.8917,1713
16.8944,1714
16.8972,1715
16.9000,1715
16.9028,1715
16.9056,1715
16.9083,1716
16.9111,1719
16.9139,1720
16.9167,1725
16.9194,1731
16.9222,1732
16.9250,1728
16.9278,1729
16.9306,1723
16.9333,1720
16.9361,1714
16.9389,1728
16.9417,1727
16.9444,1735
16.9472,1729
16.9500,1739
16.9528,1741
16.9556,1734
16.9583,1733
16.9611,1733
16.9639,1736
16.9667,1735
16.9694,1730
16.9722,1725
16.9750,1730
16.9778,1712
16.9806,1713
16.9833,1708
16.9861,1717
16.9889,1723
16.9917,1721
16.9944,1712
16.9972,1706
17.0000,1693
17.0028,1691
17.0056,1688
17.0083,1700
17.0111,1706
17.0139,1717
17.0167,1720
17.0194,1724
17.0222,1710
17.0250,1710
17.0278,1703
17.0306,1702
17.0333,1702
17.0361,1704
17.0389,1699
17.0417,1702
17.0444,1693
17.0472,1703
17.0500,1692
17.0528,1697
17.0556,1691
17.0583,1684
17.0611,1683
17.0639,1688
17.0667,1686
17.0694,1679
17.0722,1671
17.0750,1667
17.0778,1672
17.0806,1669
17.0833,1667
17.0861,1668
17.0889,1672
17.0917,1673
17.0944,1676
17.0972,1680
17.1000,1673
17.1028,1680
17.1056,1671
17.1083,1665
17.1111,1661
17.1139,1649
17.1167,1655
17.1194,1660
17.1222,1671
17.1250,1672
17.1278,1674
17.1306,1663
17.1333,1671
17.1361,1667
17.1389,1666
17.1417,1669
17.1444,1677
17.1472,1687
17.1500,1697
17.1528,1696
17.1556,1698
17.1583,1688
17.1611,1700
17.1639,1693
17.1667,1697
17.1694,1690
17.1722,1692
17.1750,1687
17.1778,1685
17.1806,1685
17.1833,1685
17.1861,1677
17.1889,1690
17.1917,1688
17.1944,1696
17.1972,1703
17.2000,1715
17.2028,1738
17.2056,1773
17.2083,1798
17.2111,1785
17.2139,1748
17.2167,1693
17.2194,1644
17.2222,1615
17.2250,1592
17.2278,1624
17.2306,1679
17.2333,1760
17.2361,1822
17.2389,1890
17.2417,1928
17.2444,1937
17.2472,1915
17.2500,1857
17.2528,1822
17.2556,1788
17.2583,1787
17.2611,1800
17.2639,1795
17.2667,1762
17.2694,1722
17.2722,1682
17.2750,1643
17.2778,1615
17.2806,1621
17.2833,1630
17.2861,1646
17.2889,1670
17.2917,1704
17.2944,1734
17.2972,1759
17.3000,1774
17.3028,1776
17.3056,1766
17.3083,1764
17.3111,1755
17.3139,1746
17.3167,1755
17.3194,1758
17.3222,1752
17.3250,1752
17.3278,1754
17.3306,1756
17.3333,1764
17.3361,1768
17.3389,1761
17.3417,1751
17.3444,1750
17.3472,1749
17.3500,1753
17.3528,1754
17.3556,1759
17.3583,1757
17.3611,1759
17.3639,1750
17.3667,1752
17.3694,1756
17.3722,1764
17.3750,1762
17.3778,1763
17.3806,1756
17.3833,1750
17.3861,1736
17.3889,1740
17.3917,1748
17.3944,1753
17.3972,1745
17.4000,1737
17.4028,1730
17.4056,1726
17.4083,1730
17.4111,1730
17.4139,1732
17.4167,1731
17.4194,1732
17.4222,1741
17.4250,1743
17.4278,1745
17.4306,1853
17.4333,1854
17.4361,1852
17.4389,1854
17.4417,1854
17.4444,1866
17.4472,1871
17.4500,1865
17.4528,1867
17.4556,1867
17.4583,1871
17.4611,1868
17.4639,1864
17.4667,1852
17.4694,1843
17.4722,1833
17.4750,1829
17.4778,1816
17.4806,1811
17.4833,1809
17.4861,1806
17.4889,1793
17.4917,1783
17.4944,1771
17.4972,1750
17.5000,1743
17.5028,1745
17.5056,1728
17.5083,1738
17.5111,1731
17.5139,1718
17.5167,1711
17.5194,1716
17.5222,1715
17.5250,1723
17.5278,1727
17.5306,1717
17.5333,1717
17.5361,1707
17.5389,1698
17.5417,1697
17.5444,1700
17.5472,1694
17.5500,1685
17.5528,1693
17.5556,1699
17.5583,1707
17.5611,1707
17.5639,1715
17.5667,1714
17.5694,1704
17.5722,1700
17.5750,1689
17.5778,1693
17.5806,1682
17.5833,1689
17.5861,1697
17.5889,1701
17.5917,1712
17.5944,1714
17.5972,1715
17.6000,1711
17.6028,1717
17.6056,1719
17.6083,1716
17.6111,1719
17.6139,1712
17.6167,1715
17.6194,1717
17.6222,1718
17.6250,1718
17.6278,1720
17.6306,1721
17.6333,1726
17.6361,1731
17.6389,1743
17.6417,1740
17.6444,1743
17.6472,1744
17.6500,1743
17.6528,1748
17.6556,1749
17.6583,1752
17.6611,1759
17.6639,1758
17.6667,1759
17.6694,1751
17.6722,1738
17.6750,1735
17.6778,1738
17.6806,1733
17.6833,1739
17.6861,1745
17.6889,1746
17.6917,1752
17.6944,1744
17.6972,1744
17.7000,1738
17.7028,1736
17.7056,1741
17.7083,1725
17.7111,1730
17.7139,1737
17.7167,1743
17.7194,1744
17.7222,1749
17.7250,1741
17.7278,1734
17.7306,1746
17.7333,1735
17.7361,1739
17.7389,1741
17.7417,1748
17.7444,1740
17.7472,1741
17.7500,1740
17.7528,1739
17.7556,1737
17.7583,1732
17.7611,1730
17.7639,1726
17.7667,1729
17.7694,1726
17.7722,1731
17.7750,1723
17.7778,1726
17.7806,1735
17.7833,1724
17.7861,1732
17.7889,1744
17.7917,1740
17.7944,1745
17.7972,1741
17.8000,1733
17.8028,1726
17.8056,1722
17.8083,1721
17.8111,1717
17.8139,1716
17.8167,1718
17.8194,1728
17.8222,1731
17.8250,1731
17.8278,1724
17.8306,1736
17.8333,1742
17.8361,1736
17.8389,1741
17.8417,1742
17.8444,1744
17.8472,1737
17.8500,1731
17.8528,1731
17.8556,1729
17.8583,1724
17.8611,1716
17.8639,1710
17.8667,1711
17.8694,1714
17.8722,1724
17.8750,1725
17.8778,1729
17.8806,1711
17.8833,1720
17.8861,1721
17.8889,1707
17.8917,1704
17.8944,1682
17.8972,1668
17.9000,1655
17.9028,1636
17.9056,1642
17.9083,1639
17.9111,1639
17.9139,1641
17.9167,1621
17.9194,1602
17.9222,1602
17.9250,1591
17.9278,1583
17.9306,1577
17.9333,1569
17.9361,1557
17.9389,1552
17.9417,1553
17.9444,1550
17.9472,1552
17.9500,1570
17.9528,1598
17.9556,1606
17.9583,1591
17.9611,1542
17.9639,1481
17.9667,1436
17.9694,1414
17.9722,1418
17.9750,1453
17.9778,1516
17.9806,1585
17.9833,1647
17.9861,1725
17.9889,1770
17.9917,1776
17.9944,1749
17.9972,1703
18.0000,1673
18.0028,1647
18.0056,1660
18.0083,1666
18.0111,1660
18.0139,1638
18.0167,1614
18.0194,1593
18.0222,1571
18.0250,1564
18.0278,1573
18.0306,1590
18.0333,1615
18.0361,1660
18.0389,1692
18.0417,1735
18.0444,1764
18.0472,1785
18.0500,1804
18.0528,1823
18.0556,1835
18.0583,1844
18.0611,1849
18.0639,1855
18.0667,1858
18.0694,1863
18.0722,1861
18.0750,1858
18.0778,1855
18.0806,1856
18.0833,1858
18.0861,1858
18.0889,1858
18.0917,1858
18.0944,1858
18.0972,1861
18.1000,1860
18.1028,1848
18.1056,1835
18.1083,1821
18.1111,1816
18.1139,1812
18.1167,1809
18.1194,1811
18.1222,1802
18.1250,1800
18.1278,1800
18.1306,1793
18.1333,1787
18.1361,1783
18.1389,1783
18.1417,1772
18.1444,1763
18.1472,1758
18.1500,1759
18.1528,1760
18.1556,1760
18.1583,1762
18.1611,1763
18.1639,1765
18.1667,1765
18.1694,1768
18.1722,1763
18.1750,1758
18.1778,1800
18.1806,1804
18.1833,1811
18.1861,1812
18.1889,1810
18.1917,1800
18.1944,1802
18.1972,1803
18.2000,1806
18.2028,1814
18.2056,1818
18.2083,1820
18.2111,1820
18.2139,1810
18.2167,1799
18.2194,1796
18.2222,1790
18.2250,1781
18.2278,1777
18.2306,1763
18.2333,1751
18.2361,1748
18.2389,1739
18.2417,1733
18.2444,1730
18.2472,1722
18.2500,1705
18.2528,1697
18.2556,1693
18.2583,1688
18.2611,1693
18.2639,1693
18.2667,1692
18.2694,1686
18.2722,1685
18.2750,1676
18.2778,1666
18.2806,1653
18.2833,1640
18.2861,1635
18.2889,1619
18.2917,1629
18.2944,1616
18.2972,1611
18.3000,1604
18.3028,1609
18.3056,1599
18.3083,1590
18.3111,1582
18.3139,1571
18.3167,1567
18.3194,1559
18.3222,1559
18.3250,1563
18.3278,1554
18.3306,1552
18.3333,1542
18.3361,1541
18.3389,1532
18.3417,1528
18.3444,1520
18.3472,1524
18.3500,1518
18.3528,1516
18.3556,1515
18.3583,1517
18.3611,1514
18.3639,1524
18.3667,1534
18.3694,1548
18.3722,1551
18.3750,1551
18.3778,1566
18.3806,1556
18.3833,1560
18.3861,1566
18.3889,1574
18.3917,1580
18.3944,1592
18.3972,1598
18.4000,1614
18.4028,1627
18.4056,1631
18.4083,1648
18.4111,1648
18.4139,1656
18.4167,1663
18.4194,1672
18.4222,1670
18.4250,1672
18.4278,1672
18.4306,1680
18.4333,1687
18.4361,1682
18.4389,1688
18.4417,1704
18.4444,1705
18.4472,1713
18.4500,1724
18.4528,1728
18.4556,1735
18.4583,1738
18.4611,1751
18.4639,1765
18.4667,1768
18.4694,1775
18.4722,1790
18.4750,1796
18.4778,1806
18.4806,1811
18.4833,1808
18.4861,1821
18.4889,1832
18.4917,1833
18.4944,1834
18.4972,1851
18.5000,1863
18.5028,1874
18.5056,1890
18.5083,1892
18.5111,1904
18.5139,1916
18.5167,1925
18.5194,1936
18.5222,1949
18.5250,1961
18.5278,1969
18.5306,1966
18.5333,1967
18.5361,1966
18.5389,1965
18.5417,1970
18.5444,1968
18.5472,1979
18.5500,1982
18.5528,1982
18.5556,1980
18.5583,1981
18.5611,1976
18.5639,1970
18.5667,1948
18.5694,1943
18.5722,1949
18.5750,1935
18.5778,1939
18.5806,1946
18.5833,1946
18.5861,1941
18.5889,1942
18.5917,1938
18.5944,1925
18.5972,1922
18.6000,1904
18.6028,1901
18.6056,1897
18.6083,1882
18.6111,1871
18.6139,1878
18.6167,1871
18.6194,1868
18.6222,1866
18.6250,1850
18.6278,1849
18.6306,1846
18.6333,1840
18.6361,1835
18.6389,1831
18.6417,1837
18.6444,1833
18.6472,1832
18.6500,1830
18.6528,1817
18.6556,1800
18.6583,1801
18.6611,1794
18.6639,1785
18.6667,1785
18.6694,1774
18.6722,1764
18.6750,1760
18.6778,1746
18.6806,1742
18.6833,1732
18.6861,1719
18.6889,1720
18.6917,1713
18.6944,1708
18.6972,1698
18.7000,1692
18.7028,1690
18.7056,1712
18.7083,1731
18.7111,1748
18.7139,1733
18.7167,1694
18.7194,1635
18.7222,1569
18.7250,1519
18.7278,1490
18.7306,1491
18.7333,1541
18.7361,1603
18.7389,1670
18.7417,1734
18.7444,1787
18.7472,1794
18.7500,1775
18.7528,1726
18.7556,1671
18.7583,1632
18.7611,1614
18.7639,1621
18.7667,1636
18.7694,1608
18.7722,1571
18.7750,1534
18.7778,1503
18.7806,1470
18.7833,1451
18.7861,1443
18.7889,1451
18.7917,1483
18.7944,1513
18.7972,1542
18.8000,1567
18.8028,1574
18.8056,1588
18.8083,1593
18.8111,1595
18.8139,1596
18.8167,1598
18.8194,1601
18.8222,1599
18.8250,1599
18.8278,1607
18.8306,1609
18.8333,1605
18.8361,1613
18.8389,1610
18.8417,1619
18.8444,1625
18.8472,1625
18.8500,1621
18.8528,1614
18.8556,1614
18.8583,1613
18.8611,1619
18.8639,1621
18.8667,1623
18.8694,1620
18.8722,1617
18.8750,1618
18.8778,1625
18.8806,1624
18.8833,1626
18.8861,1626
18.8889,1629
18.8917,1627
18.8944,1624
18.8972,1625
18.9000,1624
18.9028,1619
18.9056,1629
18.9083,1621
18.9111,1626
18.9139,1633
18.9167,1636
18.9194,1642
18.9222,1634
18.9250,1632
18.9278,1621
18.9306,1624
18.9333,1638
18.9361,1826
18.9389,1820
18.9417,1821
18.9444,1827
18.9472,1824
18.9500,1841
18.9528,1831
18.9556,1830
18.9583,1828
18.9611,1837
18.9639,1844
18.9667,1850
18.9694,1837
18.9722,1830
18.9750,1816
18.9778,1821
18.9806,1814
18.9833,1808
18.9861,1793
18.9889,1792
18.9917,1795
18.9944,1783
18.9972,1776
19.0000,1774
19.0028,1760
19.0056,1756
19.0083,1756
19.0111,1747
19.0139,1741
19.0167,1730
19.0194,1718
19.0222,1721
19.0250,1705
19.0278,1706
19.0306,1702
19.0333,1697
19.0361,1693
19.0389,1686
19.0417,1677
19.0444,1687
19.0472,1690
19.0500,1689
19.0528,1692
19.0556,1693
19.0583,1689
19.0611,1688
19.0639,1685
19.0667,1686
19.0694,1678
19.0722,1680
19.0750,1670
19.0778,1666
19.0806,1654
19.0833,1642
19.0861,1627
19.0889,1604
19.0917,1603
19.0944,1591
19.0972,1580
19.1000,1561
19.1028,1566
19.1056,1558
19.1083,1558
19.1111,1562
19.1139,1561
19.1167,1564
19.1194,1565
19.1222,1577
19.1250,1582
19.1278,1585
19.1306,1586
19.1333,1594
19.1361,1602
19.1389,1612
19.1417,1613
19.1444,1625
19.1472,1635
19.1500,1648
19.1528,1639
19.1556,1644
19.1583,1636
19.1611,1644
19.1639,1644
19.1667,1645
19.1694,1648
19.1722,1646
19.1750,1644
19.1778,1647
19.1806,1657
19.1833,1666
19.1861,1673
19.1889,1684
19.1917,1690
19.1944,1689
19.1972,1687
19.2000,1693
19.2028,1706
19.2056,1711
19.2083,1720
19.2111,1726
19.2139,1727
19.2167,1724
19.2194,1715
19.2222,1717
19.2250,1720
19.2278,1720
19.2306,1728
19.2333,1740
19.2361,1732
19.2389,1738
19.2417,1746
19.2444,1738
19.2472,1746
19.2500,1737
19.2528,1743
19.2556,1747
19.2583,1750
19.2611,1759
19.2639,1772
19.2667,1782
19.2694,1792
19.2722,1801
19.2750,1805
19.2778,1803
19.2806,1809
19.2833,1821
19.2861,1832
19.2889,1847
19.2917,1855
19.2944,1867
19.2972,1876
19.3000,1890
19.3028,1902
19.3056,1906
19.3083,1897
19.3111,1894
19.3139,1897
19.3167,1901
19.3194,1910
19.3222,1932
19.3250,1939
19.3278,1938
19.3306,1956
19.3333,1964
19.3361,1973
19.3389,1979
19.3417,1989
19.3444,1999
19.3472,2001
19.3500,2017
19.3528,2033
19.3556,2048
19.3583,2065
19.3611,2082
19.3639,2081
19.3667,2085
19.3694,2097
19.3722,2102
19.3750,2096
19.3778,2106
19.3806,2111
19.3833,2117
19.3861,2123
19.3889,2137
19.3917,2149
19.3944,2154
19.3972,2169
19.4000,2178
19.4028,2179
19.4056,2182
19.4083,2190
19.4111,2185
19.4139,2186
19.4167,2183
19.4194,2187
19.4222,2185
19.4250,2182
19.4278,2175
19.4306,2183
19.4333,2172
19.4361,2161
19.4389,2152
19.4417,2138
19.4444,2130
19.4472,2121
19.4500,2119
19.4528,2100
19.4556,2106
19.4583,2091
19.4611,2090
19.4639,2087
19.4667,2071
19.4694,2078
19.4722,2091
19.4750,2105
19.4778,2111
19.4806,2089
19.4833,2033
19.4861,1970
19.4889,1910
19.4917,1864
19.4944,1843
19.4972,1862
19.5000,1902
19.5028,1957
19.5056,2013
19.5083,2057
19.5111,2087
19.5139,2085
19.5167,2049
19.5194,1997
19.5222,1943
19.5250,1911
19.5278,1898
19.5306,1898
19.5333,1887
19.5361,1850
19.5389,1807
19.5417,1760
19.5444,1716
19.5472,1686
19.5500,1668
19.5528,1675
19.5556,1692
19.5583,1718
19.5611,1747
19.5639,1779
19.5667,1786
19.5694,1801
19.5722,1792
19.5750,1795
19.5778,1805
19.5806,1803
19.5833,1786
19.5861,1786
19.5889,1775
19.5917,1779
19.5944,1769
19.5972,1772
19.6000,1772
19.6028,1770
19.6056,1764
19.6083,1763
19.6111,1763
19.6139,1750
19.6167,1748
19.6194,1736
19.6222,1736
19.6250,1739
19.6278,1742
19.6306,1745
19.6333,1744
19.6361,1742
19.6389,1741
19.6417,1741
19.6444,1741
19.6472,1738
19.6500,1734
19.6528,1730
19.6556,1724
19.6583,1734
19.6611,1727
19.6639,1736
19.6667,1742
19.6694,1743
19.6722,1744
19.6750,1752
19.6778,1755
19.6806,1762
19.6833,1878
19.6861,1876
19.6889,1890
19.6917,1894
19.6944,1896
19.6972,1906
19.7000,1915
19.7028,1916
19.7056,1919
19.7083,1918
19.7111,1915
19.7139,1917
19.7167,1907
19.7194,1909
19.7222,1908
19.7250,1913
19.7278,1907
19.7306,1909
19.7333,1909
19.7361,1903
19.7389,1890
19.7417,1884
19.7444,1868
19.7472,1861
19.7500,1846
19.7528,1832
19.7556,1823
19.7583,1809
19.7611,1807
19.7639,1800
19.7667,1787
19.7694,1788
19.7722,1775
19.7750,1766
19.7778,1764
19.7806,1769
19.7833,1762
19.7861,1759
19.7889,1763
19.7917,1757
19.7944,1761
19.7972,1751
19.8000,1755
19.8028,1750
19.8056,1745
19.8083,1759
19.8111,1750
19.8139,1741
19.8167,1744
19.8194,1741
19.8222,1740
19.8250,1748
19.8278,1740
19.8306,1733
19.8333,1730
19.8361,1726
19.8389,1729
19.8417,1724
19.8444,1726
19.8472,1729
19.8500,1724
19.8528,1726
19.8556,1725
19.8583,1722
19.8611,1715
19.8639,1714
19.8667,1722
19.8694,1718
19.8722,1719
19.8750,1721
19.8778,1727
19.8806,1726
19.8833,1727
19.8861,1738
19.8889,1740
19.8917,1740
19.8944,1747
19.8972,1745
19.9000,1748
19.9028,1746
19.9056,1751
19.9083,1751
19.9111,1757
19.9139,1750
19.9167,1739
19.9194,1741
19.9222,1737
19.9250,1725
19.9278,1729
19.9306,1727
19.9333,1722
19.9361,1724
19.9389,1733
19.9417,1732
19.9444,1731
19.9472,1728
19.9500,1729
19.9528,1728
19.9556,1728
19.9583,1728
19.9611,1730
19.9639,1717
19.9667,1713
19.9694,1721
19.9722,1724
19.9750,1725
19.9778,1738
19.9806,1733
19.9833,1730
19.9861,1717
19.9889,1705
19.9917,1703
19.9944,1705
19.9972,1707
20.0000,1709
20.0028,1709
20.0056,1708
20.0083,1710
20.0111,1712
20.0139,1701
20.0167,1701
20.0194,1699
20.0222,1689
20.0250,1693
20.0278,1700
20.0306,1692
20.0333,1689
20.0361,1683
20.0389,1687
20.0417,1697
20.0444,1695
20.0472,1701
20.0500,1693
20.0528,1690
20.0556,1676
20.0583,1679
20.0611,1672
20.0639,1664
20.0667,1666
20.0694,1666
20.0722,1673
20.0750,1677
20.0778,1671
20.0806,1673
20.0833,1672
20.0861,1669
20.0889,1666
20.0917,1663
20.0944,1657
20.0972,1646
20.1000,1653
20.1028,1648
20.1056,1657
20.1083,1658
20.1111,1663
20.1139,1660
20.1167,1663
20.1194,1650
20.1222,1646
20.1250,1642
20.1278,1643
20.1306,1645
20.1333,1645
20.1361,1647
20.1389,1650
20.1417,1661
20.1444,1668
20.1472,1655
20.1500,1650
20.1528,1650
20.1556,1659
20.1583,1659
20.1611,1654
20.1639,1665
20.1667,1647
20.1694,1643
20.1722,1646
20.1750,1644
20.1778,1642
20.1806,1640
20.1833,1652
20.1861,1656
20.1889,1656
20.1917,1643
20.1944,1633
20.1972,1637
20.2000,1628
20.2028,1615
20.2056,1611
20.2083,1606
20.2111,1609
20.2139,1606
20.2167,1616
20.2194,1620
20.2222,1637
20.2250,1662
20.2278,1683
20.2306,1664
20.2333,1620
20.2361,1565
20.2389,1508
20.2417,1488
20.2444,1485
20.2472,1511
20.2500,1568
20.2528,1618
20.2556,1683
20.2583,1721
20.2611,1765
20.2639,1776
20.2667,1761
20.2694,1713
20.2722,1679
20.2750,1657
20.2778,1654
20.2806,1657
20.2833,1650
20.2861,1616
20.2889,1571
20.2917,1538
20.2944,1501
20.2972,1476
20.3000,1460
20.3028,1463
20.3056,1476
20.3083,1498
20.3111,1529
20.3139,1563
20.3167,1587
20.3194,1600
20.3222,1613
20.3250,1610
20.3278,1615
20.3306,1613
20.3333,1606
20.3361,1611
20.3389,1612
20.3417,1627
20.3444,1632
20.3472,1629
20.3500,1629
20.3528,1621
20.3556,1624
20.3583,1622
20.3611,1625
20.3639,1630
20.3667,1629
20.3694,1629
20.3722,1632
20.3750,1635
20.3778,1638
20.3806,1635
20.3833,1638
20.3861,1634
20.3889,1633
20.3917,1634
20.3944,1644
20.3972,1642
20.4000,1644
20.4028,1632
20.4056,1635
20.4083,1637
20.4111,1645
20.4139,1653
20.4167,1654
20.4194,1654
20.4222,1648
20.4250,1640
20.4278,1644
20.4306,1647
20.4333,1652
20.4361,1661
20.4389,1669
20.4417,1666
20.4444,1668
20.4472,1671
20.4500,1792
20.4528,1792
20.4556,1793
20.4583,1800
20.4611,1803
20.4639,1806
20.4667,1807
20.4694,1805
20.4722,1803
20.4750,1808
20.4778,1808
20.4806,1812
20.4833,1804
20.4861,1800
20.4889,1780
20.4917,1772
20.4944,1757
20.4972,1758
20.5000,1754
20.5028,1754
20.5056,1739
20.5083,1738
20.5111,1722
20.5139,1718
20.5167,1702
20.5194,1702
20.5222,1692
20.5250,1693
20.5278,1688
20.5306,1685
20.5333,1674
20.5361,1667
20.5389,1660
20.5417,1664
20.5444,1661
20.5472,1652
20.5500,1644
20.5528,1635
20.5556,1639
20.5583,1626
20.5611,1629
20.5639,1632
20.5667,1628
20.5694,1626
20.5722,1629
20.5750,1634
20.5778,1645
20.5806,1642
20.5833,1640
20.5861,1649
20.5889,1651
20.5917,1663
20.5944,1668
20.5972,1661
20.6000,1649
20.6028,1647
20.6056,1657
20.6083,1655
20.6111,1665
20.6139,1661
20.6167,1670
20.6194,1678
20.6222,1671
20.6250,1668
20.6278,1672
20.6306,1666
20.6333,1667
20.6361,1665
20.6389,1670
20.6417,1666
20.6444,1670
20.6472,1674
20.6500,1664
20.6528,1654
20.6556,1660
20.6583,1661
20.6611,1675
20.6639,1675
20.6667,1672
20.6694,1673
20.6722,1673
20.6750,1677
20.6778,1673
20.6806,1672
20.6833,1686
20.6861,1683
20.6889,1678
20.6917,1678
20.6944,1680
20.6972,1680
20.7000,1677
20.7028,1672
20.7056,1668
20.7083,1672
20.7111,1666
20.7139,1662
20.7167,1667
20.7194,1663
20.7222,1668
20.7250,1669
20.7278,1675
20.7306,1677
20.7333,1680
20.7361,1680
20.7389,1679
20.7417,1684
20.7444,1688
20.7472,1680
20.7500,1685
20.7528,1686
20.7556,1683
20.7583,1680
20.7611,1685
20.7639,1689
20.7667,1694
20.7694,1693
20.7722,1687
20.7750,1697
20.7778,1699
20.7806,1699
20.7833,1697
20.7861,1699
20.7889,1697
20.7917,1697
20.7944,1698
20.7972,1697
20.8000,1688
20.8028,1681
20.8056,1678
20.8083,1680
20.8111,1693
20.8139,1690
20.8167,1692
20.8194,1693
20.8222,1692
20.8250,1687
20.8278,1687
20.8306,1677
20.8333,1677
20.8361,1690
20.8389,1683
20.8417,1682
20.8444,1683
20.8472,1682
20.8500,1683
20.8528,1684
20.8556,1686
20.8583,1697
20.8611,1692
20.8639,1691
20.8667,1705
20.8694,1703
20.8722,1709
20.8750,1704
20.8778,1716
20.8806,1724
20.8833,1731
20.8861,1730
20.8889,1726
20.8917,1730
20.8944,1721
20.8972,1728
20.9000,1729
20.9028,1728
20.9056,1735
20.9083,1732
20.9111,1746
20.9139,1749
20.9167,1758
20.9194,1761
20.9222,1761
20.9250,1766
20.9278,1782
20.9306,1785
20.9333,1799
20.9361,1810
20.9389,1817
20.9417,1824
20.9444,1825
20.9472,1831
20.9500,1845
20.9528,1843
20.9556,1849
20.9583,1865
20.9611,1868
20.9639,1871
20.9667,1874
20.9694,1893
20.9722,1889
20.9750,1896
20.9778,1907
20.9806,1915
20.9833,1924
20.9861,1941
20.9889,1954
20.9917,1987
20.9944,2021
20.9972,2048
21.0000,2073
21.0028,2055
21.0056,2013
21.0083,1950
21.0111,1902
21.0139,1878
21.0167,1878
21.0194,1905
21.0222,1973
21.0250,2036
21.0278,2090
21.0306,2137
21.0333,2169
21.0361,2161
21.0389,2113
21.0417,2074
21.0444,2028
21.0472,1995
21.0500,1982
21.0528,1994
21.0556,1984
21.0583,1942
21.0611,1908
21.0639,1852
21.0667,1818
21.0694,1783
21.0722,1779
21.0750,1781
21.0778,1797
21.0806,1820
21.0833,1833
21.0861,1852
21.0889,1872
21.0917,1869
21.0944,1872
21.0972,1866
21.1000,1854
21.1028,1856
21.1056,1869
21.1083,1869
21.1111,1860
21.1139,1847
21.1167,1836
21.1194,1834
21.1222,1828
21.1250,1830
21.1278,1828
21.1306,1826
21.1333,1821
21.1361,1805
21.1389,1804
21.1417,1799
21.1444,1787
21.1472,1783
21.1500,1777
21.1528,1770
21.1556,1767
21.1583,1759
21.1611,1755
21.1639,1756
21.1667,1749
21.1694,1743
21.1722,1737
21.1750,1738
21.1778,1736
21.1806,1730
21.1833,1728
21.1861,1727
21.1889,1729
21.1917,1724
21.1944,1735
21.1972,1733
21.2000,1737
21.2028,1738
21.2056,1744
21.2083,1743
21.2111,1738
21.2139,1733
21.2167,1732
21.2194,1736
21.2222,1796
21.2250,1803
21.2278,1802
21.2306,1802
21.2333,1794
21.2361,1803
21.2389,1803
21.2417,1806
21.2444,1808
21.2472,1809
21.2500,1801
21.2528,1795
21.2556,1793
21.2583,1784
21.2611,1783
21.2639,1787
21.2667,1782
21.2694,1769
21.2722,1772
21.2750,1767
21.2778,1761
21.2806,1747
21.2833,1729
21.2861,1714
21.2889,1711
21.2917,1707
21.2944,1689
21.2972,1689
21.3000,1685
21.3028,1676
21.3056,1668
21.3083,1661
21.3111,1655
21.3139,1647
21.3167,1640
21.3194,1651
21.3222,1654
21.3250,1668
21.3278,1665
21.3306,1663
21.3333,1655
21.3361,1649
21.3389,1650
21.3417,1644
21.3444,1645
21.3472,1646
21.3500,1649
21.3528,1655
21.3556,1649
21.3583,1625
21.3611,1624
21.3639,1624
21.3667,1625
21.3694,1616
21.3722,1621
21.3750,1628
21.3778,1637
21.3806,1634
21.3833,1631
21.3861,1633
21.3889,1630
21.3917,1625
21.3944,1624
21.3972,1625
21.4000,1629
21.4028,1632
21.4056,1640
21.4083,1637
21.4111,1637
21.4139,1640
21.4167,1642
21.4194,1643
21.4222,1647
21.4250,1647
21.4278,1648
21.4306,1645
21.4333,1649
21.4361,1657
21.4389,1652
21.4417,1660
21.4444,1660
21.4472,1662
21.4500,1670
21.4528,1663
21.4556,1660
21.4583,1658
21.4611,1660
21.4639,1658
21.4667,1658
21.4694,1661
21.4722,1655
21.4750,1644
21.4778,1647
21.4806,1642
21.4833,1637
21.4861,1629
21.4889,1622
21.4917,1624
21.4944,1612
21.4972,1601
21.5000,1603
21.5028,1604
21.5056,1602
21.5083,1594
21.5111,1589
21.5139,1593
21.5167,1594
21.5194,1595
21.5222,1598
21.5250,1587
21.5278,1586
21.5306,1578
21.5333,1573
21.5361,1563
21.5389,1560
21.5417,1543
21.5444,1529
21.5472,1541
21.5500,1534
21.5528,1538
21.5556,1541
21.5583,1541
21.5611,1540
21.5639,1534
21.5667,1557
21.5694,1559
21.5722,1568
21.5750,1574
21.5778,1586
21.5806,1593
21.5833,1593
21.5861,1602
21.5889,1612
21.5917,1616
21.5944,1623
21.5972,1619
21.6000,1626
21.6028,1629
21.6056,1634
21.6083,1644
21.6111,1659
21.6139,1670
21.6167,1689
21.6194,1705
21.6222,1707
21.6250,1720
21.6278,1732
21.6306,1757
21.6333,1772
21.6361,1792
21.6389,1803
21.6417,1806
21.6444,1819
21.6472,1828
21.6500,1837
21.6528,1859
21.6556,1862
21.6583,1871
21.6611,1880
21.6639,1891
21.6667,1908
21.6694,1926
21.6722,1933
21.6750,1942
21.6778,1956
21.6806,1977
21.6833,1989
21.6861,2006
21.6889,2007
21.6917,2015
21.6944,2022
21.6972,2043
21.7000,2053
21.7028,2066
21.7056,2081
21.7083,2081
21.7111,2070
21.7139,2070
21.7167,2073
21.7194,2077
21.7222,2079
21.7250,2082
21.7278,2084
21.7306,2085
21.7333,2085
21.7361,2071
21.7389,2073
21.7417,2064
21.7444,2055
21.7472,2050
21.7500,2036
21.7528,2031
21.7556,2025
21.7583,2030
21.7611,2040
21.7639,2064
21.7667,2068
21.7694,2043
21.7722,1992
21.7750,1927
21.7778,1864
21.7806,1819
21.7833,1799
21.7861,1822
21.7889,1865
21.7917,1919
21.7944,1976
21.7972,2018
21.8000,2049
21.8028,2053
21.8056,2022
21.8083,1972
21.8111,1924
21.8139,1894
21.8167,1885
21.8194,1878
21.8222,1868
21.8250,1830
21.8278,1779
21.8306,1736
21.8333,1689
21.8361,1653
21.8389,1644
21.8417,1649
21.8444,1660
21.8472,1681
21.8500,1695
21.8528,1725
21.8556,1746
21.8583,1752
21.8611,1752
21.8639,1744
21.8667,1744
21.8694,1743
21.8722,1749
21.8750,1747
21.8778,1747
21.8806,1743
21.8833,1739
21.8861,1739
21.8889,1743
21.8917,1740
21.8944,1730
21.8972,1723
21.9000,1716
21.9028,1716
21.9056,1723
21.9083,1725
21.9111,1730
21.9139,1729
21.9167,1717
21.9194,1709
21.9222,1703
21.9250,1707
21.9278,1704
21.9306,1707
21.9333,1707
21.9361,1715
21.9389,1710
21.9417,1706
21.9444,1701
21.9472,1698
21.9500,1688
21.9528,1699
21.9556,1705
21.9583,1706
21.9611,1703
21.9639,1696
21.9667,1690
21.9694,1692
21.9722,1784
21.9750,1778
21.9778,1787
21.9806,1796
21.9833,1803
21.9861,1808
21.9889,1817
21.9917,1814
21.9944,1816
21.9972,1836
22.0000,1832
22.0028,1839
22.0056,1842
22.0083,1838
22.0111,1837
22.0139,1829
22.0167,1835
22.0194,1837
22.0222,1831
22.0250,1827
22.0278,1807
22.0306,1802
22.0333,1797
22.0361,1783
22.0389,1787
22.0417,1777
22.0444,1768
22.0472,1764
22.0500,1754
22.0528,1757
22.0556,1762
22.0583,1757
22.0611,1748
22.0639,1751
22.0667,1745
22.0694,1753
22.0722,1738
22.0750,1739
22.0778,1741
22.0806,1729
22.0833,1727
22.0861,1723
22.0889,1709
22.0917,1700
22.0944,1692
22.0972,1684
22.1000,1682
22.1028,1680
22.1056,1677
22.1083,1675
22.1111,1678
22.1139,1678
22.1167,1682
22.1194,1677
22.1222,1676
22.1250,1652
22.1278,1645
22.1306,1646
22.1333,1645
22.1361,1645
22.1389,1644
22.1417,1631
22.1444,1626
22.1472,1632
22.1500,1620
22.1528,1617
22.1556,1612
22.1583,1612
22.1611,1609
22.1639,1605
22.1667,1601
22.1694,1599
22.1722,1596
22.1750,1591
22.1778,1591
22.1806,1579
22.1833,1583
22.1861,1577
22.1889,1577
22.1917,1575
22.1944,1584
22.1972,1583
22.2000,1594
22.2028,1598
22.2056,1602
22.2083,1606
22.2111,1615
22.2139,1619
22.2167,1625
22.2194,1628
22.2222,1631
22.2250,1634
22.2278,1638
22.2306,1651
22.2333,1667
22.2361,1672
22.2389,1677
22.2417,1691
22.2444,1696
22.2472,1699
22.2500,1702
22.2528,1712
22.2556,1714
22.2583,1715
22.2611,1720
22.2639,1726
22.2667,1740
22.2694,1763
22.2722,1771
22.2750,1778
22.2778,1785
22.2806,1783
22.2833,1790
22.2861,1795
22.2889,1801
22.2917,1813
22.2944,1815
22.2972,1827
22.3000,1836
22.3028,1858
22.3056,1867
22.3083,1882
22.3111,1890
22.3139,1878
22.3167,1881
22.3194,1884
22.3222,1888
22.3250,1887
22.3278,1891
22.3306,1888
22.3333,1891
22.3361,1890
22.3389,1895
22.3417,1898
22.3444,1911
22.3472,1909
22.3500,1906
22.3528,1905
22.3556,1902
22.3583,1905
22.3611,1903
22.3639,1909
22.3667,1907
22.3694,1905
22.3722,1897
22.3750,1890
22.3778,1887
22.3806,1880
22.3833,1874
22.3861,1858
22.3889,1848
22.3917,1843
22.3944,1840
22.3972,1835
22.4000,1831
22.4028,1832
22.4056,1829
22.4083,1825
22.4111,1825
22.4139,1816
22.4167,1812
22.4194,1812
22.4222,1816
22.4250,1809
22.4278,1796
22.4306,1789
22.4333,1780
22.4361,1768
22.4389,1754
22.4417,1755
22.4444,1765
22.4472,1769
22.4500,1767
22.4528,1762
22.4556,1747
22.4583,1731
22.4611,1724
22.4639,1712
22.4667,1702
22.4694,1701
22.4722,1694
22.4750,1692
22.4778,1693
22.4806,1681
22.4833,1665
22.4861,1656
22.4889,1645
22.4917,1644
22.4944,1635
22.4972,1629
22.5000,1633
22.5028,1631
22.5056,1637
22.5083,1649
22.5111,1678
22.5139,1689
22.5167,1687
22.5194,1642
22.5222,1583
22.5250,1522
22.5278,1479
22.5306,1465
22.5333,1477
22.5361,1528
22.5389,1591
22.5417,1657
22.5444,1709
22.5472,1755
22.5500,1768
22.5528,1753
22.5556,1706
22.5583,1651
22.5611,1621
22.5639,1606
22.5667,1614
22.5694,1622
22.5722,1596
22.5750,1560
22.5778,1523
22.5806,1484
22.5833,1452
22.5861,1427
22.5889,1430
22.5917,1438
22.5944,1460
22.5972,1486
22.6000,1520
22.6028,1553
22.6056,1576
22.6083,1577
22.6111,1585
22.6139,1590
22.6167,1595
22.6194,1600
22.6222,1601
22.6250,1612
22.6278,1605
22.6306,1611
22.6333,1615
22.6361,1622
22.6389,1630
22.6417,1628
22.6444,1633
22.6472,1626
22.6500,1631
22.6528,1628
22.6556,1623
22.6583,1636
22.6611,1637
22.6639,1642
22.6667,1650
22.6694,1647
22.6722,1637
22.6750,1637
22.6778,1640
22.6806,1642
22.6833,1643
22.6861,1655
22.6889,1645
22.6917,1643
22.6944,1634
22.6972,1641
22.7000,1649
22.7028,1658
22.7056,1666
22.7083,1663
22.7111,1659
22.7139,1667
22.7167,1653
22.7194,1770
22.7222,1774
22.7250,1776
22.7278,1781
22.7306,1782
22.7333,1791
22.7361,1799
22.7389,1793
22.7417,1807
22.7444,1812
22.7472,1812
22.7500,1818
22.7528,1812
22.7556,1806
22.7583,1799
22.7611,1794
22.7639,1796
22.7667,1795
22.7694,1787
22.7722,1786
22.7750,1780
22.7778,1780
22.7806,1778
22.7833,1777
22.7861,1776
22.7889,1769
22.7917,1756
22.7944,1765
22.7972,1759
22.8000,1753
22.8028,1747
22.8056,1756
22.8083,1746
22.8111,1744
22.8139,1745
22.8167,1748
22.8194,1739
22.8222,1732
22.8250,1724
22.8278,1724
22.8306,1716
22.8333,1711
22.8361,1715
22.8389,1717
22.8417,1724
22.8444,1718
22.8472,1720
22.8500,1716
22.8528,1721
22.8556,1724
22.8583,1730
22.8611,1727
22.8639,1724
22.8667,1719
22.8694,1728
22.8722,1747
22.8750,1750
22.8778,1756
22.8806,1758
22.8833,1765
22.8861,1771
22.8889,1774
22.8917,1768
22.8944,1754
22.8972,1765
22.9000,1763
22.9028,1774
22.9056,1763
22.9083,1763
22.9111,1768
22.9139,1767
22.9167,1771
22.9194,1776
22.9222,1786
22.9250,1780
22.9278,1792
22.9306,1806
22.9333,1800
22.9361,1803
22.9389,1809
22.9417,1803
22.9444,1811
22.9472,1818
22.9500,1824
22.9528,1826
22.9556,1818
22.9583,1811
22.9611,1808
22.9639,1808
22.9667,1806
22.9694,1811
22.9722,1813
22.9750,1800
22.9778,1796
22.9806,1798
22.9833,1799
22.9861,1805
22.9889,1815
22.9917,1813
22.9944,1816
22.9972,1813
23.0000,1818
23.0028,1815
23.0056,1808
23.0083,1803
23.0111,1806
23.0139,1811
23.0167,1816
23.0194,1808
23.0222,1799
23.0250,1798
23.0278,1796
23.0306,1800
23.0333,1791
23.0361,1790
23.0389,1794
23.0417,1789
23.0444,1796
23.0472,1792
23.0500,1793
23.0528,1790
23.0556,1791
23.0583,1794
23.0611,1793
23.0639,1793
23.0667,1786
23.0694,1783
23.0722,1777
23.0750,1783
23.0778,1790
23.0806,1785
23.0833,1781
23.0861,1787
23.0889,1793
23.0917,1794
23.0944,1795
23.0972,1797
23.1000,1790
23.1028,1794
23.1056,1783
23.1083,1784
23.1111,1781
23.1139,1784
23.1167,1781
23.1194,1780
23.1222,1777
23.1250,1775
23.1278,1772
23.1306,1774
23.1333,1778
23.1361,1781
23.1389,1780
23.1417,1784
23.1444,1788
23.1472,1799
23.1500,1810
23.1528,1812
23.1556,1808
23.1583,1813
23.1611,1812
23.1639,1813
23.1667,1809
23.1694,1809
23.1722,1806
23.1750,1809
23.1778,1793
23.1806,1804
23.1833,1813
23.1861,1822
23.1889,1819
23.1917,1823
23.1944,1824
23.1972,1827
23.2000,1819
23.2028,1815
23.2056,1810
23.2083,1829
23.2111,1839
23.2139,1854
23.2167,1858
23.2194,1862
23.2222,1852
23.2250,1848
23.2278,1842
23.2306,1847
23.2333,1843
23.2361,1856
23.2389,1857
23.2417,1849
23.2444,1855
23.2472,1849
23.2500,1854
23.2528,1863
23.2556,1865
23.2583,1887
23.2611,1893
23.2639,1894
23.2667,1901
23.2694,1910
23.2722,1922
23.2750,1959
23.2778,1988
23.2806,2007
23.2833,1988
23.2861,1937
23.2889,1870
23.2917,1811
23.2944,1768
23.2972,1757
23.3000,1791
23.3028,1853
23.3056,1924
23.3083,1987
23.3111,2047
23.3139,2081
23.3167,2097
23.3194,2068
23.3222,2022
23.3250,1987
23.3278,1963
23.3306,1955
23.3333,1969
23.3361,1960
23.3389,1935
23.3417,1909
23.3444,1879
23.3472,1850
23.3500,1833
23.3528,1824
23.3556,1832
23.3583,1848
23.3611,1868
23.3639,1894
23.3667,1927
23.3694,1944
23.3722,1957
23.3750,1960
23.3778,1967
23.3806,1964
23.3833,1962
23.3861,1969
23.3889,1960
23.3917,1954
23.3944,1956
23.3972,1955
23.4000,1955
23.4028,1959
23.4056,1970
23.4083,1975
23.4111,1969
23.4139,1975
23.4167,1972
23.4194,1967
23.4222,1952
23.4250,1948
23.4278,1951
23.4306,1950
23.4333,1935
23.4361,1931
23.4389,1911
23.4417,1888
23.4444,1879
23.4472,1867
23.4500,1854
23.4528,1840
23.4556,1833
23.4583,1827
23.4611,1816
23.4639,1812
23.4667,1799
23.4694,1794
23.4722,1779
23.4750,1774
23.4778,1763
23.4806,1763
23.4833,1762
23.4861,1759
23.4889,1746
23.4917,1747
23.4944,1731
23.4972,1728
23.5000,1739
23.5028,1764
23.5056,1762
23.5083,1759
23.5111,1763
23.5139,1761
23.5167,1762
23.5194,1756
23.5222,1760
23.5250,1751
23.5278,1752
23.5306,1735
23.5333,1738
23.5361,1728
23.5389,1716
23.5417,1703
23.5444,1696
23.5472,1690
23.5500,1683
23.5528,1675
23.5556,1673
23.5583,1666
23.5611,1654
23.5639,1637
23.5667,1644
23.5694,1636
23.5722,1631
23.5750,1627
23.5778,1616
23.5806,1611
23.5833,1604
23.5861,1591
23.5889,1589
23.5917,1577
23.5944,1577
23.5972,1566
23.6000,1569
23.6028,1567
23.6056,1561
23.6083,1560
23.6111,1561
23.6139,1552
23.6167,1548
23.6194,1537
23.6222,1539
23.6250,1539
23.6278,1539
23.6306,1539
23.6333,1538
23.6361,1543
23.6389,1552
23.6417,1551
23.6444,1559
23.6472,1561
23.6500,1562
23.6528,1563
23.6556,1563
23.6583,1561
23.6611,1557
23.6639,1562
23.6667,1564
23.6694,1570
23.6722,1572
23.6750,1577
23.6778,1577
23.6806,1574
23.6833,1569
23.6861,1574
23.6889,1579
23.6917,1578
23.6944,1586
23.6972,1584
23.7000,1601
23.7028,1603
23.7056,1600
23.7083,1594
23.7111,1592
23.7139,1583
23.7167,1579
23.7194,1577
23.7222,1582
23.7250,1583
23.7278,1592
23.7306,1592
23.7333,1597
23.7361,1592
23.7389,1596
23.7417,1597
23.7444,1585
23.7472,1590
23.7500,1585
23.7528,1584
23.7556,1595
23.7583,1610
23.7611,1618
23.7639,1625
23.7667,1628
23.7694,1625
23.7722,1625
23.7750,1629
23.7778,1640
23.7806,1650
23.7833,1653
23.7861,1657
23.7889,1659
23.7917,1649
23.7944,1648
23.7972,1650
23.8000,1650
23.8028,1648
23.8056,1661
23.8083,1654
23.8111,1644
23.8139,1647
23.8167,1653
23.8194,1657
23.8222,1662
23.8250,1658
23.8278,1657
23.8306,1664
23.8333,1653
23.8361,1659
23.8389,1661
23.8417,1662
23.8444,1653
23.8472,1658
23.8500,1656
23.8528,1654
23.8556,1661
23.8583,1654
23.8611,1659
23.8639,1651
23.8667,1649
23.8694,1656
23.8722,1650
23.8750,1648
23.8778,1642
23.8806,1637
23.8833,1638
23.8861,1635
23.8889,1641
23.8917,1636
23.8944,1651
23.8972,1653
23.9000,1651
23.9028,1650
23.9056,1656
23.9083,1662
23.9111,1661
23.9139,1669
23.9167,1666
23.9194,1672
23.9222,1678
23.9250,1677
23.9278,1689
23.9306,1703
23.9333,1709
23.9361,1719
23.9389,1711
23.9417,1720
23.9444,1720
23.9472,1725
23.9500,1727
23.9528,1727
23.9556,1724
23.9583,1719
23.9611,1727
23.9639,1733
23.9667,1725
23.9694,1717
23.9722,1711
23.9750,1722
23.9778,1728
23.9806,1737
23.9833,1724
23.9861,1724
23.9889,1733
23.9917,1732
23.9944,1726
23.9972,1724
24.0000,1726
24.0028,1724
24.0056,1731
24.0083,1729
24.0111,1716
24.0139,1710
24.0167,1706
24.0194,1699
24.0222,1703
24.0250,1708
24.0278,1701
24.0306,1710
24.0333,1714
24.0361,1709
24.0389,1707
24.0417,1717
24.0444,1758
24.0472,1776
24.0500,1781
24.0528,1754
24.0556,1686
24.0583,1633
24.0611,1580
24.0639,1567
24.0667,1577
24.0694,1619
24.0722,1682
24.0750,1746
24.0778,1802
24.0806,1849
24.0833,1862
24.0861,1854
24.0889,1808
24.0917,1762
24.0944,1726
24.0972,1714
24.1000,1723
24.1028,1730
24.1056,1704
24.1083,1676
24.1111,1641
24.1139,1602
24.1167,1569
24.1194,1552
24.1222,1550
24.1250,1555
24.1278,1578
24.1306,1617
24.1333,1648
24.1361,1678
24.1389,1689
24.1417,1702
24.1444,1699
24.1472,1706
24.1500,1713
24.1528,1713
24.1556,1714
24.1583,1713
24.1611,1721
24.1639,1726
24.1667,1737
24.1694,1747
24.1722,1754
24.1750,1758
24.1778,1752
24.1806,1746
24.1833,1746
24.1861,1751
24.1889,1749
24.1917,1767
24.1944,1765
24.1972,1772
24.2000,1774
24.2028,1783
24.2056,1781
24.2083,1784
24.2111,1783
24.2139,1784
24.2167,1795
24.2194,1806
24.2222,1807
24.2250,1812
24.2278,1805
24.2306,1808
24.2333,1808
24.2361,1804
24.2389,1798
24.2417,1801
24.2444,1803
24.2472,1803
24.2500,1798
24.2528,1803
24.2556,1792
24.2583,1796
24.2611,1793
24.2639,1805
24.2667,1812
24.2694,1823
24.2722,1898
24.2750,1900
24.2778,1903
24.2806,1908
24.2833,1913
24.2861,1908
24.2889,1907
24.2917,1913
24.2944,1908
24.2972,1904
24.3000,1910
24.3028,1915
24.3056,1909
24.3083,1909
24.3111,1906
24.3139,1898
24.3167,1895
24.3194,1890
24.3222,1881
24.3250,1875
24.3278,1878
24.3306,1868
24.3333,1856
24.3361,1847
24.3389,1845
24.3417,1835
24.3444,1831
24.3472,1825
24.3500,1820
24.3528,1833
24.3556,1825
24.3583,1823
24.3611,1814
24.3639,1797
24.3667,1804
24.3694,1805
24.3722,1807
24.3750,1799
24.3778,1793
24.3806,1790
24.3833,1783
24.3861,1779
24.3889,1772
24.3917,1765
24.3944,1768
24.3972,1762
24.4000,1763
24.4028,1768
24.4056,1768
24.4083,1759
24.4111,1756
24.4139,1754
24.4167,1753
24.4194,1756
24.4222,1769
24.4250,1764
24.4278,1765
24.4306,1752
24.4333,1754
24.4361,1746
24.4389,1750
24.4417,1752
24.4444,1750
24.4472,1752
24.4500,1749
24.4528,1748
24.4556,1755
24.4583,1750
24.4611,1753
24.4639,1750
24.4667,1746
24.4694,1744
24.4722,1746
24.4750,1747
24.4778,1746
24.4806,1749
24.4833,1742
24.4861,1736
24.4889,1741
24.4917,1742
24.4944,1750
24.4972,1760
24.5000,1769
24.5028,1775
24.5056,1773
24.5083,1756
24.5111,1759
24.5139,1761
24.5167,1767
24.5194,1763
24.5222,1765
24.5250,1764
24.5278,1762
24.5306,1758
24.5333,1763
24.5361,1762
24.5389,1759
24.5417,1756
24.5444,1757
24.5472,1762
24.5500,1760
24.5528,1767
24.5556,1772
24.5583,1774
24.5611,1776
24.5639,1773
24.5667,1781
24.5694,1772
24.5722,1768
24.5750,1770
24.5778,1769
24.5806,1767
24.5833,1765
24.5861,1768
24.5889,1761
24.5917,1750
24.5944,1748
24.5972,1746
24.6000,1753
24.6028,1752
24.6056,1750
24.6083,1747
24.6111,1746
24.6139,1742
24.6167,1742
24.6194,1743
24.6222,1736
24.6250,1737
24.6278,1737
24.6306,1739
24.6333,1745
24.6361,1748
24.6389,1748
24.6417,1747
24.6444,1741
24.6472,1728
24.6500,1722
24.6528,1721
24.6556,1714
24.6583,1713
24.6611,1723
24.6639,1728
24.6667,1723
24.6694,1724
24.6722,1721
24.6750,1734
24.6778,1725
24.6806,1724
24.6833,1716
24.6861,1719
24.6889,1717
24.6917,1719
24.6944,1718
24.6972,1722
24.7000,1712
24.7028,1705
24.7056,1702
24.7083,1706
24.7111,1719
24.7139,1720
24.7167,1717
24.7194,1712
24.7222,1714
24.7250,1721
24.7278,1734
24.7306,1710
24.7333,1713
24.7361,1709
24.7389,1711
24.7417,1705
24.7444,1711
24.7472,1715
24.7500,1721
24.7528,1725
24.7556,1721
24.7583,1718
24.7611,1720
24.7639,1707
24.7667,1708
24.7694,1703
24.7722,1702
24.7750,1702
24.7778,1700
24.7806,1706
24.7833,1709
24.7861,1724
24.7889,1735
24.7917,1768
24.7944,1792
24.7972,1793
24.8000,1744
24.8028,1699
24.8056,1641
24.8083,1603
24.8111,1595
24.8139,1613
24.8167,1674
24.8194,1732
24.8222,1801
24.8250,1860
24.8278,1906
24.8306,1930
24.8333,1910
24.8361,1862
24.8389,1816
24.8417,1796
24.8444,1776
24.8472,1782
24.8500,1786
24.8528,1757
24.8556,1714
24.8583,1674
24.8611,1631
24.8639,1615
24.8667,1610
24.8694,1607
24.8722,1616
24.8750,1632
24.8778,1656
24.8806,1688
24.8833,1702
24.8861,1717
24.8889,1724
24.8917,1737
24.8944,1747
24.8972,1746
24.9000,1737
24.9028,1734
24.9056,1730
24.9083,1735
24.9111,1733
24.9139,1735
24.9167,1740
24.9194,1744
24.9222,1745
24.9250,1745
24.9278,1742
24.9306,1745
24.9333,1751
24.9361,1755
24.9389,1765
24.9417,1763
24.9444,1768
24.9472,1769
24.9500,1756
24.9528,1750
24.9556,1736
24.9583,1733
24.9611,1729
24.9639,1738
24.9667,1742
24.9694,1739
24.9722,1743
24.9750,1752
24.9778,1749
24.9806,1749
24.9833,1751
24.9861,1742
24.9889,1728
24.9917,1733
24.9944,1737
24.9972,1755
25.0000,1760
25.0028,1768
25.0056,1762
25.0083,1753
25.0111,1751
25.0139,1741
25.0167,1877
25.0194,1864
25.0222,1867
25.0250,1871
25.0278,1874
25.0306,1874
25.0333,1873
25.0361,1867
25.0389,1869
25.0417,1864
25.0444,1853
25.0472,1853
25.0500,1847
25.0528,1833
25.0556,1826
25.0583,1825
25.0611,1827
25.0639,1816
25.0667,1801
25.0694,1794
25.0722,1775
25.0750,1763
25.0778,1763
25.0806,1758
25.0833,1750
25.0861,1757
25.0889,1756
25.0917,1737
25.0944,1730
25.0972,1711
25.1000,1708
25.1028,1701
25.1056,1696
25.1083,1695
25.1111,1694
25.1139,1689
25.1167,1689
25.1194,1683
25.1222,1691
25.1250,1682
25.1278,1674
25.1306,1672
25.1333,1661
25.1361,1671
25.1389,1672
25.1417,1677
25.1444,1693
25.1472,1699
25.1500,1699
25.1528,1694
25.1556,1687
25.1583,1688
25.1611,1681
25.1639,1673
25.1667,1666
25.1694,1667
25.1722,1657
25.1750,1677
25.1778,1672
25.1806,1665
25.1833,1669
25.1861,1680
25.1889,1672
25.1917,1678
25.1944,1686
25.1972,1691
25.2000,1683
25.2028,1689
25.2056,1693
25.2083,1691
25.2111,1697
25.2139,1691
25.2167,1687
25.2194,1693
25.2222,1684
25.2250,1684
25.2278,1692
25.2306,1697
25.2333,1697
25.2361,1690
25.2389,1695
25.2417,1695
25.2444,1697
25.2472,1701
25.2500,1701
25.2528,1698
25.2556,1706
25.2583,1702
25.2611,1703
25.2639,1700
25.2667,1703
25.2694,1703
25.2722,1704
25.2750,1697
25.2778,1704
25.2806,1705
25.2833,1700
25.2861,1712
25.2889,1706
25.2917,1705
25.2944,1707
25.2972,1696
25.3000,1700
25.3028,1699
25.3056,1709
25.3083,1705
25.3111,1696
25.3139,1694
25.3167,1696
25.3194,1690
25.3222,1683
25.3250,1679
25.3278,1684
25.3306,1685
25.3333,1686
25.3361,1688
25.3389,1688
25.3417,1693
25.3444,1686
25.3472,1687
25.3500,1688
25.3528,1693
25.3556,1693
25.3583,1688
25.3611,1683
25.3639,1681
25.3667,1671
25.3694,1667
25.3722,1674
25.3750,1675
25.3778,1673
25.3806,1675
25.3833,1677
25.3861,1677
25.3889,1688
25.3917,1676
25.3944,1683
25.3972,1681
25.4000,1689
25.4028,1682
25.4056,1685
25.4083,1681
25.4111,1686
25.4139,1687
25.4167,1680
25.4194,1684
25.4222,1684
25.4250,1688
25.4278,1693
25.4306,1692
25.4333,1696
25.4361,1697
25.4389,1691
25.4417,1702
25.4444,1701
25.4472,1702
25.4500,1699
25.4528,1703
25.4556,1704
25.4583,1710
25.4611,1714
25.4639,1705
25.4667,1709
25.4694,1710
25.4722,1714
25.4750,1708
25.4778,1709
25.4806,1718
25.4833,1722
25.4861,1740
25.4889,1748
25.4917,1753
25.4944,1747
25.4972,1748
25.5000,1745
25.5028,1737
25.5056,1748
25.5083,1759
25.5111,1759
25.5139,1765
25.5167,1770
25.5194,1755
25.5222,1749
25.5250,1742
25.5278,1739
25.5306,1735
25.5333,1736
25.5361,1736
25.5389,1733
25.5417,1737
25.5444,1737
25.5472,1738
25.5500,1750
25.5528,1776
25.5556,1801
25.5583,1801
25.5611,1774
25.5639,1718
25.5667,1652
25.5694,1610
25.5722,1588
25.5750,1592
25.5778,1633
25.5806,1693
25.5833,1759
25.5861,1806
25.5889,1865
25.5917,1881
25.5944,1865
25.5972,1816
25.6000,1766
25.6028,1736
25.6056,1722
25.6083,1730
25.6111,1735
25.6139,1733
25.6167,1698
25.6194,1666
25.6222,1627
25.6250,1596
25.6278,1580
25.6306,1578
25.6333,1587
25.6361,1613
25.6389,1628
25.6417,1676
25.6444,1700
25.6472,1700
25.6500,1711
25.6528,1710
25.6556,1719
25.6583,1710
25.6611,1715
25.6639,1720
25.6667,1712
25.6694,1710
25.6722,1712
25.6750,1712
25.6778,1713
25.6806,1721
25.6833,1723
25.6861,1717
25.6889,1715
25.6917,1705
25.6944,1697
25.6972,1694
25.7000,1700
25.7028,1709
25.7056,1706
25.7083,1712
25.7111,1700
25.7139,1699
25.7167,1693
25.7194,1693
25.7222,1699
25.7250,1698
25.7278,1703
25.7306,1702
25.7333,1699
25.7361,1696
25.7389,1695
25.7417,1703
25.7444,1705
25.7472,1702
25.7500,1701
25.7528,1704
25.7556,1707
25.7583,1707
25.7611,1707
25.7639,1707
25.7667,1713
25.7694,1719
25.7722,1715
25.7750,1730
25.7778,1729
25.7806,1867
25.7833,1864
25.7861,1859
25.7889,1857
25.7917,1854
25.7944,1859
25.7972,1856
25.8000,1857
25.8028,1860
25.8056,1864
25.8083,1857
25.8111,1854
25.8139,1853
25.8167,1850
25.8194,1845
25.8222,1846
25.8250,1848
25.8278,1848
25.8306,1841
25.8333,1841
25.8361,1824
25.8389,1815
25.8417,1808
25.8444,1806
25.8472,1802
25.8500,1808
25.8528,1801
25.8556,1786
25.8583,1781
25.8611,1773
25.8639,1761
25.8667,1760
25.8694,1757
25.8722,1757
25.8750,1759
25.8778,1746
25.8806,1749
25.8833,1748
25.8861,1736
25.8889,1729
25.8917,1730
25.8944,1725
25.8972,1732
25.9000,1724
25.9028,1726
25.9056,1726
25.9083,1734
25.9111,1729
25.9139,1729
25.9167,1723
25.9194,1716
25.9222,1713
25.9250,1715
25.9278,1717
25.9306,1724
25.9333,1740
25.9361,1737
25.9389,1751
25.9417,1748
25.9444,1741
25.9472,1745
25.9500,1744
25.9528,1750
25.9556,1737
25.9583,1743
25.9611,1745
25.9639,1755
25.9667,1753
25.9694,1762
25.9722,1768
25.9750,1768
25.9778,1766
25.9806,1761
25.9833,1759
25.9861,1758
25.9889,1758
25.9917,1762
25.9944,1755
25.9972,1754
26.0000,1759
26.0028,1746
26.0056,1752
26.0083,1763
26.0111,1754
26.0139,1760
26.0167,1752
26.0194,1760
26.0222,1755
26.0250,1755
26.0278,1752
26.0306,1753
26.0333,1743
26.0361,1742
26.0389,1744
26.0417,1741
26.0444,1749
26.0472,1749
26.0500,1749
26.0528,1758
26.0556,1755
26.0583,1755
26.0611,1747
26.0639,1749
26.0667,1742
26.0694,1744
26.0722,1749
26.0750,1745
26.0778,1742
26.0806,1747
26.0833,1749
26.0861,1756
26.0889,1755
26.0917,1753
26.0944,1749
26.0972,1746
26.1000,1753
26.1028,1765
26.1056,1757
26.1083,1758
26.1111,1751
26.1139,1752
26.1167,1749
26.1194,1748
26.1222,1742
26.1250,1733
26.1278,1728
26.1306,1723
26.1333,1722
26.1361,1729
26.1389,1732
26.1417,1728
26.1444,1727
26.1472,1721
26.1500,1726
26.1528,1717
26.1556,1718
26.1583,1722
26.1611,1730
26.1639,1717
26.1667,1711
26.1694,1720
26.1722,1713
26.1750,1724
26.1778,1718
26.1806,1717
26.1833,1705
26.1861,1713
26.1889,1709
26.1917,1705
26.1944,1701
26.1972,1701
26.2000,1703
26.2028,1711
26.2056,1721
26.2083,1728
26.2111,1734
26.2139,1741
26.2167,1741
26.2194,1738
26.2222,1728
26.2250,1717
26.2278,1719
26.2306,1712
26.2333,1709
26.2361,1708
26.2389,1714
26.2417,1731
26.2444,1740
26.2472,1740
26.2500,1746
26.2528,1741
26.2556,1749
26.2583,1756
26.2611,1763
26.2639,1757
26.2667,1745
26.2694,1746
26.2722,1736
26.2750,1741
26.2778,1745
26.2806,1749
26.2833,1743
26.2861,1749
26.2889,1743
26.2917,1733
26.2944,1723
26.2972,1716
26.3000,1709
26.3028,1709
26.3056,1699
26.3083,1697
26.3111,1701
26.3139,1702
26.3167,1704
26.3194,1709
26.3222,1716
26.3250,1743
26.3278,1770
26.3306,1779
26.3333,1746
26.3361,1691
26.3389,1630
26.3417,1584
26.3444,1553
26.3472,1556
26.3500,1601
26.3528,1662
26.3556,1728
26.3583,1789
26.3611,1831
26.3639,1854
26.3667,1837
26.3694,1786
26.3722,1739
26.3750,1702
26.3778,1690
26.3806,1693
26.3833,1693
26.3861,1681
26.3889,1665
26.3917,1618
26.3944,1590
26.3972,1551
26.4000,1524
26.4028,1530
26.4056,1537
