Tiempo(s),Valor_ADC
0.0028,1551
0.0056,1540
0.0083,1545
0.0111,1531
0.0139,1523
0.0167,1515
0.0194,1519
0.0222,1527
0.0250,1536
0.0278,1546
0.0306,1551
0.0333,1547
0.0361,1552
0.0389,1556
0.0417,1555
0.0444,1558
0.0472,1561
0.0500,1562
0.0528,1550
0.0556,1552
0.0583,1549
0.0611,1545
0.0639,1552
0.0667,1559
0.0694,1576
0.0722,1592
0.0750,1607
0.0778,1617
0.0806,1633
0.0833,1656
0.0861,1667
0.0889,1696
0.0917,1713
0.0944,1720
0.0972,1723
0.1000,1727
0.1028,1747
0.1056,1781
0.1083,1815
0.1111,1839
0.1139,1854
0.1167,1888
0.1194,1902
0.1222,1925
0.1250,1952
0.1278,1964
0.1306,1961
0.1333,1939
0.1361,1906
0.1389,1859
0.1417,1800
0.1444,1714
0.1472,1628
0.1500,1575
0.1528,1543
0.1556,1522
0.1583,1520
0.1611,1530
0.1639,1518
0.1667,1507
0.1694,1504
0.1722,1500
0.1750,1493
0.1778,1491
0.1806,1476
0.1833,1465
0.1861,1469
0.1889,1474
0.1917,1475
0.1944,1478
0.1972,1473
0.2000,1455
0.2028,1454
0.2056,1461
0.2083,1470
0.2111,1492
0.2139,1508
0.2167,1530
0.2194,1532
0.2222,1528
0.2250,1514
0.2278,1494
0.2306,1486
0.2333,1517
0.2361,1645
0.2389,1857
0.2417,2173
0.2444,2391
0.2472,2427
0.2500,2386
0.2528,2335
0.2556,2277
0.2583,2212
0.2611,2015
0.2639,1723
0.2667,1466
0.2694,1275
0.2722,1142
0.2750,1059
0.2778,978
0.2806,926
0.2833,909
0.2861,924
0.2889,971
0.2917,1026
0.2944,1090
0.2972,1136
0.3000,1180
0.3028,1250
0.3056,1349
0.3083,1427
0.3111,1496
0.3139,1559
0.3167,1598
0.3194,1620
0.3222,1644
0.3250,1661
0.3278,1677
0.3306,1680
0.3333,1697
0.3361,1692
0.3389,1700
0.3417,1713
0.3444,1729
0.3472,1751
0.3500,1758
0.3528,1771
0.3556,1767
0.3583,1759
0.3611,1754
0.3639,1766
0.3667,1789
0.3694,1813
0.3722,1823
0.3750,1832
0.3778,1834
0.3806,1840
0.3833,1843
0.3861,1841
0.3889,1841
0.3917,1848
0.3944,1852
0.3972,1860
0.4000,1872
0.4028,1880
0.4056,1895
0.4083,1914
0.4111,1930
0.4139,1933
0.4167,1920
0.4194,1927
0.4222,1936
0.4250,1951
0.4278,1973
0.4306,1988
0.4333,2001
0.4361,2020
0.4389,2024
0.4417,1986
0.4444,1967
0.4472,1947
0.4500,1931
0.4528,1896
0.4556,1861
0.4583,1826
0.4611,1795
0.4639,1777
0.4667,1753
0.4694,1735
0.4722,1713
0.4750,1680
0.4778,1668
0.4806,1654
0.4833,1654
0.4861,1652
0.4889,1640
0.4917,1630
0.4944,1614
0.4972,1603
0.5000,1593
0.5028,1600
0.5056,1602
0.5083,1606
0.5111,1617
0.5139,1618
0.5167,1611
0.5194,1603
0.5222,1591
0.5250,1584
0.5278,1604
0.5306,1613
0.5333,1620
0.5361,1632
0.5389,1632
0.5417,1637
0.5444,1636
0.5472,1639
0.5500,1643
0.5528,1636
0.5556,1642
0.5583,1649
0.5611,1647
0.5639,1670
0.5667,1681
0.5694,1675
0.5722,1664
0.5750,1660
0.5778,1647
0.5806,1647
0.5833,1653
0.5861,1661
0.5889,1673
0.5917,1666
0.5944,1673
0.5972,1681
0.6000,1664
0.6028,1660
0.6056,1657
0.6083,1646
0.6111,1612
0.6139,1579
0.6167,1535
0.6194,1513
0.6222,1517
0.6250,1539
0.6278,1562
0.6306,1580
0.6333,1597
0.6361,1604
0.6389,1600
0.6417,1587
0.6444,1585
0.6472,1584
0.6500,1600
0.6528,1614
0.6556,1627
0.6583,1643
0.6611,1672
0.6639,1733
0.6667,1822
0.6694,1918
0.6722,1945
0.6750,1947
0.6778,1912
0.6806,1862
0.6833,1833
0.6861,1806
0.6889,1795
0.6917,1786
0.6944,1768
0.6972,1749
0.7000,1735
0.7028,1729
0.7056,1723
0.7083,1747
0.7111,1767
0.7139,1783
0.7167,1784
0.7194,1795
0.7222,1791
0.7250,1794
0.7278,1784
0.7306,1808
0.7333,1844
0.7361,1885
0.7389,1925
0.7417,1943
0.7444,1965
0.7472,1966
0.7500,1965
0.7528,1968
0.7556,1978
0.7583,1965
0.7611,1947
0.7639,1909
0.7667,1854
0.7694,1756
0.7722,1685
0.7750,1618
0.7778,1585
0.7806,1572
0.7833,1538
0.7861,1521
0.7889,1508
0.7917,1497
0.7944,1492
0.7972,1490
0.8000,1485
0.8028,1484
0.8056,1476
0.8083,1463
0.8111,1462
0.8139,1474
0.8167,1473
0.8194,1483
0.8222,1491
0.8250,1500
0.8278,1490
0.8306,1469
0.8333,1466
0.8361,1471
0.8389,1489
0.8417,1519
0.8444,1549
0.8472,1561
0.8500,1542
0.8528,1513
0.8556,1482
0.8583,1478
0.8611,1537
0.8639,1683
0.8667,1925
0.8694,2241
0.8722,2412
0.8750,2432
0.8778,2388
0.8806,2358
0.8833,2344
0.8861,2281
0.8889,2052
0.8917,1754
0.8944,1495
0.8972,1330
0.9000,1223
0.9028,1134
0.9056,1038
0.9083,984
0.9111,957
0.9139,971
0.9167,1011
0.9194,1065
0.9222,1128
0.9250,1197
0.9278,1266
0.9306,1350
0.9333,1448
0.9361,1517
0.9389,1585
0.9417,1626
0.9444,1636
0.9472,1652
0.9500,1680
0.9528,1702
0.9556,1727
0.9583,1755
0.9611,1765
0.9639,1772
0.9667,1762
0.9694,1768
0.9722,1782
0.9750,1799
0.9778,1807
0.9806,1817
0.9833,1821
0.9861,1827
0.9889,1830
0.9917,1842
0.9944,1857
0.9972,1876
1.0000,1888
1.0028,1887
1.0056,1894
1.0083,1881
1.0111,1884
1.0139,1884
1.0167,1900
1.0194,1913
1.0222,1916
1.0250,1923
1.0278,1934
1.0306,1941
1.0333,1953
1.0361,1964
1.0389,1974
1.0417,1982
1.0444,1979
1.0472,1983
1.0500,1981
1.0528,2012
1.0556,2030
1.0583,2049
1.0611,2065
1.0639,2018
1.0667,2012
1.0694,1992
1.0722,1973
1.0750,1947
1.0778,1930
1.0806,1894
1.0833,1856
1.0861,1805
1.0889,1775
1.0917,1757
1.0944,1745
1.0972,1719
1.1000,1703
1.1028,1689
1.1056,1661
1.1083,1644
1.1111,1627
1.1139,1627
1.1167,1635
1.1194,1630
1.1222,1625
1.1250,1628
1.1278,1611
1.1306,1599
1.1333,1597
1.1361,1602
1.1389,1608
1.1417,1609
1.1444,1601
1.1472,1608
1.1500,1606
1.1528,1619
1.1556,1625
1.1583,1626
1.1611,1639
1.1639,1632
1.1667,1633
1.1694,1625
1.1722,1627
1.1750,1628
1.1778,1639
1.1806,1645
1.1833,1644
1.1861,1644
1.1889,1647
1.1917,1660
1.1944,1654
1.1972,1662
1.2000,1655
1.2028,1651
1.2056,1645
1.2083,1650
1.2111,1658
1.2139,1661
1.2167,1664
1.2194,1665
1.2222,1654
1.2250,1653
1.2278,1646
1.2306,1657
1.2333,1657
1.2361,1664
1.2389,1669
1.2417,1665
1.2444,1652
1.2472,1652
1.2500,1648
1.2528,1642
1.2556,1641
1.2583,1647
1.2611,1637
1.2639,1625
1.2667,1634
1.2694,1629
1.2722,1637
1.2750,1638
1.2778,1635
1.2806,1634
1.2833,1642
1.2861,1642
1.2889,1635
1.2917,1642
1.2944,1636
1.2972,1640
1.3000,1633
1.3028,1630
1.3056,1624
1.3083,1624
1.3111,1628
1.3139,1627
1.3167,1629
1.3194,1642
1.3222,1663
1.3250,1701
1.3278,1724
1.3306,1745
1.3333,1765
1.3361,1773
1.3389,1771
1.3417,1769
1.3444,1772
1.3472,1779
1.3500,1822
1.3528,1870
1.3556,1902
1.3583,1922
1.3611,1950
1.3639,1968
1.3667,1980
1.3694,1996
1.3722,1991
1.3750,1991
1.3778,1960
1.3806,1928
1.3833,1881
1.3861,1814
1.3889,1738
1.3917,1662
1.3944,1612
1.3972,1582
1.4000,1558
1.4028,1539
1.4056,1528
1.4083,1517
1.4111,1504
1.4139,1505
1.4167,1498
1.4194,1494
1.4222,1488
1.4250,1478
1.4278,1475
1.4306,1474
1.4333,1476
1.4361,1484
1.4389,1495
1.4417,1485
1.4444,1480
1.4472,1479
1.4500,1474
1.4528,1488
1.4556,1504
1.4583,1527
1.4611,1557
1.4639,1580
1.4667,1555
1.4694,1529
1.4722,1517
1.4750,1516
1.4778,1549
1.4806,1679
1.4833,1891
1.4861,2216
1.4889,2477
1.4917,2558
1.4944,2508
1.4972,2446
1.5000,2393
1.5028,2338
1.5056,2133
1.5083,1784
1.5111,1450
1.5139,1236
1.5167,1121
1.5194,1057
1.5222,1011
1.5250,970
1.5278,954
1.5306,963
1.5333,994
1.5361,1052
1.5389,1115
1.5417,1184
1.5444,1251
1.5472,1337
1.5500,1428
1.5528,1516
1.5556,1598
1.5583,1645
1.5611,1675
1.5639,1690
1.5667,1693
1.5694,1706
1.5722,1728
1.5750,1739
1.5778,1760
1.5806,1765
1.5833,1769
1.5861,1773
1.5889,1782
1.5917,1796
1.5944,1813
1.5972,1815
1.6000,1820
1.6028,1811
1.6056,1809
1.6083,1821
1.6111,1835
1.6139,1845
1.6167,1860
1.6194,1862
1.6222,1855
1.6250,1855
1.6278,1867
1.6306,1876
1.6333,1902
1.6361,1918
1.6389,1921
1.6417,1922
1.6444,1928
1.6472,1931
1.6500,1940
1.6528,1967
1.6556,1987
1.6583,1994
1.6611,1993
1.6639,2001
1.6667,1995
1.6694,2027
1.6722,2048
1.6750,2061
1.6778,2078
1.6806,2082
1.6833,2087
1.6861,2095
1.6889,2092
1.6917,2102
1.6944,2125
1.6972,2130
1.7000,2138
1.7028,2142
1.7056,1783
1.7083,1783
1.7111,1762
1.7139,1735
1.7167,1718
1.7194,1697
1.7222,1682
1.7250,1671
1.7278,1658
1.7306,1650
1.7333,1640
1.7361,1632
1.7389,1616
1.7417,1602
1.7444,1592
1.7472,1588
1.7500,1589
1.7528,1599
1.7556,1600
1.7583,1613
1.7611,1611
1.7639,1601
1.7667,1605
1.7694,1598
1.7722,1613
1.7750,1617
1.7778,1614
1.7806,1618
1.7833,1618
1.7861,1614
1.7889,1627
1.7917,1637
1.7944,1643
1.7972,1640
1.8000,1645
1.8028,1648
1.8056,1645
1.8083,1645
1.8111,1668
1.8139,1670
1.8167,1674
1.8194,1677
1.8222,1675
1.8250,1671
1.8278,1669
1.8306,1680
1.8333,1704
1.8361,1707
1.8389,1693
1.8417,1693
1.8444,1685
1.8472,1679
1.8500,1671
1.8528,1667
1.8556,1673
1.8583,1672
1.8611,1673
1.8639,1681
1.8667,1682
1.8694,1690
1.8722,1689
1.8750,1697
1.8778,1690
1.8806,1687
1.8833,1672
1.8861,1670
1.8889,1671
1.8917,1673
1.8944,1665
1.8972,1663
1.9000,1652
1.9028,1640
1.9056,1643
1.9083,1634
1.9111,1641
1.9139,1641
1.9167,1627
1.9194,1624
1.9222,1617
1.9250,1627
1.9278,1618
1.9306,1617
1.9333,1622
1.9361,1632
1.9389,1625
1.9417,1623
1.9444,1624
1.9472,1616
1.9500,1622
1.9528,1632
1.9556,1632
1.9583,1628
1.9611,1632
1.9639,1624
1.9667,1625
1.9694,1632
1.9722,1624
1.9750,1618
1.9778,1621
1.9806,1630
1.9833,1631
1.9861,1636
1.9889,1654
1.9917,1694
1.9944,1735
1.9972,1763
2.0000,1773
2.0028,1787
2.0056,1772
2.0083,1776
2.0111,1773
2.0139,1804
2.0167,1828
2.0194,1863
2.0222,1902
2.0250,1942
2.0278,1968
2.0306,1989
2.0333,2003
2.0361,2011
2.0389,2015
2.0417,2001
2.0444,1975
2.0472,1931
2.0500,1893
2.0528,1825
2.0556,1751
2.0583,1684
2.0611,1626
2.0639,1590
2.0667,1560
2.0694,1554
2.0722,1550
2.0750,1543
2.0778,1536
2.0806,1520
2.0833,1508
2.0861,1498
2.0889,1487
2.0917,1492
2.0944,1493
2.0972,1495
2.1000,1494
2.1028,1487
2.1056,1497
2.1083,1494
2.1111,1498
2.1139,1503
2.1167,1507
2.1194,1510
2.1222,1532
2.1250,1559
2.1278,1596
2.1306,1607
2.1333,1591
2.1361,1551
2.1389,1524
2.1417,1518
2.1444,1606
2.1472,1772
2.1500,2039
2.1528,2400
2.1556,2651
2.1583,2712
2.1611,2655
2.1639,2563
2.1667,2466
2.1694,2329
2.1722,1985
2.1750,1516
2.1778,1141
2.1806,938
2.1833,865
2.1861,842
2.1889,828
2.1917,831
2.1944,853
2.1972,886
2.2000,943
2.2028,1015
2.2056,1088
2.2083,1171
2.2111,1269
2.2139,1369
2.2167,1468
2.2194,1553
2.2222,1612
2.2250,1653
2.2278,1668
2.2306,1678
2.2333,1687
2.2361,1699
2.2389,1720
2.2417,1742
2.2444,1753
2.2472,1749
2.2500,1736
2.2528,1743
2.2556,1742
2.2583,1761
2.2611,1778
2.2639,1784
2.2667,1790
2.2694,1789
2.2722,1784
2.2750,1791
2.2778,1806
2.2806,1809
2.2833,1821
2.2861,1821
2.2889,1825
2.2917,1828
2.2944,1840
2.2972,1861
2.3000,1877
2.3028,1898
2.3056,1901
2.3083,1897
2.3111,1905
2.3139,1911
2.3167,1933
2.3194,1961
2.3222,1974
2.3250,1989
2.3278,1999
2.3306,2013
2.3333,2034
2.3361,2058
2.3389,2080
2.3417,2091
2.3444,2080
2.3472,2085
2.3500,2091
2.3528,2099
2.3556,2131
2.3583,2147
2.3611,2162
2.3639,2180
2.3667,2174
2.3694,2165
2.3722,1768
2.3750,1769
2.3778,1764
2.3806,1739
2.3833,1707
2.3861,1681
2.3889,1674
2.3917,1668
2.3944,1666
2.3972,1659
2.4000,1651
2.4028,1638
2.4056,1613
2.4083,1602
2.4111,1596
2.4139,1598
2.4167,1596
2.4194,1596
2.4222,1600
2.4250,1595
2.4278,1593
2.4306,1604
2.4333,1620
2.4361,1636
2.4389,1646
2.4417,1638
2.4444,1630
2.4472,1623
2.4500,1627
2.4528,1640
2.4556,1651
2.4583,1668
2.4611,1675
2.4639,1668
2.4667,1667
2.4694,1671
2.4722,1672
2.4750,1685
2.4778,1681
2.4806,1681
2.4833,1669
2.4861,1653
2.4889,1647
2.4917,1647
2.4944,1662
2.4972,1683
2.5000,1690
2.5028,1685
2.5056,1678
2.5083,1667
2.5111,1670
2.5139,1669
2.5167,1662
2.5194,1667
2.5222,1654
2.5250,1654
2.5278,1657
2.5306,1662
2.5333,1676
2.5361,1677
2.5389,1666
2.5417,1656
2.5444,1645
2.5472,1639
2.5500,1645
2.5528,1640
2.5556,1656
2.5583,1663
2.5611,1667
2.5639,1664
2.5667,1654
2.5694,1642
2.5722,1643
2.5750,1637
2.5778,1634
2.5806,1629
2.5833,1636
2.5861,1626
2.5889,1620
2.5917,1624
2.5944,1620
2.5972,1630
2.6000,1630
2.6028,1638
2.6056,1641
2.6083,1638
2.6111,1646
2.6139,1649
2.6167,1649
2.6194,1642
2.6222,1642
2.6250,1628
2.6278,1624
2.6306,1630
2.6333,1620
2.6361,1609
2.6389,1614
2.6417,1610
2.6444,1609
2.6472,1608
2.6500,1620
2.6528,1626
2.6556,1617
2.6583,1619
2.6611,1621
2.6639,1621
2.6667,1622
2.6694,1616
2.6722,1619
2.6750,1630
2.6778,1627
2.6806,1629
2.6833,1624
2.6861,1618
2.6889,1611
2.6917,1614
2.6944,1618
2.6972,1621
2.7000,1619
2.7028,1626
2.7056,1629
2.7083,1630
2.7111,1631
2.7139,1636
2.7167,1637
2.7194,1628
2.7222,1636
2.7250,1632
2.7278,1632
2.7306,1625
2.7333,1628
2.7361,1630
2.7389,1633
2.7417,1634
2.7444,1638
2.7472,1637
2.7500,1638
2.7528,1633
2.7556,1633
2.7583,1638
2.7611,1639
2.7639,1650
2.7667,1664
2.7694,1701
2.7722,1736
2.7750,1769
2.7778,1790
2.7806,1794
2.7833,1788
2.7861,1775
2.7889,1789
2.7917,1818
2.7944,1848
2.7972,1886
2.8000,1906
2.8028,1924
2.8056,1956
2.8083,1976
2.8111,1999
2.8139,2008
2.8167,2015
2.8194,1999
2.8222,1973
2.8250,1942
2.8278,1896
2.8306,1832
2.8333,1759
2.8361,1695
2.8389,1636
2.8417,1604
2.8444,1580
2.8472,1571
2.8500,1569
2.8528,1556
2.8556,1559
2.8583,1564
2.8611,1559
2.8639,1554
2.8667,1546
2.8694,1525
2.8722,1525
2.8750,1527
2.8778,1523
2.8806,1518
2.8833,1522
2.8861,1518
2.8889,1515
2.8917,1521
2.8944,1539
2.8972,1547
2.9000,1579
2.9028,1613
2.9056,1632
2.9083,1615
2.9111,1583
2.9139,1546
2.9167,1524
2.9194,1554
2.9222,1662
2.9250,1874
2.9278,2168
2.9306,2514
2.9333,2706
2.9361,2705
2.9389,2630
2.9417,2517
2.9444,2405
2.9472,2221
2.9500,1841
2.9528,1419
2.9556,1112
2.9583,972
2.9611,931
2.9639,917
2.9667,904
2.9694,911
2.9722,921
2.9750,946
2.9778,1001
2.9806,1067
2.9833,1131
2.9861,1222
2.9889,1305
2.9917,1405
2.9944,1512
2.9972,1602
3.0000,1653
3.0028,1684
3.0056,1694
3.0083,1693
3.0111,1707
3.0139,1737
3.0167,1765
3.0194,1785
3.0222,1789
3.0250,1773
3.0278,1781
3.0306,1791
3.0333,1800
3.0361,1829
3.0389,1836
3.0417,1834
3.0444,1824
3.0472,1820
3.0500,1831
3.0528,1846
3.0556,1868
3.0583,1872
3.0611,1885
3.0639,1883
3.0667,1878
3.0694,1883
3.0722,1895
3.0750,1915
3.0778,1933
3.0806,1939
3.0833,1950
3.0861,1945
3.0889,1959
3.0917,1961
3.0944,1988
3.0972,2003
3.1000,2015
3.1028,2022
3.1056,2012
3.1083,2019
3.1111,2034
3.1139,2063
3.1167,2082
3.1194,2088
3.1222,2097
3.1250,2096
3.1278,2109
3.1306,2122
3.1333,2134
3.1361,2165
3.1389,2177
3.1417,2179
3.1444,2172
3.1472,1831
3.1500,1836
3.1528,1812
3.1556,1797
3.1583,1773
3.1611,1756
3.1639,1723
3.1667,1694
3.1694,1677
3.1722,1668
3.1750,1659
3.1778,1652
3.1806,1633
3.1833,1626
3.1861,1621
3.1889,1607
3.1917,1608
3.1944,1610
3.1972,1611
3.2000,1615
3.2028,1617
3.2056,1615
3.2083,1620
3.2111,1617
3.2139,1631
3.2167,1624
3.2194,1633
3.2222,1613
3.2250,1611
3.2278,1617
3.2306,1621
3.2333,1632
3.2361,1649
3.2389,1649
3.2417,1655
3.2444,1639
3.2472,1642
3.2500,1641
3.2528,1647
3.2556,1651
3.2583,1660
3.2611,1661
3.2639,1664
3.2667,1659
3.2694,1654
3.2722,1655
3.2750,1668
3.2778,1671
3.2806,1668
3.2833,1666
3.2861,1653
3.2889,1663
3.2917,1664
3.2944,1668
3.2972,1668
3.3000,1662
3.3028,1665
3.3056,1644
3.3083,1650
3.3111,1647
3.3139,1645
3.3167,1647
3.3194,1644
3.3222,1630
3.3250,1629
3.3278,1627
3.3306,1644
3.3333,1643
3.3361,1650
3.3389,1647
3.3417,1646
3.3444,1637
3.3472,1622
3.3500,1617
3.3528,1605
3.3556,1613
3.3583,1607
3.3611,1615
3.3639,1609
3.3667,1609
3.3694,1616
3.3722,1628
3.3750,1621
3.3778,1612
3.3806,1602
3.3833,1595
3.3861,1600
3.3889,1598
3.3917,1596
3.3944,1603
3.3972,1605
3.4000,1608
3.4028,1606
3.4056,1603
3.4083,1596
3.4111,1605
3.4139,1605
3.4167,1603
3.4194,1599
3.4222,1594
3.4250,1593
3.4278,1601
3.4306,1594
3.4333,1594
3.4361,1597
3.4389,1609
3.4417,1618
3.4444,1609
3.4472,1612
3.4500,1615
3.4528,1616
3.4556,1625
3.4583,1622
3.4611,1625
3.4639,1612
3.4667,1614
3.4694,1620
3.4722,1614
3.4750,1621
3.4778,1614
3.4806,1616
3.4833,1617
3.4861,1617
3.4889,1618
3.4917,1618
3.4944,1619
3.4972,1624
3.5000,1636
3.5028,1641
3.5056,1635
3.5083,1627
3.5111,1628
3.5139,1622
3.5167,1626
3.5194,1622
3.5222,1620
3.5250,1627
3.5278,1626
3.5306,1634
3.5333,1625
3.5361,1646
3.5389,1650
3.5417,1640
3.5444,1632
3.5472,1634
3.5500,1641
3.5528,1634
3.5556,1635
3.5583,1644
3.5611,1652
3.5639,1647
3.5667,1651
3.5694,1652
3.5722,1657
3.5750,1663
3.5778,1657
3.5806,1657
3.5833,1667
3.5861,1668
3.5889,1666
3.5917,1662
3.5944,1662
3.5972,1655
3.6000,1664
3.6028,1676
3.6056,1706
3.6083,1739
3.6111,1779
3.6139,1803
3.6167,1812
3.6194,1821
3.6222,1815
3.6250,1824
3.6278,1846
3.6306,1874
3.6333,1899
3.6361,1926
3.6389,1953
3.6417,1978
3.6444,2005
3.6472,2030
3.6500,2037
3.6528,2035
3.6556,2020
3.6583,1992
3.6611,1959
3.6639,1903
3.6667,1835
3.6694,1763
3.6722,1710
3.6750,1668
3.6778,1640
3.6806,1620
3.6833,1605
3.6861,1602
3.6889,1591
3.6917,1576
3.6944,1572
3.6972,1565
3.7000,1560
3.7028,1553
3.7056,1560
3.7083,1557
3.7111,1545
3.7139,1545
3.7167,1544
3.7194,1541
3.7222,1537
3.7250,1545
3.7278,1551
3.7306,1543
3.7333,1561
3.7361,1579
3.7389,1601
3.7417,1620
3.7444,1612
3.7472,1579
3.7500,1537
3.7528,1511
3.7556,1547
3.7583,1652
3.7611,1863
3.7639,2172
3.7667,2525
3.7694,2702
3.7722,2696
3.7750,2606
3.7778,2494
3.7806,2390
3.7833,2188
3.7861,1810
3.7889,1416
3.7917,1147
3.7944,1031
3.7972,969
3.8000,949
3.8028,933
3.8056,939
3.8083,954
3.8111,992
3.8139,1037
3.8167,1097
3.8194,1173
3.8222,1244
3.8250,1332
3.8278,1429
3.8306,1524
3.8333,1609
3.8361,1667
3.8389,1699
3.8417,1715
3.8444,1721
3.8472,1733
3.8500,1761
3.8528,1789
3.8556,1800
3.8583,1809
3.8611,1804
3.8639,1807
3.8667,1819
3.8694,1832
3.8722,1846
3.8750,1857
3.8778,1864
3.8806,1870
3.8833,1862
3.8861,1873
3.8889,1874
3.8917,1893
3.8944,1908
3.8972,1912
3.9000,1908
3.9028,1907
3.9056,1907
3.9083,1933
3.9111,1955
3.9139,1973
3.9167,1979
3.9194,1984
3.9222,1973
3.9250,1977
3.9278,1991
3.9306,2003
3.9333,2023
3.9361,2036
3.9389,2037
3.9417,2033
3.9444,2037
3.9472,2044
3.9500,2074
3.9528,2081
3.9556,2100
3.9583,2111
3.9611,2124
3.9639,2129
3.9667,2145
3.9694,2156
3.9722,2177
3.9750,2182
3.9778,2190
3.9806,2179
3.9833,1864
3.9861,1871
3.9889,1854
3.9917,1829
3.9944,1801
3.9972,1774
4.0000,1747
4.0028,1714
4.0056,1701
4.0083,1692
4.0111,1685
4.0139,1666
4.0167,1669
4.0194,1641
4.0222,1634
4.0250,1627
4.0278,1630
4.0306,1623
4.0333,1630
4.0361,1633
4.0389,1636
4.0417,1633
4.0444,1627
4.0472,1632
4.0500,1638
4.0528,1636
4.0556,1632
4.0583,1642
4.0611,1642
4.0639,1642
4.0667,1648
4.0694,1655
4.0722,1655
4.0750,1662
4.0778,1667
4.0806,1664
4.0833,1671
4.0861,1675
4.0889,1677
4.0917,1671
4.0944,1662
4.0972,1671
4.1000,1672
4.1028,1670
4.1056,1673
4.1083,1676
4.1111,1677
4.1139,1674
4.1167,1678
4.1194,1673
4.1222,1670
4.1250,1674
4.1278,1674
4.1306,1671
4.1333,1663
4.1361,1676
4.1389,1666
4.1417,1674
4.1444,1667
4.1472,1674
4.1500,1681
4.1528,1676
4.1556,1674
4.1583,1661
4.1611,1664
4.1639,1661
4.1667,1655
4.1694,1647
4.1722,1651
4.1750,1653
4.1778,1653
4.1806,1645
4.1833,1632
4.1861,1629
4.1889,1626
4.1917,1631
4.1944,1628
4.1972,1622
4.2000,1607
4.2028,1613
4.2056,1604
4.2083,1609
4.2111,1616
4.2139,1609
4.2167,1606
4.2194,1599
4.2222,1583
4.2250,1575
4.2278,1584
4.2306,1582
4.2333,1585
4.2361,1597
4.2389,1598
4.2417,1606
4.2444,1601
4.2472,1597
4.2500,1600
4.2528,1600
4.2556,1615
4.2583,1604
4.2611,1600
4.2639,1591
4.2667,1589
4.2694,1602
4.2722,1609
4.2750,1614
4.2778,1617
4.2806,1608
4.2833,1596
4.2861,1602
4.2889,1587
4.2917,1594
4.2944,1596
4.2972,1601
4.3000,1607
4.3028,1609
4.3056,1609
4.3083,1609
4.3111,1610
4.3139,1604
4.3167,1608
4.3194,1600
4.3222,1591
4.3250,1588
4.3278,1592
4.3306,1598
4.3333,1605
4.3361,1608
4.3389,1616
4.3417,1611
4.3444,1611
4.3472,1612
4.3500,1614
4.3528,1618
4.3556,1599
4.3583,1607
4.3611,1597
4.3639,1607
4.3667,1616
4.3694,1621
4.3722,1634
4.3750,1622
4.3778,1617
4.3806,1610
4.3833,1616
4.3861,1614
4.3889,1619
4.3917,1630
4.3944,1623
4.3972,1634
4.4000,1649
4.4028,1686
4.4056,1723
4.4083,1748
4.4111,1754
4.4139,1768
4.4167,1766
4.4194,1783
4.4222,1806
4.4250,1822
4.4278,1851
4.4306,1871
4.4333,1897
4.4361,1924
4.4389,1957
4.4417,1974
4.4444,1988
4.4472,1991
4.4500,1977
4.4528,1951
4.4556,1924
4.4583,1869
4.4611,1811
4.4639,1732
4.4667,1675
4.4694,1644
4.4722,1610
4.4750,1601
4.4778,1581
4.4806,1578
4.4833,1563
4.4861,1561
4.4889,1551
4.4917,1541
4.4944,1537
4.4972,1529
4.5000,1520
4.5028,1524
4.5056,1522
4.5083,1522
4.5111,1512
4.5139,1519
4.5167,1519
4.5194,1516
4.5222,1520
4.5250,1517
4.5278,1528
4.5306,1553
4.5333,1579
4.5361,1607
4.5389,1611
4.5417,1584
4.5444,1548
4.5472,1507
4.5500,1527
4.5528,1616
4.5556,1804
4.5583,2096
4.5611,2457
4.5639,2668
4.5667,2685
4.5694,2611
4.5722,2499
4.5750,2389
4.5778,2219
4.5806,1865
4.5833,1459
4.5861,1177
4.5889,1046
4.5917,983
4.5944,952
4.5972,918
4.6000,907
4.6028,919
4.6056,951
4.6083,1003
4.6111,1079
4.6139,1146
4.6167,1215
4.6194,1311
4.6222,1404
4.6250,1485
4.6278,1578
4.6306,1632
4.6333,1676
4.6361,1699
4.6389,1718
4.6417,1725
4.6444,1748
4.6472,1767
4.6500,1786
4.6528,1788
4.6556,1790
4.6583,1794
4.6611,1803
4.6639,1820
4.6667,1830
4.6694,1849
4.6722,1854
4.6750,1849
4.6778,1848
4.6806,1858
4.6833,1871
4.6861,1887
4.6889,1889
4.6917,1893
4.6944,1894
4.6972,1890
4.7000,1888
4.7028,1908
4.7056,1929
4.7083,1946
4.7111,1962
4.7139,1955
4.7167,1957
4.7194,1962
4.7222,1973
4.7250,1986
4.7278,2004
4.7306,2009
4.7333,2026
4.7361,2030
4.7389,2045
4.7417,2050
4.7444,2064
4.7472,2079
4.7500,2094
4.7528,2105
4.7556,2096
4.7583,2078
4.7611,2047
4.7639,2022
4.7667,1994
4.7694,1972
4.7722,1939
4.7750,1896
4.7778,1854
4.7806,1825
4.7833,1792
4.7861,1766
4.7889,1735
4.7917,1712
4.7944,1695
4.7972,1667
4.8000,1645
4.8028,1631
4.8056,1616
4.8083,1612
4.8111,1610
4.8139,1604
4.8167,1594
4.8194,1590
4.8222,1594
4.8250,1594
4.8278,1605
4.8306,1600
4.8333,1597
4.8361,1597
4.8389,1590
4.8417,1582
4.8444,1600
4.8472,1601
4.8500,1613
4.8528,1618
4.8556,1612
4.8583,1615
4.8611,1613
4.8639,1620
4.8667,1629
4.8694,1639
4.8722,1633
4.8750,1635
4.8778,1635
4.8806,1632
4.8833,1643
4.8861,1651
4.8889,1653
4.8917,1662
4.8944,1654
4.8972,1653
4.9000,1650
4.9028,1654
4.9056,1667
4.9083,1674
4.9111,1668
4.9139,1677
4.9167,1670
4.9194,1664
4.9222,1649
4.9250,1650
4.9278,1659
4.9306,1657
4.9333,1656
4.9361,1648
4.9389,1649
4.9417,1637
4.9444,1628
4.9472,1637
4.9500,1650
4.9528,1646
4.9556,1640
4.9583,1632
4.9611,1634
4.9639,1618
4.9667,1627
4.9694,1623
4.9722,1626
4.9750,1621
4.9778,1627
4.9806,1625
4.9833,1624
4.9861,1631
4.9889,1625
4.9917,1622
4.9944,1626
4.9972,1613
5.0000,1615
5.0028,1619
5.0056,1625
5.0083,1626
5.0111,1625
5.0139,1622
5.0167,1608
5.0194,1607
5.0222,1624
5.0250,1614
5.0278,1622
5.0306,1620
5.0333,1619
5.0361,1617
5.0389,1614
5.0417,1606
5.0444,1619
5.0472,1621
5.0500,1619
5.0528,1616
5.0556,1611
5.0583,1608
5.0611,1611
5.0639,1606
5.0667,1613
5.0694,1607
5.0722,1616
5.0750,1611
5.0778,1616
5.0806,1617
5.0833,1616
5.0861,1616
5.0889,1619
5.0917,1623
5.0944,1622
5.0972,1625
5.1000,1629
5.1028,1629
5.1056,1632
5.1083,1633
5.1111,1637
5.1139,1631
5.1167,1640
5.1194,1633
5.1222,1633
5.1250,1637
5.1278,1636
5.1306,1628
5.1333,1634
5.1361,1632
5.1389,1635
5.1417,1641
5.1444,1646
5.1472,1668
5.1500,1662
5.1528,1665
5.1556,1660
5.1583,1657
5.1611,1648
5.1639,1646
5.1667,1646
5.1694,1645
5.1722,1651
5.1750,1651
5.1778,1669
5.1806,1683
5.1833,1714
5.1861,1756
5.1889,1780
5.1917,1799
5.1944,1801
5.1972,1813
5.2000,1807
5.2028,1824
5.2056,1847
5.2083,1874
5.2111,1901
5.2139,1928
5.2167,1952
5.2194,1985
5.2222,2020
5.2250,2038
5.2278,2044
5.2306,2043
5.2333,2024
5.2361,1994
5.2389,1955
5.2417,1890
5.2444,1831
5.2472,1755
5.2500,1699
5.2528,1663
5.2556,1635
5.2583,1622
5.2611,1614
5.2639,1611
5.2667,1600
5.2694,1603
5.2722,1590
5.2750,1584
5.2778,1579
5.2806,1576
5.2833,1562
5.2861,1562
5.2889,1572
5.2917,1558
5.2944,1562
5.2972,1552
5.3000,1553
5.3028,1543
5.3056,1550
5.3083,1555
5.3111,1572
5.3139,1602
5.3167,1624
5.3194,1639
5.3222,1619
5.3250,1591
5.3278,1546
5.3306,1527
5.3333,1573
5.3361,1712
5.3389,1952
5.3417,2290
5.3444,2614
5.3472,2734
5.3500,2695
5.3528,2589
5.3556,2477
5.3583,2350
5.3611,2079
5.3639,1672
5.3667,1323
5.3694,1117
5.3722,1025
5.3750,995
5.3778,969
5.3806,954
5.3833,959
5.3861,985
5.3889,1022
5.3917,1090
5.3944,1153
5.3972,1223
5.4000,1311
5.4028,1398
5.4056,1485
5.4083,1582
5.4111,1660
5.4139,1712
5.4167,1745
5.4194,1765
5.4222,1770
5.4250,1789
5.4278,1802
5.4306,1825
5.4333,1836
5.4361,1841
5.4389,1835
5.4417,1837
5.4444,1853
5.4472,1878
5.4500,1890
5.4528,1901
5.4556,1889
5.4583,1884
5.4611,1883
5.4639,1883
5.4667,1901
5.4694,1914
5.4722,1920
5.4750,1927
5.4778,1923
5.4806,1923
5.4833,1937
5.4861,1950
5.4889,1965
5.4917,1977
5.4944,1977
5.4972,1973
5.5000,1972
5.5028,1982
5.5056,1993
5.5083,2012
5.5111,2034
5.5139,2043
5.5167,2036
5.5194,2044
5.5222,2043
5.5250,2064
5.5278,2088
5.5306,2106
5.5333,2123
5.5361,2123
5.5389,2127
5.5417,2133
5.5444,2144
5.5472,2179
5.5500,2185
5.5528,2203
5.5556,2194
5.5583,2203
5.5611,1851
5.5639,1857
5.5667,1844
5.5694,1809
5.5722,1791
5.5750,1764
5.5778,1753
5.5806,1734
5.5833,1734
5.5861,1721
5.5889,1705
5.5917,1687
5.5944,1666
5.5972,1647
5.6000,1639
5.6028,1642
5.6056,1643
5.6083,1647
5.6111,1643
5.6139,1644
5.6167,1645
5.6194,1650
5.6222,1639
5.6250,1651
5.6278,1657
5.6306,1653
5.6333,1659
5.6361,1651
5.6389,1657
5.6417,1667
5.6444,1666
5.6472,1669
5.6500,1672
5.6528,1682
5.6556,1679
5.6583,1684
5.6611,1678
5.6639,1682
5.6667,1690
5.6694,1690
5.6722,1682
5.6750,1683
5.6778,1677
5.6806,1686
5.6833,1689
5.6861,1691
5.6889,1697
5.6917,1695
5.6944,1687
5.6972,1678
5.7000,1668
5.7028,1661
5.7056,1660
5.7083,1663
5.7111,1663
5.7139,1670
5.7167,1673
5.7194,1662
5.7222,1653
5.7250,1654
5.7278,1651
5.7306,1656
5.7333,1651
5.7361,1647
5.7389,1641
5.7417,1623
5.7444,1620
5.7472,1620
5.7500,1620
5.7528,1615
5.7556,1603
5.7583,1596
5.7611,1591
5.7639,1587
5.7667,1585
5.7694,1593
5.7722,1590
5.7750,1590
5.7778,1583
5.7806,1579
5.7833,1580
5.7861,1581
5.7889,1570
5.7917,1575
5.7944,1566
5.7972,1570
5.8000,1572
5.8028,1579
5.8056,1586
5.8083,1594
5.8111,1591
5.8139,1600
5.8167,1601
5.8194,1594
5.8222,1598
5.8250,1592
5.8278,1584
5.8306,1583
5.8333,1589
5.8361,1590
5.8389,1588
5.8417,1593
5.8444,1591
5.8472,1595
5.8500,1596
5.8528,1598
5.8556,1587
5.8583,1591
5.8611,1606
5.8639,1610
5.8667,1614
5.8694,1604
5.8722,1610
5.8750,1611
5.8778,1607
5.8806,1616
5.8833,1620
5.8861,1623
5.8889,1630
5.8917,1636
5.8944,1629
5.8972,1613
5.9000,1621
5.9028,1626
5.9056,1636
5.9083,1636
5.9111,1637
5.9139,1644
5.9167,1651
5.9194,1650
5.9222,1652
5.9250,1648
5.9278,1647
5.9306,1647
5.9333,1649
5.9361,1655
5.9389,1658
5.9417,1676
5.9444,1703
5.9472,1737
5.9500,1780
5.9528,1799
5.9556,1820
5.9583,1811
5.9611,1809
5.9639,1820
5.9667,1825
5.9694,1847
5.9722,1869
5.9750,1898
5.9778,1926
5.9806,1963
5.9833,2006
5.9861,2028
5.9889,2043
5.9917,2044
5.9944,2021
5.9972,1994
6.0000,1966
6.0028,1901
6.0056,1836
6.0083,1767
6.0111,1701
6.0139,1654
6.0167,1633
6.0194,1618
6.0222,1613
6.0250,1599
6.0278,1606
6.0306,1595
6.0333,1588
6.0361,1590
6.0389,1578
6.0417,1579
6.0444,1573
6.0472,1572
6.0500,1565
6.0528,1563
6.0556,1557
6.0583,1557
6.0611,1555
6.0639,1566
6.0667,1563
6.0694,1568
6.0722,1568
6.0750,1584
6.0778,1604
6.0806,1637
6.0833,1642
6.0861,1617
6.0889,1579
6.0917,1558
6.0944,1591
6.0972,1682
6.1000,1871
6.1028,2164
6.1056,2501
6.1083,2662
6.1111,2665
6.1139,2604
6.1167,2515
6.1194,2416
6.1222,2242
6.1250,1908
6.1278,1594
6.1306,1378
6.1333,1259
6.1361,1181
6.1389,1109
6.1417,1043
6.1444,1005
6.1472,1013
6.1500,1045
6.1528,1102
6.1556,1155
6.1583,1226
6.1611,1282
6.1639,1362
6.1667,1446
6.1694,1525
6.1722,1611
6.1750,1675
6.1778,1731
6.1806,1763
6.1833,1783
6.1861,1788
6.1889,1808
6.1917,1822
6.1944,1832
6.1972,1842
6.2000,1842
6.2028,1854
6.2056,1863
6.2083,1878
6.2111,1900
6.2139,1912
6.2167,1921
6.2194,1907
6.2222,1909
6.2250,1908
6.2278,1925
6.2306,1932
6.2333,1943
6.2361,1949
6.2389,1957
6.2417,1954
6.2444,1959
6.2472,1972
6.2500,1990
6.2528,2001
6.2556,2017
6.2583,2023
6.2611,2034
6.2639,2030
6.2667,2030
6.2694,2049
6.2722,2069
6.2750,2078
6.2778,2091
6.2806,2093
6.2833,2098
6.2861,2109
6.2889,2128
6.2917,2139
6.2944,2147
6.2972,2156
6.3000,2183
6.3028,2176
6.3056,2145
6.3083,2117
6.3111,2103
6.3139,2071
6.3167,2034
6.3194,1991
6.3222,1954
6.3250,1926
6.3278,1903
6.3306,1893
6.3333,1867
6.3361,1835
6.3389,1802
6.3417,1771
6.3444,1756
6.3472,1738
6.3500,1724
6.3528,1724
6.3556,1721
6.3583,1712
6.3611,1716
6.3639,1714
6.3667,1718
6.3694,1719
6.3722,1721
6.3750,1717
6.3778,1709
6.3806,1700
6.3833,1701
6.3861,1715
6.3889,1716
6.3917,1723
6.3944,1724
6.3972,1723
6.4000,1717
6.4028,1714
6.4056,1711
6.4083,1714
6.4111,1725
6.4139,1716
6.4167,1722
6.4194,1734
6.4222,1741
6.4250,1751
6.4278,1755
6.4306,1766
6.4333,1766
6.4361,1760
6.4389,1745
6.4417,1739
6.4444,1738
6.4472,1747
6.4500,1756
6.4528,1764
6.4556,1764
6.4583,1760
6.4611,1751
6.4639,1758
6.4667,1753
6.4694,1751
6.4722,1743
6.4750,1738
6.4778,1733
6.4806,1730
6.4833,1728
6.4861,1729
6.4889,1738
6.4917,1747
6.4944,1741
6.4972,1735
6.5000,1721
6.5028,1716
6.5056,1715
6.5083,1707
6.5111,1706
6.5139,1702
6.5167,1705
6.5194,1692
6.5222,1689
6.5250,1690
6.5278,1693
6.5306,1693
6.5333,1689
6.5361,1689
6.5389,1673
6.5417,1671
6.5444,1669
6.5472,1684
6.5500,1694
6.5528,1700
6.5556,1711
6.5583,1706
6.5611,1704
6.5639,1696
6.5667,1703
6.5694,1714
6.5722,1713
6.5750,1702
6.5778,1701
6.5806,1693
6.5833,1694
6.5861,1696
6.5889,1707
6.5917,1706
6.5944,1696
6.5972,1695
6.6000,1691
6.6028,1681
6.6056,1692
6.6083,1694
6.6111,1703
6.6139,1712
6.6167,1714
6.6194,1705
6.6222,1702
6.6250,1700
6.6278,1702
6.6306,1698
6.6333,1707
6.6361,1697
6.6389,1687
6.6417,1676
6.6444,1670
6.6472,1672
6.6500,1675
6.6528,1679
6.6556,1685
6.6583,1695
6.6611,1705
6.6639,1708
6.6667,1733
6.6694,1755
6.6722,1777
6.6750,1808
6.6778,1819
6.6806,1822
6.6833,1830
6.6861,1841
6.6889,1852
6.6917,1871
6.6944,1879
6.6972,1904
6.7000,1924
6.7028,1952
6.7056,1994
6.7083,2021
6.7111,2043
6.7139,2046
6.7167,2043
6.7194,2025
6.7222,1994
6.7250,1930
6.7278,1873
6.7306,1805
6.7333,1741
6.7361,1693
6.7389,1642
6.7417,1618
6.7444,1616
6.7472,1608
6.7500,1611
6.7528,1609
6.7556,1609
6.7583,1600
6.7611,1593
6.7639,1583
6.7667,1567
6.7694,1557
6.7722,1552
6.7750,1553
6.7778,1553
6.7806,1553
6.7833,1555
6.7861,1555
6.7889,1560
6.7917,1567
6.7944,1575
6.7972,1591
6.8000,1610
6.8028,1626
6.8056,1633
6.8083,1632
6.8111,1602
6.8139,1567
6.8167,1559
6.8194,1592
6.8222,1707
6.8250,1905
6.8278,2210
6.8306,2507
6.8333,2614
6.8361,2590
6.8389,2544
6.8417,2510
6.8444,2479
6.8472,2325
6.8500,2042
6.8528,1760
6.8556,1542
6.8583,1409
6.8611,1301
6.8639,1216
6.8667,1129
6.8694,1074
6.8722,1058
6.8750,1091
6.8778,1127
6.8806,1190
6.8833,1254
6.8861,1311
6.8889,1378
6.8917,1455
6.8944,1534
6.8972,1620
6.9000,1676
6.9028,1721
6.9056,1745
6.9083,1763
6.9111,1787
6.9139,1818
6.9167,1826
6.9194,1846
6.9222,1845
6.9250,1853
6.9278,1856
6.9306,1872
6.9333,1884
6.9361,1911
6.9389,1907
6.9417,1906
6.9444,1899
6.9472,1901
6.9500,1894
6.9528,1923
6.9556,1933
6.9583,1942
6.9611,1930
6.9639,1930
6.9667,1932
6.9694,1931
6.9722,1950
6.9750,1973
6.9778,1998
6.9806,2003
6.9833,1997
6.9861,2000
6.9889,2015
6.9917,2026
6.9944,2032
6.9972,2043
7.0000,2049
7.0028,2063
7.0056,2059
7.0083,2056
7.0111,2059
7.0139,2071
7.0167,2089
7.0194,2104
7.0222,2134
7.0250,2140
7.0278,2107
7.0306,2081
7.0333,2052
7.0361,2016
7.0389,1986
7.0417,1949
7.0444,1917
7.0472,1884
7.0500,1865
7.0528,1845
7.0556,1831
7.0583,1799
7.0611,1760
7.0639,1721
7.0667,1689
7.0694,1680
7.0722,1678
7.0750,1682
7.0778,1670
7.0806,1669
7.0833,1660
7.0861,1650
7.0889,1658
7.0917,1664
7.0944,1661
7.0972,1680
7.1000,1664
7.1028,1657
7.1056,1643
7.1083,1640
7.1111,1634
7.1139,1642
7.1167,1655
7.1194,1654
7.1222,1662
7.1250,1664
7.1278,1655
7.1306,1667
7.1333,1676
7.1361,1678
7.1389,1681
7.1417,1670
7.1444,1664
7.1472,1663
7.1500,1671
7.1528,1673
7.1556,1692
7.1583,1695
7.1611,1688
7.1639,1690
7.1667,1680
7.1694,1672
7.1722,1672
7.1750,1675
7.1778,1677
7.1806,1684
7.1833,1686
7.1861,1692
7.1889,1699
7.1917,1700
7.1944,1689
7.1972,1675
7.2000,1669
7.2028,1672
7.2056,1673
7.2083,1674
7.2111,1671
7.2139,1672
7.2167,1669
7.2194,1671
7.2222,1663
7.2250,1667
7.2278,1662
7.2306,1652
7.2333,1648
7.2361,1647
7.2389,1646
7.2417,1641
7.2444,1637
7.2472,1635
7.2500,1635
7.2528,1637
7.2556,1625
7.2583,1629
7.2611,1628
7.2639,1628
7.2667,1627
7.2694,1632
7.2722,1622
7.2750,1632
7.2778,1636
7.2806,1633
7.2833,1628
7.2861,1618
7.2889,1619
7.2917,1620
7.2944,1624
7.2972,1623
7.3000,1617
7.3028,1613
7.3056,1621
7.3083,1631
7.3111,1630
7.3139,1637
7.3167,1649
7.3194,1653
7.3222,1667
7.3250,1684
7.3278,1701
7.3306,1722
7.3333,1751
7.3361,1772
7.3389,1783
7.3417,1790
7.3444,1797
7.3472,1815
7.3500,1840
7.3528,1853
7.3556,1891
7.3583,1922
7.3611,1949
7.3639,1977
7.3667,1990
7.3694,1993
7.3722,1967
7.3750,1932
7.3778,1891
7.3806,1840
7.3833,1780
7.3861,1707
7.3889,1650
7.3917,1617
7.3944,1590
7.3972,1581
7.4000,1564
7.4028,1552
7.4056,1545
7.4083,1545
7.4111,1539
7.4139,1550
7.4167,1557
7.4194,1542
7.4222,1536
7.4250,1521
7.4278,1518
7.4306,1507
7.4333,1520
7.4361,1528
7.4389,1550
7.4417,1530
7.4444,1530
7.4472,1521
7.4500,1517
7.4528,1535
7.4556,1560
7.4583,1594
7.4611,1601
7.4639,1588
7.4667,1553
7.4694,1523
7.4722,1518
7.4750,1559
7.4778,1673
7.4806,1857
7.4833,2170
7.4861,2404
7.4889,2484
7.4917,2456
7.4944,2436
7.4972,2411
7.5000,2382
7.5028,2219
7.5056,1945
7.5083,1661
7.5111,1461
7.5139,1320
7.5167,1216
7.5194,1114
7.5222,1032
7.5250,997
7.5278,990
7.5306,1028
7.5333,1077
7.5361,1140
7.5389,1196
7.5417,1246
7.5444,1302
7.5472,1382
7.5500,1452
7.5528,1537
7.5556,1593
7.5583,1629
7.5611,1650
7.5639,1669
7.5667,1692
7.5694,1711
7.5722,1735
7.5750,1756
7.5778,1766
7.5806,1769
7.5833,1761
7.5861,1775
7.5889,1781
7.5917,1783
7.5944,1802
7.5972,1808
7.6000,1804
7.6028,1810
7.6056,1817
7.6083,1823
7.6111,1837
7.6139,1851
7.6167,1861
7.6194,1860
7.6222,1865
7.6250,1868
7.6278,1870
7.6306,1878
7.6333,1889
7.6361,1893
7.6389,1904
7.6417,1902
7.6444,1907
7.6472,1918
7.6500,1932
7.6528,1946
7.6556,1952
7.6583,1964
7.6611,1954
7.6639,1975
7.6667,1984
7.6694,2009
7.6722,2024
7.6750,2044
7.6778,1973
7.6806,1973
7.6833,1939
7.6861,1912
7.6889,1894
7.6917,1889
7.6944,1864
7.6972,1822
7.7000,1787
7.7028,1744
7.7056,1731
7.7083,1711
7.7111,1688
7.7139,1668
7.7167,1654
7.7194,1618
7.7222,1596
7.7250,1584
7.7278,1581
7.7306,1575
7.7333,1573
7.7361,1561
7.7389,1557
7.7417,1560
7.7444,1552
7.7472,1546
7.7500,1551
7.7528,1553
7.7556,1555
7.7583,1546
7.7611,1547
7.7639,1552
7.7667,1545
7.7694,1560
7.7722,1578
7.7750,1569
7.7778,1556
7.7806,1551
7.7833,1542
7.7861,1553
7.7889,1570
7.7917,1593
7.7944,1602
7.7972,1597
7.8000,1574
7.8028,1568
7.8056,1571
7.8083,1593
7.8111,1603
7.8139,1599
7.8167,1586
7.8194,1582
7.8222,1585
7.8250,1605
7.8278,1629
7.8306,1639
7.8333,1643
7.8361,1624
7.8389,1612
7.8417,1595
7.8444,1600
7.8472,1616
7.8500,1630
7.8528,1639
7.8556,1645
7.8583,1644
7.8611,1645
7.8639,1645
7.8667,1640
7.8694,1636
7.8722,1635
7.8750,1629
7.8778,1618
7.8806,1611
7.8833,1608
7.8861,1621
7.8889,1629
7.8917,1629
7.8944,1631
7.8972,1633
7.9000,1620
7.9028,1604
7.9056,1598
7.9083,1602
7.9111,1608
7.9139,1610
7.9167,1598
7.9194,1592
7.9222,1605
7.9250,1593
7.9278,1604
7.9306,1601
7.9333,1592
7.9361,1587
7.9389,1587
7.9417,1596
7.9444,1618
7.9472,1645
7.9500,1669
7.9528,1690
7.9556,1696
7.9583,1692
7.9611,1695
7.9639,1701
7.9667,1723
7.9694,1753
7.9722,1795
7.9750,1823
7.9778,1855
7.9806,1875
7.9833,1891
7.9861,1909
7.9889,1923
7.9917,1943
7.9944,1949
7.9972,1950
8.0000,1926
8.0028,1899
8.0056,1866
8.0083,1802
8.0111,1727
8.0139,1637
8.0167,1575
8.0194,1542
8.0222,1521
8.0250,1515
8.0278,1517
8.0306,1508
8.0333,1499
8.0361,1487
8.0389,1479
8.0417,1474
8.0444,1478
8.0472,1464
8.0500,1472
8.0528,1470
8.0556,1476
8.0583,1468
8.0611,1465
8.0639,1457
8.0667,1447
8.0694,1454
8.0722,1447
8.0750,1455
8.0778,1468
8.0806,1482
8.0833,1512
8.0861,1543
8.0889,1558
8.0917,1549
8.0944,1520
8.0972,1502
8.1000,1489
8.1028,1520
8.1056,1643
8.1083,1849
8.1111,2150
8.1139,2374
8.1167,2424
8.1194,2388
8.1222,2348
8.1250,2338
8.1278,2312
8.1306,2156
8.1333,1873
8.1361,1585
8.1389,1382
8.1417,1241
8.1444,1138
8.1472,1043
8.1500,972
8.1528,957
8.1556,980
8.1583,1018
8.1611,1082
8.1639,1143
8.1667,1193
8.1694,1230
8.1722,1294
8.1750,1370
8.1778,1444
8.1806,1522
8.1833,1581
8.1861,1617
8.1889,1649
8.1917,1671
8.1944,1691
8.1972,1704
8.2000,1733
8.2028,1733
8.2056,1740
8.2083,1740
8.2111,1736
8.2139,1743
8.2167,1764
8.2194,1775
8.2222,1776
8.2250,1784
8.2278,1785
8.2306,1798
8.2333,1806
8.2361,1819
8.2389,1827
8.2417,1827
8.2444,1835
8.2472,1825
8.2500,1822
8.2528,1841
8.2556,1858
8.2583,1882
8.2611,1878
8.2639,1877
8.2667,1867
8.2694,1874
8.2722,1894
8.2750,1913
8.2778,1929
8.2806,1943
8.2833,1952
8.2861,1957
8.2889,1968
8.2917,1974
8.2944,1997
8.2972,2019
8.3000,2034
8.3028,2047
8.3056,2036
8.3083,2033
8.3111,1999
8.3139,1964
8.3167,1937
8.3194,1916
8.3222,1881
8.3250,1851
8.3278,1809
8.3306,1767
8.3333,1748
8.3361,1736
8.3389,1721
8.3417,1699
8.3444,1671
8.3472,1636
8.3500,1600
8.3528,1588
8.3556,1587
8.3583,1595
8.3611,1599
8.3639,1599
8.3667,1588
8.3694,1578
8.3722,1560
8.3750,1549
8.3778,1552
8.3806,1552
8.3833,1542
8.3861,1551
8.3889,1550
8.3917,1556
8.3944,1563
8.3972,1568
8.4000,1567
8.4028,1569
8.4056,1568
8.4083,1554
8.4111,1553
8.4139,1558
8.4167,1555
8.4194,1573
8.4222,1584
8.4250,1578
8.4278,1591
8.4306,1593
8.4333,1590
8.4361,1609
8.4389,1622
8.4417,1629
8.4444,1622
8.4472,1606
8.4500,1605
8.4528,1601
8.4556,1617
8.4583,1623
8.4611,1626
8.4639,1625
8.4667,1628
8.4694,1631
8.4722,1628
8.4750,1632
8.4778,1623
8.4806,1623
8.4833,1615
8.4861,1605
8.4889,1613
8.4917,1625
8.4944,1621
8.4972,1626
8.5000,1630
8.5028,1631
8.5056,1622
8.5083,1616
8.5111,1609
8.5139,1602
8.5167,1599
8.5194,1607
8.5222,1617
8.5250,1623
8.5278,1616
8.5306,1614
8.5333,1603
8.5361,1601
8.5389,1602
8.5417,1602
8.5444,1600
8.5472,1598
8.5500,1596
8.5528,1600
8.5556,1601
8.5583,1615
8.5611,1612
8.5639,1611
8.5667,1601
8.5694,1587
8.5722,1587
8.5750,1587
8.5778,1575
8.5806,1578
8.5833,1588
8.5861,1582
8.5889,1591
8.5917,1597
8.5944,1592
8.5972,1587
8.6000,1577
8.6028,1581
8.6056,1583
8.6083,1591
8.6111,1615
8.6139,1632
8.6167,1654
8.6194,1680
8.6222,1692
8.6250,1702
8.6278,1696
8.6306,1696
8.6333,1703
8.6361,1709
8.6389,1740
8.6417,1762
8.6444,1798
8.6472,1836
8.6500,1872
8.6528,1898
8.6556,1920
8.6583,1933
8.6611,1952
8.6639,1958
8.6667,1954
8.6694,1930
8.6722,1898
8.6750,1846
8.6778,1784
8.6806,1709
8.6833,1635
8.6861,1588
8.6889,1563
8.6917,1555
8.6944,1544
8.6972,1539
8.7000,1526
8.7028,1513
8.7056,1498
8.7083,1498
8.7111,1482
8.7139,1488
8.7167,1489
8.7194,1480
8.7222,1486
8.7250,1483
8.7278,1483
8.7306,1471
8.7333,1480
8.7361,1479
8.7389,1470
8.7417,1468
8.7444,1469
8.7472,1492
8.7500,1521
8.7528,1558
8.7556,1585
8.7583,1604
8.7611,1588
8.7639,1571
8.7667,1537
8.7694,1528
8.7722,1596
8.7750,1752
8.7778,1999
8.7806,2302
8.7833,2452
8.7861,2453
8.7889,2400
8.7917,2369
8.7944,2357
8.7972,2282
8.8000,2047
8.8028,1715
8.8056,1436
8.8083,1260
8.8111,1149
8.8139,1080
8.8167,1017
8.8194,982
8.8222,979
8.8250,1002
8.8278,1045
8.8306,1094
8.8333,1156
8.8361,1218
8.8389,1279
8.8417,1348
8.8444,1423
8.8472,1503
8.8500,1569
8.8528,1617
8.8556,1658
8.8583,1689
8.8611,1713
8.8639,1724
8.8667,1745
8.8694,1771
8.8722,1769
8.8750,1782
8.8778,1758
8.8806,1769
8.8833,1780
8.8861,1800
8.8889,1823
8.8917,1827
8.8944,1822
8.8972,1819
8.9000,1823
8.9028,1834
8.9056,1860
8.9083,1878
8.9111,1873
8.9139,1866
8.9167,1869
8.9194,1877
8.9222,1891
8.9250,1920
8.9278,1926
8.9306,1919
8.9333,1922
8.9361,1916
8.9389,1923
8.9417,1950
8.9444,1970
8.9472,1999
8.9500,2007
8.9528,2012
8.9556,2005
8.9583,2004
8.9611,2020
8.9639,2063
8.9667,2083
8.9694,2099
8.9722,2104
8.9750,2112
8.9778,2111
8.9806,2115
8.9833,2129
8.9861,2159
8.9889,2171
8.9917,2185
8.9944,2177
8.9972,2177
9.0000,1767
9.0028,1777
9.0056,1759
9.0083,1733
9.0111,1704
9.0139,1666
9.0167,1662
9.0194,1664
9.0222,1662
9.0250,1654
9.0278,1644
9.0306,1622
9.0333,1605
9.0361,1593
9.0389,1591
9.0417,1600
9.0444,1608
9.0472,1619
9.0500,1628
9.0528,1621
9.0556,1616
9.0583,1595
9.0611,1577
9.0639,1588
9.0667,1586
9.0694,1599
9.0722,1589
9.0750,1578
9.0778,1582
9.0806,1587
9.0833,1606
9.0861,1617
9.0889,1602
9.0917,1595
9.0944,1594
9.0972,1604
9.1000,1609
9.1028,1611
9.1056,1617
9.1083,1623
9.1111,1622
9.1139,1607
9.1167,1605
9.1194,1620
9.1222,1626
9.1250,1640
9.1278,1637
9.1306,1629
9.1333,1628
9.1361,1636
9.1389,1644
9.1417,1653
9.1444,1650
9.1472,1643
9.1500,1644
9.1528,1640
9.1556,1650
9.1583,1648
9.1611,1649
9.1639,1658
9.1667,1649
9.1694,1645
9.1722,1641
9.1750,1625
9.1778,1622
9.1806,1633
9.1833,1648
9.1861,1651
9.1889,1654
9.1917,1655
9.1944,1642
9.1972,1624
9.2000,1618
9.2028,1618
9.2056,1624
9.2083,1618
9.2111,1618
9.2139,1606
9.2167,1602
9.2194,1597
9.2222,1608
9.2250,1617
9.2278,1610
9.2306,1605
9.2333,1603
9.2361,1589
9.2389,1595
9.2417,1596
9.2444,1611
9.2472,1612
9.2500,1612
9.2528,1610
9.2556,1609
9.2583,1608
9.2611,1607
9.2639,1605
9.2667,1606
9.2694,1593
9.2722,1584
9.2750,1587
9.2778,1594
9.2806,1604
9.2833,1615
9.2861,1617
9.2889,1613
9.2917,1598
9.2944,1589
9.2972,1586
9.3000,1593
9.3028,1596
9.3056,1608
9.3083,1617
9.3111,1612
9.3139,1604
9.3167,1605
9.3194,1615
9.3222,1612
9.3250,1617
9.3278,1612
9.3306,1614
9.3333,1619
9.3361,1613
9.3389,1616
9.3417,1612
9.3444,1608
9.3472,1610
9.3500,1609
9.3528,1627
9.3556,1621
9.3583,1623
9.3611,1626
9.3639,1618
9.3667,1612
9.3694,1612
9.3722,1615
9.3750,1620
9.3778,1624
9.3806,1621
9.3833,1627
9.3861,1631
9.3889,1637
9.3917,1637
9.3944,1626
9.3972,1618
9.4000,1611
9.4028,1609
9.4056,1608
9.4083,1613
9.4111,1616
9.4139,1631
9.4167,1627
9.4194,1631
9.4222,1637
9.4250,1636
9.4278,1627
9.4306,1629
9.4333,1617
9.4361,1619
9.4389,1623
9.4417,1623
9.4444,1623
9.4472,1625
9.4500,1626
9.4528,1633
9.4556,1637
9.4583,1636
9.4611,1656
9.4639,1663
9.4667,1659
9.4694,1658
9.4722,1652
9.4750,1642
9.4778,1635
9.4806,1633
9.4833,1630
9.4861,1641
9.4889,1658
9.4917,1670
9.4944,1665
9.4972,1654
9.5000,1657
9.5028,1653
9.5056,1645
9.5083,1644
9.5111,1646
9.5139,1652
9.5167,1658
9.5194,1667
9.5222,1672
9.5250,1675
9.5278,1662
9.5306,1651
9.5333,1650
9.5361,1643
9.5389,1653
9.5417,1663
9.5444,1679
9.5472,1675
9.5500,1686
9.5528,1700
9.5556,1713
9.5583,1726
9.5611,1745
9.5639,1766
9.5667,1780
9.5694,1782
9.5722,1789
9.5750,1801
9.5778,1799
9.5806,1808
9.5833,1827
9.5861,1857
9.5889,1895
9.5917,1919
9.5944,1944
9.5972,1963
9.6000,1976
9.6028,1982
9.6056,1977
9.6083,1972
9.6111,1939
9.6139,1892
9.6167,1832
9.6194,1785
9.6222,1759
9.6250,1734
9.6278,1726
9.6306,1695
9.6333,1655
9.6361,1625
9.6389,1613
9.6417,1599
9.6444,1588
9.6472,1590
9.6500,1585
9.6528,1575
9.6556,1569
9.6583,1560
9.6611,1566
9.6639,1562
9.6667,1557
9.6694,1556
9.6722,1555
9.6750,1553
9.6778,1557
9.6806,1565
9.6833,1566
9.6861,1584
9.6889,1611
9.6917,1647
9.6944,1687
9.6972,1709
9.7000,1698
9.7028,1675
9.7056,1641
9.7083,1629
9.7111,1674
9.7139,1819
9.7167,2061
9.7194,2380
9.7222,2579
9.7250,2606
9.7278,2555
9.7306,2516
9.7333,2494
9.7361,2448
9.7389,2230
9.7417,1864
9.7444,1503
9.7472,1280
9.7500,1157
9.7528,1085
9.7556,1027
9.7583,1011
9.7611,1011
9.7639,1033
9.7667,1073
9.7694,1134
9.7722,1173
9.7750,1221
9.7778,1276
9.7806,1347
9.7833,1426
9.7861,1499
9.7889,1577
9.7917,1628
9.7944,1666
9.7972,1687
9.8000,1708
9.8028,1728
9.8056,1760
9.8083,1776
9.8111,1789
9.8139,1780
9.8167,1776
9.8194,1787
9.8222,1806
9.8250,1830
9.8278,1842
9.8306,1848
9.8333,1847
9.8361,1838
9.8389,1833
9.8417,1850
9.8444,1871
9.8472,1885
9.8500,1892
9.8528,1877
9.8556,1869
9.8583,1868
9.8611,1881
9.8639,1893
9.8667,1924
9.8694,1934
9.8722,1927
9.8750,1915
9.8778,1914
9.8806,1927
9.8833,1951
9.8861,1985
9.8889,2003
9.8917,2010
9.8944,2005
9.8972,2000
9.9000,2012
9.9028,2028
9.9056,2043
9.9083,2068
9.9111,2092
9.9139,2103
9.9167,2113
9.9194,2138
9.9222,2159
9.9250,2171
9.9278,2185
9.9306,2191
9.9333,2180
9.9361,2184
9.9389,1834
9.9417,1844
9.9444,1833
9.9472,1795
9.9500,1757
9.9528,1725
9.9556,1707
9.9583,1694
9.9611,1689
9.9639,1677
9.9667,1667
9.9694,1641
9.9722,1615
9.9750,1583
9.9778,1578
9.9806,1577
9.9833,1576
9.9861,1570
9.9889,1575
9.9917,1567
9.9944,1561
9.9972,1563
10.0000,1562
10.0028,1575
10.0056,1580
10.0083,1589
10.0111,1573
10.0139,1563
10.0167,1563
10.0194,1560
10.0222,1563
10.0250,1577
10.0278,1581
10.0306,1563
10.0333,1563
10.0361,1565
10.0389,1576
10.0417,1582
10.0444,1588
10.0472,1589
10.0500,1587
10.0528,1590
10.0556,1593
10.0583,1606
10.0611,1627
10.0639,1634
10.0667,1626
10.0694,1620
10.0722,1614
10.0750,1614
10.0778,1613
10.0806,1629
10.0833,1644
10.0861,1654
10.0889,1643
10.0917,1641
10.0944,1635
10.0972,1631
10.1000,1637
10.1028,1653
10.1056,1664
10.1083,1668
10.1111,1673
10.1139,1669
10.1167,1659
10.1194,1653
10.1222,1661
10.1250,1661
10.1278,1658
10.1306,1646
10.1333,1633
10.1361,1625
10.1389,1617
10.1417,1621
10.1444,1634
10.1472,1632
10.1500,1636
10.1528,1626
10.1556,1615
10.1583,1618
10.1611,1613
10.1639,1617
10.1667,1625
10.1694,1622
10.1722,1618
10.1750,1610
10.1778,1604
10.1806,1603
10.1833,1603
10.1861,1599
10.1889,1606
10.1917,1606
10.1944,1606
10.1972,1611
10.2000,1615
10.2028,1614
10.2056,1604
10.2083,1592
10.2111,1594
10.2139,1594
10.2167,1587
10.2194,1584
10.2222,1586
10.2250,1593
10.2278,1594
10.2306,1603
10.2333,1603
10.2361,1607
10.2389,1611
10.2417,1604
10.2444,1591
10.2472,1599
10.2500,1589
10.2528,1576
10.2556,1579
10.2583,1572
10.2611,1580
10.2639,1585
10.2667,1593
10.2694,1602
10.2722,1602
10.2750,1596
10.2778,1597
10.2806,1595
10.2833,1597
10.2861,1601
10.2889,1605
10.2917,1603
10.2944,1617
10.2972,1620
10.3000,1614
10.3028,1610
10.3056,1604
10.3083,1603
10.3111,1611
10.3139,1607
10.3167,1604
10.3194,1605
10.3222,1608
10.3250,1629
10.3278,1641
10.3306,1626
10.3333,1628
10.3361,1631
10.3389,1628
10.3417,1629
10.3444,1634
10.3472,1624
10.3500,1630
10.3528,1625
10.3556,1626
10.3583,1620
10.3611,1623
10.3639,1634
10.3667,1637
10.3694,1639
10.3722,1646
10.3750,1650
10.3778,1646
10.3806,1634
10.3833,1628
10.3861,1638
10.3889,1642
10.3917,1637
10.3944,1644
10.3972,1643
10.4000,1651
10.4028,1650
10.4056,1652
10.4083,1651
10.4111,1650
10.4139,1639
10.4167,1644
10.4194,1642
10.4222,1637
10.4250,1636
10.4278,1637
10.4306,1640
10.4333,1640
10.4361,1644
10.4389,1641
10.4417,1646
10.4444,1641
10.4472,1640
10.4500,1635
10.4528,1643
10.4556,1638
10.4583,1647
10.4611,1653
10.4639,1661
10.4667,1669
10.4694,1672
10.4722,1669
10.4750,1655
10.4778,1660
10.4806,1669
10.4833,1698
10.4861,1733
10.4889,1757
10.4917,1766
10.4944,1772
10.4972,1796
10.5000,1823
10.5028,1837
10.5056,1838
10.5083,1839
10.5111,1846
10.5139,1862
10.5167,1880
10.5194,1915
10.5222,1949
10.5250,1961
10.5278,1979
10.5306,1973
10.5333,1962
10.5361,1933
10.5389,1911
10.5417,1861
10.5444,1814
10.5472,1769
10.5500,1731
10.5528,1696
10.5556,1680
10.5583,1665
10.5611,1656
10.5639,1631
10.5667,1627
10.5694,1621
10.5722,1605
10.5750,1594
10.5778,1592
10.5806,1584
10.5833,1578
10.5861,1571
10.5889,1573
10.5917,1558
10.5944,1562
10.5972,1566
10.6000,1579
10.6028,1571
10.6056,1577
10.6083,1575
10.6111,1579
10.6139,1586
10.6167,1613
10.6194,1655
10.6222,1691
10.6250,1702
10.6278,1679
10.6306,1637
10.6333,1611
10.6361,1616
10.6389,1696
10.6417,1892
10.6444,2165
10.6472,2501
10.6500,2716
10.6528,2744
10.6556,2690
10.6583,2615
10.6611,2537
10.6639,2426
10.6667,2116
10.6694,1640
10.6722,1253
10.6750,1039
10.6778,953
10.6806,924
10.6833,923
10.6861,934
10.6889,952
10.6917,998
10.6944,1051
10.6972,1116
10.7000,1178
10.7028,1241
10.7056,1330
10.7083,1423
10.7111,1522
10.7139,1602
10.7167,1662
10.7194,1700
10.7222,1722
10.7250,1725
10.7278,1749
10.7306,1776
10.7333,1789
10.7361,1797
10.7389,1798
10.7417,1803
10.7444,1799
10.7472,1809
10.7500,1821
10.7528,1854
10.7556,1872
10.7583,1878
10.7611,1859
10.7639,1839
10.7667,1831
10.7694,1842
10.7722,1860
10.7750,1878
10.7778,1882
10.7806,1885
10.7833,1881
10.7861,1886
10.7889,1902
10.7917,1935
10.7944,1960
10.7972,1973
10.8000,1971
10.8028,1968
10.8056,1955
10.8083,1970
10.8111,1982
10.8139,1996
10.8167,2014
10.8194,2018
10.8222,2019
10.8250,2031
10.8278,2044
10.8306,2084
10.8333,2116
10.8361,2131
10.8389,2137
10.8417,2145
10.8444,2153
10.8472,2144
10.8500,2158
10.8528,2179
10.8556,2199
10.8583,2213
10.8611,2207
10.8639,2215
10.8667,1839
10.8694,1846
10.8722,1829
10.8750,1801
10.8778,1774
10.8806,1734
10.8833,1709
10.8861,1688
10.8889,1676
10.8917,1668
10.8944,1645
10.8972,1634
10.9000,1619
10.9028,1607
10.9056,1604
10.9083,1592
10.9111,1589
10.9139,1594
10.9167,1598
10.9194,1582
10.9222,1575
10.9250,1563
10.9278,1568
10.9306,1576
10.9333,1579
10.9361,1590
10.9389,1576
10.9417,1576
10.9444,1579
10.9472,1582
10.9500,1599
10.9528,1592
10.9556,1587
10.9583,1579
10.9611,1577
10.9639,1577
10.9667,1584
10.9694,1600
10.9722,1603
10.9750,1601
10.9778,1602
10.9806,1587
10.9833,1586
10.9861,1596
10.9889,1607
10.9917,1616
10.9944,1620
10.9972,1619
11.0000,1625
11.0028,1614
11.0056,1620
11.0083,1631
11.0111,1641
11.0139,1646
11.0167,1656
11.0194,1649
11.0222,1644
11.0250,1647
11.0278,1659
11.0306,1670
11.0333,1674
11.0361,1655
11.0389,1638
11.0417,1625
11.0444,1619
11.0472,1622
11.0500,1642
11.0528,1648
11.0556,1644
11.0583,1644
11.0611,1630
11.0639,1630
11.0667,1638
11.0694,1638
11.0722,1640
11.0750,1635
11.0778,1632
11.0806,1623
11.0833,1624
11.0861,1632
11.0889,1636
11.0917,1638
11.0944,1629
11.0972,1630
11.1000,1633
11.1028,1632
11.1056,1630
11.1083,1634
11.1111,1630
11.1139,1630
11.1167,1621
11.1194,1623
11.1222,1624
11.1250,1617
11.1278,1610
11.1306,1622
11.1333,1616
11.1361,1604
11.1389,1611
11.1417,1611
11.1444,1608
11.1472,1606
11.1500,1619
11.1528,1618
11.1556,1622
11.1583,1624
11.1611,1615
11.1639,1615
11.1667,1615
11.1694,1619
11.1722,1625
11.1750,1627
11.1778,1623
11.1806,1625
11.1833,1628
11.1861,1619
11.1889,1623
11.1917,1623
11.1944,1626
11.1972,1620
11.2000,1618
11.2028,1615
11.2056,1629
11.2083,1628
11.2111,1625
11.2139,1625
11.2167,1631
11.2194,1635
11.2222,1632
11.2250,1630
11.2278,1640
11.2306,1631
11.2333,1636
11.2361,1634
11.2389,1632
11.2417,1628
11.2444,1638
11.2472,1639
11.2500,1644
11.2528,1635
11.2556,1628
11.2583,1625
11.2611,1620
11.2639,1632
11.2667,1636
11.2694,1646
11.2722,1644
11.2750,1645
11.2778,1641
11.2806,1644
11.2833,1640
11.2861,1646
11.2889,1651
11.2917,1657
11.2944,1655
11.2972,1651
11.3000,1648
11.3028,1658
11.3056,1665
11.3083,1655
11.3111,1655
11.3139,1651
11.3167,1660
11.3194,1660
11.3222,1670
11.3250,1680
11.3278,1680
11.3306,1686
11.3333,1686
11.3361,1669
11.3389,1670
11.3417,1677
11.3444,1669
11.3472,1673
11.3500,1690
11.3528,1692
11.3556,1689
11.3583,1687
11.3611,1684
11.3639,1694
11.3667,1689
11.3694,1689
11.3722,1684
11.3750,1681
11.3778,1685
11.3806,1681
11.3833,1680
11.3861,1682
11.3889,1694
11.3917,1697
11.3944,1687
11.3972,1680
11.4000,1677
11.4028,1681
11.4056,1681
11.4083,1690
11.4111,1689
11.4139,1698
11.4167,1713
11.4194,1746
11.4222,1780
11.4250,1815
11.4278,1832
11.4306,1841
11.4333,1845
11.4361,1858
11.4389,1879
11.4417,1877
11.4444,1885
11.4472,1891
11.4500,1921
11.4528,1951
11.4556,1990
11.4583,2008
11.4611,2020
11.4639,2017
11.4667,2003
11.4694,1984
11.4722,1969
11.4750,1930
11.4778,1878
11.4806,1824
11.4833,1761
11.4861,1720
11.4889,1676
11.4917,1651
11.4944,1644
11.4972,1631
11.5000,1616
11.5028,1610
11.5056,1599
11.5083,1587
11.5111,1580
11.5139,1574
11.5167,1578
11.5194,1577
11.5222,1570
11.5250,1569
11.5278,1573
11.5306,1564
11.5333,1562
11.5361,1564
11.5389,1562
11.5417,1564
11.5444,1568
11.5472,1580
11.5500,1611
11.5528,1656
11.5556,1697
11.5583,1690
11.5611,1668
11.5639,1617
11.5667,1587
11.5694,1590
11.5722,1667
11.5750,1843
11.5778,2125
11.5806,2465
11.5833,2692
11.5861,2728
11.5889,2656
11.5917,2550
11.5944,2459
11.5972,2341
11.6000,2030
11.6028,1579
11.6056,1210
11.6083,1013
11.6111,946
11.6139,936
11.6167,944
11.6194,975
11.6222,994
11.6250,1017
11.6278,1067
11.6306,1117
11.6333,1178
11.6361,1241
11.6389,1327
11.6417,1424
11.6444,1519
11.6472,1609
11.6500,1677
11.6528,1719
11.6556,1734
11.6583,1739
11.6611,1738
11.6639,1755
11.6667,1782
11.6694,1809
11.6722,1809
11.6750,1805
11.6778,1812
11.6806,1818
11.6833,1846
11.6861,1864
11.6889,1881
11.6917,1884
11.6944,1872
11.6972,1868
11.7000,1858
11.7028,1872
11.7056,1882
11.7083,1907
11.7111,1916
11.7139,1906
11.7167,1900
11.7194,1894
11.7222,1903
11.7250,1926
11.7278,1943
11.7306,1954
11.7333,1960
11.7361,1965
11.7389,1955
11.7417,1967
11.7444,1981
11.7472,1996
11.7500,2018
11.7528,2029
11.7556,2027
11.7583,2038
11.7611,2057
11.7639,2080
11.7667,2106
11.7694,2129
11.7722,2137
11.7750,2144
11.7778,2140
11.7806,2163
11.7833,2188
11.7861,2228
11.7889,2244
11.7917,2266
11.7944,2250
11.7972,2244
11.8000,1843
11.8028,1842
11.8056,1832
11.8083,1805
11.8111,1767
11.8139,1728
11.8167,1700
11.8194,1676
11.8222,1675
11.8250,1674
11.8278,1655
11.8306,1641
11.8333,1611
11.8361,1592
11.8389,1581
11.8417,1594
11.8444,1601
11.8472,1595
11.8500,1597
11.8528,1578
11.8556,1570
11.8583,1571
11.8611,1571
11.8639,1580
11.8667,1584
11.8694,1596
11.8722,1595
11.8750,1586
11.8778,1588
11.8806,1591
11.8833,1604
11.8861,1612
11.8889,1612
11.8917,1608
11.8944,1606
11.8972,1603
11.9000,1610
11.9028,1618
11.9056,1625
11.9083,1629
11.9111,1624
11.9139,1623
11.9167,1632
11.9194,1642
11.9222,1652
11.9250,1659
11.9278,1648
11.9306,1640
11.9333,1638
11.9361,1632
11.9389,1647
11.9417,1654
11.9444,1650
11.9472,1660
11.9500,1659
11.9528,1651
11.9556,1656
11.9583,1659
11.9611,1664
11.9639,1674
11.9667,1674
11.9694,1672
11.9722,1673
11.9750,1658
11.9778,1655
11.9806,1647
11.9833,1651
11.9861,1661
11.9889,1658
11.9917,1658
11.9944,1654
11.9972,1653
12.0000,1643
12.0028,1647
12.0056,1652
12.0083,1659
12.0111,1645
12.0139,1637
12.0167,1630
12.0194,1635
12.0222,1639
12.0250,1640
12.0278,1649
12.0306,1643
12.0333,1644
12.0361,1619
12.0389,1609
12.0417,1605
12.0444,1603
12.0472,1605
12.0500,1610
12.0528,1619
12.0556,1618
12.0583,1612
12.0611,1611
12.0639,1608
12.0667,1607
12.0694,1599
12.0722,1599
12.0750,1588
12.0778,1578
12.0806,1582
12.0833,1594
12.0861,1602
12.0889,1606
12.0917,1612
12.0944,1612
12.0972,1599
12.1000,1594
12.1028,1602
12.1056,1603
12.1083,1596
12.1111,1606
12.1139,1594
12.1167,1600
12.1194,1608
12.1222,1611
12.1250,1617
12.1278,1619
12.1306,1619
12.1333,1611
12.1361,1612
12.1389,1614
12.1417,1618
12.1444,1623
12.1472,1628
12.1500,1618
12.1528,1613
12.1556,1620
12.1583,1628
12.1611,1624
12.1639,1625
12.1667,1623
12.1694,1621
12.1722,1610
12.1750,1630
12.1778,1635
12.1806,1631
12.1833,1642
12.1861,1647
12.1889,1660
12.1917,1656
12.1944,1645
12.1972,1632
12.2000,1628
12.2028,1628
12.2056,1629
12.2083,1626
12.2111,1636
12.2139,1637
12.2167,1643
12.2194,1654
12.2222,1663
12.2250,1660
12.2278,1672
12.2306,1669
12.2333,1654
12.2361,1649
12.2389,1653
12.2417,1654
12.2444,1649
12.2472,1648
12.2500,1655
12.2528,1655
12.2556,1661
12.2583,1669
12.2611,1667
12.2639,1667
12.2667,1661
12.2694,1660
12.2722,1646
12.2750,1653
12.2778,1657
12.2806,1659
12.2833,1669
12.2861,1681
12.2889,1684
12.2917,1680
12.2944,1675
12.2972,1672
12.3000,1671
12.3028,1671
12.3056,1670
12.3083,1668
12.3111,1660
12.3139,1667
12.3167,1672
12.3194,1678
12.3222,1694
12.3250,1687
12.3278,1690
12.3306,1678
12.3333,1689
12.3361,1709
12.3389,1730
12.3417,1764
12.3444,1797
12.3472,1813
12.3500,1826
12.3528,1831
12.3556,1847
12.3583,1849
12.3611,1856
12.3639,1868
12.3667,1885
12.3694,1913
12.3722,1949
12.3750,1983
12.3778,2004
12.3806,2020
12.3833,2009
12.3861,1999
12.3889,1978
12.3917,1950
12.3944,1904
12.3972,1858
12.4000,1796
12.4028,1743
12.4056,1698
12.4083,1660
12.4111,1638
12.4139,1629
12.4167,1621
12.4194,1613
12.4222,1602
12.4250,1591
12.4278,1588
12.4306,1590
12.4333,1572
12.4361,1559
12.4389,1550
12.4417,1562
12.4444,1562
12.4472,1555
12.4500,1552
12.4528,1546
12.4556,1553
12.4583,1563
12.4611,1573
12.4639,1569
12.4667,1585
12.4694,1615
12.4722,1643
12.4750,1657
12.4778,1648
12.4806,1600
12.4833,1546
12.4861,1523
12.4889,1569
12.4917,1695
12.4944,1924
12.4972,2257
12.5000,2572
12.5028,2708
12.5056,2668
12.5083,2561
12.5111,2461
12.5139,2360
12.5167,2168
12.5194,1791
12.5222,1399
12.5250,1138
12.5278,1021
12.5306,965
12.5333,937
12.5361,931
12.5389,942
12.5417,964
12.5444,1009
12.5472,1071
12.5500,1132
12.5528,1179
12.5556,1245
12.5583,1330
12.5611,1418
12.5639,1518
12.5667,1594
12.5694,1653
12.5722,1685
12.5750,1693
12.5778,1701
12.5806,1719
12.5833,1735
12.5861,1769
12.5889,1788
12.5917,1791
12.5944,1778
12.5972,1784
12.6000,1790
12.6028,1803
12.6056,1832
12.6083,1848
12.6111,1846
12.6139,1840
12.6167,1831
12.6194,1841
12.6222,1871
12.6250,1887
12.6278,1885
12.6306,1887
12.6333,1877
12.6361,1864
12.6389,1879
12.6417,1895
12.6444,1920
12.6472,1932
12.6500,1939
12.6528,1938
12.6556,1950
12.6583,1957
12.6611,1981
12.6639,1999
12.6667,2014
12.6694,2033
12.6722,2026
12.6750,2027
12.6778,2040
12.6806,2057
12.6833,2086
12.6861,2118
12.6889,2141
12.6917,2147
12.6944,2150
12.6972,2162
12.7000,2188
12.7028,2207
12.7056,2217
12.7083,2234
12.7111,2231
12.7139,2231
12.7167,1866
12.7194,1866
12.7222,1854
12.7250,1821
12.7278,1804
12.7306,1766
12.7333,1735
12.7361,1709
12.7389,1686
12.7417,1679
12.7444,1662
12.7472,1654
12.7500,1630
12.7528,1628
12.7556,1608
12.7583,1608
12.7611,1604
12.7639,1600
12.7667,1600
12.7694,1587
12.7722,1586
12.7750,1583
12.7778,1586
12.7806,1592
12.7833,1604
12.7861,1601
12.7889,1603
12.7917,1592
12.7944,1589
12.7972,1591
12.8000,1596
12.8028,1607
12.8056,1612
12.8083,1621
12.8111,1608
12.8139,1602
12.8167,1612
12.8194,1620
12.8222,1621
12.8250,1629
12.8278,1631
12.8306,1629
12.8333,1635
12.8361,1631
12.8389,1651
12.8417,1662
12.8444,1667
12.8472,1668
12.8500,1654
12.8528,1644
12.8556,1650
12.8583,1642
12.8611,1651
12.8639,1667
12.8667,1664
12.8694,1668
12.8722,1671
12.8750,1657
12.8778,1654
12.8806,1652
12.8833,1653
12.8861,1661
12.8889,1659
12.8917,1659
12.8944,1658
12.8972,1661
12.9000,1664
12.9028,1666
12.9056,1674
12.9083,1666
12.9111,1665
12.9139,1666
12.9167,1659
12.9194,1651
12.9222,1644
12.9250,1643
12.9278,1640
12.9306,1646
12.9333,1641
12.9361,1643
12.9389,1648
12.9417,1649
12.9444,1644
12.9472,1641
12.9500,1636
12.9528,1620
12.9556,1625
12.9583,1626
12.9611,1623
12.9639,1628
12.9667,1629
12.9694,1618
12.9722,1620
12.9750,1627
12.9778,1629
12.9806,1631
12.9833,1626
12.9861,1622
12.9889,1617
12.9917,1628
12.9944,1627
12.9972,1627
13.0000,1624
13.0028,1626
13.0056,1632
13.0083,1626
13.0111,1610
13.0139,1623
13.0167,1617
13.0194,1628
13.0222,1630
13.0250,1629
13.0278,1627
13.0306,1629
13.0333,1629
13.0361,1630
13.0389,1633
13.0417,1635
13.0444,1628
13.0472,1622
13.0500,1617
13.0528,1620
13.0556,1622
13.0583,1630
13.0611,1628
13.0639,1623
13.0667,1631
13.0694,1631
13.0722,1639
13.0750,1638
13.0778,1635
13.0806,1636
13.0833,1638
13.0861,1649
13.0889,1641
13.0917,1634
13.0944,1638
13.0972,1643
13.1000,1641
13.1028,1646
13.1056,1654
13.1083,1659
13.1111,1660
13.1139,1648
13.1167,1654
13.1194,1656
13.1222,1653
13.1250,1647
13.1278,1656
13.1306,1647
13.1333,1650
13.1361,1658
13.1389,1670
13.1417,1668
13.1444,1662
13.1472,1664
13.1500,1658
13.1528,1660
13.1556,1673
13.1583,1661
13.1611,1662
13.1639,1672
13.1667,1671
13.1694,1674
13.1722,1670
13.1750,1670
13.1778,1670
13.1806,1667
13.1833,1671
13.1861,1679
13.1889,1676
13.1917,1675
13.1944,1667
13.1972,1665
13.2000,1671
13.2028,1683
13.2056,1685
13.2083,1686
13.2111,1687
13.2139,1690
13.2167,1701
13.2194,1712
13.2222,1745
13.2250,1779
13.2278,1807
13.2306,1822
13.2333,1814
13.2361,1836
13.2389,1843
13.2417,1849
13.2444,1862
13.2472,1869
13.2500,1881
13.2528,1914
13.2556,1939
13.2583,1977
13.2611,2012
13.2639,2029
13.2667,2027
13.2694,2007
13.2722,1991
13.2750,1964
13.2778,1930
13.2806,1875
13.2833,1813
13.2861,1748
13.2889,1688
13.2917,1649
13.2944,1629
13.2972,1628
13.3000,1621
13.3028,1614
13.3056,1607
13.3083,1604
13.3111,1592
13.3139,1596
13.3167,1579
13.3194,1572
13.3222,1558
13.3250,1556
13.3278,1563
13.3306,1551
13.3333,1547
13.3361,1548
13.3389,1556
13.3417,1555
13.3444,1558
13.3472,1567
13.3500,1570
13.3528,1601
13.3556,1620
13.3583,1640
13.3611,1643
13.3639,1616
13.3667,1568
13.3694,1534
13.3722,1551
13.3750,1654
13.3778,1872
13.3806,2178
13.3833,2523
13.3861,2684
13.3889,2682
13.3917,2593
13.3944,2482
13.3972,2382
13.4000,2213
13.4028,1867
13.4056,1457
13.4083,1182
13.4111,1047
13.4139,989
13.4167,960
13.4194,944
13.4222,942
13.4250,956
13.4278,985
13.4306,1035
13.4333,1104
13.4361,1158
13.4389,1220
13.4417,1301
13.4444,1399
13.4472,1495
13.4500,1589
13.4528,1650
13.4556,1683
13.4583,1699
13.4611,1697
13.4639,1710
13.4667,1736
13.4694,1761
13.4722,1784
13.4750,1790
13.4778,1794
13.4806,1796
13.4833,1809
13.4861,1823
13.4889,1839
13.4917,1834
13.4944,1837
13.4972,1827
13.5000,1820
13.5028,1835
13.5056,1848
13.5083,1876
13.5111,1890
13.5139,1886
13.5167,1871
13.5194,1866
13.5222,1870
13.5250,1891
13.5278,1913
13.5306,1932
13.5333,1951
13.5361,1943
13.5389,1950
13.5417,1954
13.5444,1960
13.5472,1972
13.5500,1987
13.5528,2003
13.5556,2004
13.5583,2013
13.5611,2024
13.5639,2035
13.5667,2056
13.5694,2090
13.5722,2098
13.5750,2107
13.5778,2168
13.5806,2152
13.5833,2119
13.5861,2101
13.5889,2061
13.5917,2011
13.5944,1971
13.5972,1925
13.6000,1872
13.6028,1836
13.6056,1799
13.6083,1768
13.6111,1743
13.6139,1719
13.6167,1694
13.6194,1659
13.6222,1629
13.6250,1612
13.6278,1613
13.6306,1608
13.6333,1595
13.6361,1581
13.6389,1562
13.6417,1560
13.6444,1556
13.6472,1551
13.6500,1555
13.6528,1555
13.6556,1542
13.6583,1529
13.6611,1538
13.6639,1547
13.6667,1552
13.6694,1564
13.6722,1556
13.6750,1554
13.6778,1545
13.6806,1549
13.6833,1544
13.6861,1549
13.6889,1556
13.6917,1567
13.6944,1567
13.6972,1564
13.7000,1566
13.7028,1573
13.7056,1580
13.7083,1574
13.7111,1586
13.7139,1580
13.7167,1587
13.7194,1589
13.7222,1591
13.7250,1602
13.7278,1595
13.7306,1609
13.7333,1610
13.7361,1604
13.7389,1599
13.7417,1601
13.7444,1605
13.7472,1608
13.7500,1609
13.7528,1616
13.7556,1607
13.7583,1602
13.7611,1601
13.7639,1601
13.7667,1613
13.7694,1615
13.7722,1618
13.7750,1608
13.7778,1608
13.7806,1594
13.7833,1589
13.7861,1593
13.7889,1594
13.7917,1606
13.7944,1600
13.7972,1603
13.8000,1594
13.8028,1596
13.8056,1600
13.8083,1598
13.8111,1595
13.8139,1587
13.8167,1574
13.8194,1570
13.8222,1565
13.8250,1566
13.8278,1579
13.8306,1590
13.8333,1590
13.8361,1579
13.8389,1578
13.8417,1579
13.8444,1579
13.8472,1577
13.8500,1571
13.8528,1578
13.8556,1585
13.8583,1583
13.8611,1575
13.8639,1575
13.8667,1580
13.8694,1586
13.8722,1586
13.8750,1584
13.8778,1581
13.8806,1574
13.8833,1576
13.8861,1583
13.8889,1585
13.8917,1587
13.8944,1594
13.8972,1595
13.9000,1591
13.9028,1585
13.9056,1588
13.9083,1589
13.9111,1585
13.9139,1577
13.9167,1585
13.9194,1582
13.9222,1584
13.9250,1586
13.9278,1593
13.9306,1591
13.9333,1592
13.9361,1590
13.9389,1587
13.9417,1585
13.9444,1587
13.9472,1591
13.9500,1601
13.9528,1592
13.9556,1591
13.9583,1588
13.9611,1592
13.9639,1596
13.9667,1596
13.9694,1601
13.9722,1612
13.9750,1614
13.9778,1607
13.9806,1596
13.9833,1608
13.9861,1604
13.9889,1615
13.9917,1607
13.9944,1620
13.9972,1627
14.0000,1636
14.0028,1627
14.0056,1632
14.0083,1623
14.0111,1625
14.0139,1618
14.0167,1623
14.0194,1626
14.0222,1639
14.0250,1639
14.0278,1655
14.0306,1643
14.0333,1637
14.0361,1632
14.0389,1635
14.0417,1629
14.0444,1640
14.0472,1636
14.0500,1657
14.0528,1680
14.0556,1721
14.0583,1752
14.0611,1772
14.0639,1785
14.0667,1801
14.0694,1810
14.0722,1806
14.0750,1821
14.0778,1839
14.0806,1858
14.0833,1876
14.0861,1920
14.0889,1948
14.0917,1976
14.0944,2007
14.0972,2014
14.1000,1994
14.1028,1983
14.1056,1963
14.1083,1930
14.1111,1879
14.1139,1815
14.1167,1750
14.1194,1689
14.1222,1642
14.1250,1625
14.1278,1606
14.1306,1606
14.1333,1602
14.1361,1591
14.1389,1577
14.1417,1565
14.1444,1557
14.1472,1558
14.1500,1566
14.1528,1552
14.1556,1540
14.1583,1534
14.1611,1534
14.1639,1541
14.1667,1531
14.1694,1537
14.1722,1537
14.1750,1539
14.1778,1547
14.1806,1560
14.1833,1577
14.1861,1608
14.1889,1632
14.1917,1639
14.1944,1609
14.1972,1570
14.2000,1544
14.2028,1554
14.2056,1640
14.2083,1824
14.2111,2087
14.2139,2445
14.2167,2680
14.2194,2705
14.2222,2631
14.2250,2518
14.2278,2413
14.2306,2286
14.2333,1983
14.2361,1584
14.2389,1262
14.2417,1101
14.2444,1027
14.2472,989
14.2500,964
14.2528,944
14.2556,946
14.2583,972
14.2611,1024
14.2639,1088
14.2667,1158
14.2694,1215
14.2722,1300
14.2750,1391
14.2778,1493
14.2806,1571
14.2833,1646
14.2861,1689
14.2889,1719
14.2917,1735
14.2944,1744
14.2972,1760
14.3000,1774
14.3028,1791
14.3056,1806
14.3083,1816
14.3111,1810
14.3139,1813
14.3167,1827
14.3194,1856
14.3222,1862
14.3250,1873
14.3278,1876
14.3306,1870
14.3333,1872
14.3361,1880
14.3389,1890
14.3417,1903
14.3444,1917
14.3472,1910
14.3500,1904
14.3528,1907
14.3556,1915
14.3583,1943
14.3611,1959
14.3639,1988
14.3667,1987
14.3694,1991
14.3722,1992
14.3750,1996
14.3778,2008
14.3806,2023
14.3833,2029
14.3861,2040
14.3889,2038
14.3917,2049
14.3944,2073
14.3972,2106
14.4000,2115
14.4028,2144
14.4056,2155
14.4083,2179
14.4111,2174
14.4139,2187
14.4167,2193
14.4194,2201
14.4222,2221
14.4250,2229
14.4278,2236
14.4306,2247
14.4333,1867
14.4361,1873
14.4389,1846
14.4417,1812
14.4444,1779
14.4472,1743
14.4500,1718
14.4528,1711
14.4556,1703
14.4583,1687
14.4611,1676
14.4639,1647
14.4667,1628
14.4694,1624
14.4722,1625
14.4750,1625
14.4778,1627
14.4806,1634
14.4833,1617
14.4861,1615
14.4889,1612
14.4917,1620
14.4944,1624
14.4972,1629
14.5000,1628
14.5028,1628
14.5056,1618
14.5083,1616
14.5111,1613
14.5139,1619
14.5167,1637
14.5194,1646
14.5222,1647
14.5250,1642
14.5278,1631
14.5306,1632
14.5333,1639
14.5361,1657
14.5389,1662
14.5417,1662
14.5444,1654
14.5472,1644
14.5500,1655
14.5528,1645
14.5556,1647
14.5583,1661
14.5611,1663
14.5639,1666
14.5667,1664
14.5694,1645
14.5722,1646
14.5750,1652
14.5778,1664
14.5806,1671
14.5833,1663
14.5861,1662
14.5889,1667
14.5917,1661
14.5944,1670
14.5972,1665
14.6000,1666
14.6028,1656
14.6056,1649
14.6083,1634
14.6111,1625
14.6139,1629
14.6167,1630
14.6194,1646
14.6222,1649
14.6250,1647
14.6278,1634
14.6306,1638
14.6333,1631
14.6361,1646
14.6389,1639
14.6417,1638
14.6444,1622
14.6472,1614
14.6500,1617
14.6528,1614
14.6556,1614
14.6583,1623
14.6611,1626
14.6639,1612
14.6667,1603
14.6694,1596
14.6722,1602
14.6750,1606
14.6778,1605
14.6806,1616
14.6833,1614
14.6861,1610
14.6889,1597
14.6917,1593
14.6944,1587
14.6972,1600
14.7000,1602
14.7028,1601
14.7056,1593
14.7083,1592
14.7111,1594
14.7139,1590
14.7167,1600
14.7194,1607
14.7222,1605
14.7250,1610
14.7278,1604
14.7306,1601
14.7333,1610
14.7361,1606
14.7389,1609
14.7417,1600
14.7444,1593
14.7472,1590
14.7500,1589
14.7528,1598
14.7556,1605
14.7583,1607
14.7611,1617
14.7639,1612
14.7667,1612
14.7694,1612
14.7722,1609
14.7750,1612
14.7778,1612
14.7806,1612
14.7833,1617
14.7861,1616
14.7889,1615
14.7917,1610
14.7944,1624
14.7972,1626
14.8000,1619
14.8028,1613
14.8056,1620
14.8083,1628
14.8111,1644
14.8139,1668
14.8167,1705
14.8194,1745
14.8222,1759
14.8250,1775
14.8278,1776
14.8306,1782
14.8333,1795
14.8361,1799
14.8389,1817
14.8417,1844
14.8444,1874
14.8472,1901
14.8500,1941
14.8528,1973
14.8556,1999
14.8583,2007
14.8611,1993
14.8639,1972
14.8667,1951
14.8694,1907
14.8722,1844
14.8750,1779
14.8778,1708
14.8806,1659
14.8833,1614
14.8861,1582
14.8889,1573
14.8917,1570
14.8944,1555
14.8972,1548
14.9000,1550
14.9028,1550
14.9056,1547
14.9083,1533
14.9111,1524
14.9139,1521
14.9167,1520
14.9194,1519
14.9222,1515
14.9250,1516
14.9278,1510
14.9306,1508
14.9333,1510
14.9361,1518
14.9389,1522
14.9417,1526
14.9444,1541
14.9472,1563
14.9500,1588
14.9528,1600
14.9556,1579
14.9583,1543
14.9611,1516
14.9639,1511
14.9667,1582
14.9694,1738
14.9722,2013
14.9750,2377
14.9778,2647
14.9806,2704
14.9833,2655
14.9861,2536
14.9889,2412
14.9917,2259
14.9944,1950
14.9972,1539
15.0000,1220
15.0028,1040
15.0056,961
15.0083,929
15.0111,894
15.0139,886
15.0167,877
15.0194,905
15.0222,945
15.0250,1016
15.0278,1082
15.0306,1147
15.0333,1243
15.0361,1337
15.0389,1430
15.0417,1520
15.0444,1600
15.0472,1634
15.0500,1671
15.0528,1686
15.0556,1703
15.0583,1721
15.0611,1731
15.0639,1758
15.0667,1761
15.0694,1767
15.0722,1772
15.0750,1779
15.0778,1804
15.0806,1822
15.0833,1832
15.0861,1840
15.0889,1834
15.0917,1831
15.0944,1836
15.0972,1844
15.1000,1856
15.1028,1861
15.1056,1869
15.1083,1856
15.1111,1864
15.1139,1860
15.1167,1872
15.1194,1885
15.1222,1901
15.1250,1923
15.1278,1925
15.1306,1928
15.1333,1932
15.1361,1943
15.1389,1956
15.1417,1977
15.1444,1992
15.1472,2005
15.1500,2010
15.1528,2018
15.1556,2036
15.1583,2048
15.1611,2082
15.1639,2092
15.1667,2102
15.1694,2102
15.1722,2107
15.1750,2119
15.1778,2138
15.1806,2150
15.1833,2163
15.1861,2178
15.1889,2179
15.1917,2184
15.1944,1810
15.1972,1815
15.2000,1796
15.2028,1773
15.2056,1741
15.2083,1720
15.2111,1683
15.2139,1672
15.2167,1661
15.2194,1659
15.2222,1641
15.2250,1624
15.2278,1604
15.2306,1585
15.2333,1573
15.2361,1595
15.2389,1593
15.2417,1612
15.2444,1599
15.2472,1591
15.2500,1577
15.2528,1580
15.2556,1587
15.2583,1591
15.2611,1600
15.2639,1590
15.2667,1589
15.2694,1585
15.2722,1596
15.2750,1601
15.2778,1617
15.2806,1617
15.2833,1625
15.2861,1616
15.2889,1608
15.2917,1607
15.2944,1613
15.2972,1621
15.3000,1636
15.3028,1628
15.3056,1628
15.3083,1621
15.3111,1622
15.3139,1627
15.3167,1639
15.3194,1646
15.3222,1660
15.3250,1648
15.3278,1653
15.3306,1646
15.3333,1640
15.3361,1646
15.3389,1657
15.3417,1665
15.3444,1661
15.3472,1645
15.3500,1632
15.3528,1630
15.3556,1628
15.3583,1633
15.3611,1627
15.3639,1631
15.3667,1624
15.3694,1624
15.3722,1631
15.3750,1626
15.3778,1629
15.3806,1629
15.3833,1637
15.3861,1635
15.3889,1624
15.3917,1623
15.3944,1607
15.3972,1609
15.4000,1609
15.4028,1622
15.4056,1608
15.4083,1609
15.4111,1613
15.4139,1623
15.4167,1629
15.4194,1633
15.4222,1629
15.4250,1620
15.4278,1600
15.4306,1594
15.4333,1586
15.4361,1595
15.4389,1603
15.4417,1601
15.4444,1593
15.4472,1597
15.4500,1597
15.4528,1595
15.4556,1608
15.4583,1602
15.4611,1598
15.4639,1610
15.4667,1610
15.4694,1596
15.4722,1602
15.4750,1603
15.4778,1615
15.4806,1612
15.4833,1599
15.4861,1589
15.4889,1578
15.4917,1587
15.4944,1598
15.4972,1611
15.5000,1608
15.5028,1608
15.5056,1603
15.5083,1599
15.5111,1601
15.5139,1606
15.5167,1613
15.5194,1618
15.5222,1629
15.5250,1628
15.5278,1625
15.5306,1626
15.5333,1639
15.5361,1681
15.5389,1707
15.5417,1731
15.5444,1744
15.5472,1746
15.5500,1754
15.5528,1770
15.5556,1777
15.5583,1802
15.5611,1816
15.5639,1846
15.5667,1866
15.5694,1898
15.5722,1919
15.5750,1958
15.5778,1980
15.5806,1994
15.5833,2001
15.5861,1985
15.5889,1956
15.5917,1919
15.5944,1863
15.5972,1798
15.6000,1723
15.6028,1664
15.6056,1623
15.6083,1603
15.6111,1595
15.6139,1589
15.6167,1580
15.6194,1570
15.6222,1559
15.6250,1556
15.6278,1540
15.6306,1542
15.6333,1525
15.6361,1522
15.6389,1521
15.6417,1524
15.6444,1518
15.6472,1525
15.6500,1527
15.6528,1535
15.6556,1523
15.6583,1518
15.6611,1519
15.6639,1525
15.6667,1543
15.6694,1561
15.6722,1583
15.6750,1585
15.6778,1574
15.6806,1550
15.6833,1525
15.6861,1510
15.6889,1561
15.6917,1685
15.6944,1906
15.6972,2221
15.7000,2509
15.7028,2614
15.7056,2564
15.7083,2497
15.7111,2423
15.7139,2353
15.7167,2151
15.7194,1828
15.7222,1535
15.7250,1335
15.7278,1216
15.7306,1124
15.7333,1045
15.7361,986
15.7389,954
15.7417,958
15.7444,987
15.7472,1042
15.7500,1098
15.7528,1167
15.7556,1216
15.7583,1281
15.7611,1367
15.7639,1452
15.7667,1518
15.7694,1577
15.7722,1614
15.7750,1639
15.7778,1672
15.7806,1689
15.7833,1714
15.7861,1740
15.7889,1753
15.7917,1760
15.7944,1762
15.7972,1760
15.8000,1766
15.8028,1792
15.8056,1799
15.8083,1799
15.8111,1803
15.8139,1809
15.8167,1811
15.8194,1807
15.8222,1829
15.8250,1838
15.8278,1842
15.8306,1850
15.8333,1857
15.8361,1865
15.8389,1869
15.8417,1879
15.8444,1904
15.8472,1917
15.8500,1916
15.8528,1925
15.8556,1911
15.8583,1920
15.8611,1927
15.8639,1945
15.8667,1951
15.8694,1958
15.8722,1977
15.8750,1974
15.8778,1990
15.8806,2021
15.8833,2036
15.8861,2052
15.8889,2060
15.8917,2106
15.8944,2098
15.8972,2077
15.9000,2060
15.9028,2026
15.9056,1994
15.9083,1947
15.9111,1915
15.9139,1876
15.9167,1850
15.9194,1807
15.9222,1784
15.9250,1768
15.9278,1739
15.9306,1717
15.9333,1701
15.9361,1675
15.9389,1656
15.9417,1641
15.9444,1633
15.9472,1626
15.9500,1623
15.9528,1607
15.9556,1605
15.9583,1591
15.9611,1596
15.9639,1596
15.9667,1595
15.9694,1589
15.9722,1581
15.9750,1583
15.9778,1590
15.9806,1599
15.9833,1607
15.9861,1608
15.9889,1597
15.9917,1587
15.9944,1583
15.9972,1593
16.0000,1603
16.0028,1614
16.0056,1626
16.0083,1622
16.0111,1610
16.0139,1615
16.0167,1619
16.0194,1612
16.0222,1613
16.0250,1609
16.0278,1625
16.0306,1629
16.0333,1636
16.0361,1642
16.0389,1640
16.0417,1654
16.0444,1659
16.0472,1669
16.0500,1662
16.0528,1654
16.0556,1638
16.0583,1631
16.0611,1636
16.0639,1650
16.0667,1650
16.0694,1662
16.0722,1659
16.0750,1651
16.0778,1647
16.0806,1644
16.0833,1642
16.0861,1638
16.0889,1636
16.0917,1639
16.0944,1623
16.0972,1629
16.1000,1634
16.1028,1636
16.1056,1637
16.1083,1643
16.1111,1650
16.1139,1643
16.1167,1628
16.1194,1617
16.1222,1611
16.1250,1607
16.1278,1615
16.1306,1620
16.1333,1627
16.1361,1631
16.1389,1620
16.1417,1614
16.1444,1628
16.1472,1626
16.1500,1620
16.1528,1611
16.1556,1606
16.1583,1604
16.1611,1615
16.1639,1621
16.1667,1632
16.1694,1637
16.1722,1610
16.1750,1592
16.1778,1596
16.1806,1610
16.1833,1622
16.1861,1633
16.1889,1660
16.1917,1684
16.1944,1709
16.1972,1727
16.2000,1735
16.2028,1739
16.2056,1744
16.2083,1764
16.2111,1776
16.2139,1812
16.2167,1837
16.2194,1858
16.2222,1876
16.2250,1900
16.2278,1915
16.2306,1951
16.2333,1969
16.2361,1991
16.2389,1982
16.2417,1955
16.2444,1930
16.2472,1887
16.2500,1835
16.2528,1769
16.2556,1693
16.2583,1636
16.2611,1590
16.2639,1560
16.2667,1548
16.2694,1547
16.2722,1532
16.2750,1519
16.2778,1520
16.2806,1521
16.2833,1508
16.2861,1504
16.2889,1502
16.2917,1503
16.2944,1494
16.2972,1484
16.3000,1488
16.3028,1491
16.3056,1495
16.3083,1492
16.3111,1494
16.3139,1503
16.3167,1508
16.3194,1519
16.3222,1540
16.3250,1557
16.3278,1571
16.3306,1574
16.3333,1557
16.3361,1544
16.3389,1518
16.3417,1518
16.3444,1554
16.3472,1672
16.3500,1859
16.3528,2159
16.3556,2441
16.3583,2546
16.3611,2525
16.3639,2470
16.3667,2429
16.3694,2395
16.3722,2255
16.3750,1983
16.3778,1704
16.3806,1481
16.3833,1333
16.3861,1225
16.3889,1134
16.3917,1051
16.3944,1004
16.3972,994
16.4000,1015
16.4028,1065
16.4056,1124
16.4083,1195
16.4111,1262
16.4139,1332
16.4167,1394
16.4194,1461
16.4222,1528
16.4250,1593
16.4278,1634
16.4306,1668
16.4333,1696
16.4361,1734
16.4389,1760
16.4417,1764
16.4444,1770
16.4472,1770
16.4500,1770
16.4528,1763
16.4556,1777
16.4583,1792
16.4611,1804
16.4639,1826
16.4667,1826
16.4694,1817
16.4722,1801
16.4750,1812
16.4778,1817
16.4806,1849
16.4833,1858
16.4861,1864
16.4889,1865
16.4917,1859
16.4944,1855
16.4972,1860
16.5000,1877
16.5028,1892
16.5056,1910
16.5083,1932
16.5111,1932
16.5139,1936
16.5167,1946
16.5194,1952
16.5222,1953
16.5250,1957
16.5278,1952
16.5306,1969
16.5333,1992
16.5361,2010
16.5389,2036
16.5417,2045
16.5444,2063
16.5472,2061
16.5500,2065
16.5528,2064
16.5556,2074
16.5583,2089
16.5611,2122
16.5639,2135
16.5667,2135
16.5694,2118
16.5722,2123
16.5750,1822
16.5778,1824
16.5806,1813
16.5833,1781
16.5861,1742
16.5889,1718
16.5917,1690
16.5944,1702
16.5972,1683
16.6000,1681
16.6028,1666
16.6056,1651
16.6083,1632
16.6111,1620
16.6139,1611
16.6167,1623
16.6194,1634
16.6222,1634
16.6250,1628
16.6278,1620
16.6306,1607
16.6333,1608
16.6361,1615
16.6389,1624
16.6417,1626
16.6444,1615
16.6472,1601
16.6500,1597
16.6528,1601
16.6556,1621
16.6583,1620
16.6611,1628
16.6639,1638
16.6667,1632
16.6694,1635
16.6722,1638
16.6750,1639
16.6778,1641
16.6806,1640
16.6833,1644
16.6861,1635
16.6889,1636
16.6917,1637
16.6944,1649
16.6972,1653
16.7000,1658
16.7028,1664
16.7056,1677
16.7083,1685
16.7111,1678
16.7139,1676
16.7167,1669
16.7194,1671
16.7222,1669
16.7250,1674
16.7278,1670
16.7306,1665
16.7333,1660
16.7361,1657
16.7389,1655
16.7417,1656
16.7444,1653
16.7472,1662
16.7500,1663
16.7528,1661
16.7556,1660
16.7583,1664
16.7611,1656
16.7639,1639
16.7667,1645
16.7694,1638
16.7722,1636
16.7750,1642
16.7778,1646
16.7806,1654
16.7833,1656
16.7861,1653
16.7889,1640
16.7917,1641
16.7944,1648
16.7972,1652
16.8000,1648
16.8028,1649
16.8056,1647
16.8083,1661
16.8111,1690
16.8139,1712
16.8167,1744
16.8194,1749
16.8222,1762
16.8250,1751
16.8278,1757
16.8306,1793
16.8333,1819
16.8361,1862
16.8389,1900
16.8417,1917
16.8444,1917
16.8472,1931
16.8500,1954
16.8528,1969
16.8556,1994
16.8583,2006
16.8611,1993
16.8639,1964
16.8667,1912
16.8694,1866
16.8722,1786
16.8750,1700
16.8778,1636
16.8806,1598
16.8833,1576
16.8861,1557
16.8889,1541
16.8917,1540
16.8944,1536
16.8972,1544
16.9000,1542
16.9028,1539
16.9056,1537
16.9083,1524
16.9111,1515
16.9139,1510
16.9167,1503
16.9194,1499
16.9222,1502
16.9250,1497
16.9278,1513
16.9306,1510
16.9333,1510
16.9361,1510
16.9389,1516
16.9417,1538
16.9444,1560
16.9472,1584
16.9500,1606
16.9528,1600
16.9556,1567
16.9583,1542
16.9611,1526
16.9639,1545
16.9667,1632
16.9694,1796
16.9722,2057
16.9750,2361
16.9778,2491
16.9806,2479
16.9833,2421
16.9861,2377
16.9889,2344
16.9917,2249
16.9944,2002
16.9972,1692
17.0000,1451
17.0028,1291
17.0056,1189
17.0083,1089
17.0111,1004
17.0139,951
17.0167,949
17.0194,972
17.0222,1019
17.0250,1074
17.0278,1142
17.0306,1201
17.0333,1256
17.0361,1337
17.0389,1424
17.0417,1508
17.0444,1575
17.0472,1612
17.0500,1634
17.0528,1654
17.0556,1665
17.0583,1696
17.0611,1725
17.0639,1749
17.0667,1746
17.0694,1733
17.0722,1737
17.0750,1751
17.0778,1769
17.0806,1794
17.0833,1796
17.0861,1804
17.0889,1807
17.0917,1810
17.0944,1811
17.0972,1838
17.1000,1857
17.1028,1853
17.1056,1863
17.1083,1845
17.1111,1842
17.1139,1844
17.1167,1864
17.1194,1891
17.1222,1900
17.1250,1911
17.1278,1922
17.1306,1924
17.1333,1928
17.1361,1942
17.1389,1953
17.1417,1969
17.1444,1973
17.1472,1971
17.1500,1977
17.1528,1972
17.1556,1990
17.1583,2006
17.1611,2041
17.1639,2046
17.1667,2065
17.1694,2074
17.1722,2084
17.1750,2093
17.1778,2113
17.1806,2128
17.1833,2131
17.1861,2136
17.1889,2143
17.1917,2149
17.1944,1784
17.1972,1792
17.2000,1757
17.2028,1725
17.2056,1691
17.2083,1671
17.2111,1651
17.2139,1655
17.2167,1656
17.2194,1651
17.2222,1642
17.2250,1628
17.2278,1613
17.2306,1591
17.2333,1589
17.2361,1598
17.2389,1610
17.2417,1615
17.2444,1610
17.2472,1614
17.2500,1611
17.2528,1605
17.2556,1606
17.2583,1619
17.2611,1621
17.2639,1614
17.2667,1599
17.2694,1594
17.2722,1604
17.2750,1617
17.2778,1638
17.2806,1644
17.2833,1651
17.2861,1638
17.2889,1641
17.2917,1648
17.2944,1659
17.2972,1672
17.3000,1674
17.3028,1658
17.3056,1647
17.3083,1645
17.3111,1646
17.3139,1666
17.3167,1682
17.3194,1685
17.3222,1684
17.3250,1683
17.3278,1677
17.3306,1669
17.3333,1656
17.3361,1667
17.3389,1660
17.3417,1679
17.3444,1681
17.3472,1676
17.3500,1673
17.3528,1678
17.3556,1678
17.3583,1680
17.3611,1679
17.3639,1691
17.3667,1679
17.3694,1674
17.3722,1661
17.3750,1668
17.3778,1666
17.3806,1661
17.3833,1674
17.3861,1670
17.3889,1658
17.3917,1654
17.3944,1648
17.3972,1644
17.4000,1650
17.4028,1653
17.4056,1653
17.4083,1643
17.4111,1645
17.4139,1669
17.4167,1687
17.4194,1715
17.4222,1734
17.4250,1748
17.4278,1747
17.4306,1741
17.4333,1738
17.4361,1750
17.4389,1764
17.4417,1795
17.4444,1823
17.4472,1867
17.4500,1895
17.4528,1935
17.4556,1957
17.4583,1976
17.4611,1990
17.4639,1995
17.4667,1993
17.4694,1977
17.4722,1956
17.4750,1923
17.4778,1878
17.4806,1816
17.4833,1735
17.4861,1658
17.4889,1607
17.4917,1566
17.4944,1550
17.4972,1541
17.5000,1544
17.5028,1543
17.5056,1540
17.5083,1524
17.5111,1515
17.5139,1509
17.5167,1508
17.5194,1507
17.5222,1509
17.5250,1506
17.5278,1495
17.5306,1484
17.5333,1483
17.5361,1478
17.5389,1489
17.5417,1500
17.5444,1504
17.5472,1516
17.5500,1523
17.5528,1542
17.5556,1566
17.5583,1596
17.5611,1603
17.5639,1593
17.5667,1571
17.5694,1552
17.5722,1538
17.5750,1583
17.5778,1700
17.5806,1910
17.5833,2222
17.5861,2443
17.5889,2500
17.5917,2468
17.5944,2428
17.5972,2409
17.6000,2356
17.6028,2184
17.6056,1854
17.6083,1543
17.6111,1325
17.6139,1208
17.6167,1121
17.6194,1050
17.6222,984
17.6250,959
17.6278,951
17.6306,971
17.6333,1025
17.6361,1102
17.6389,1173
17.6417,1224
17.6444,1290
17.6472,1367
17.6500,1449
17.6528,1515
17.6556,1560
17.6583,1598
17.6611,1630
17.6639,1661
17.6667,1694
17.6694,1711
17.6722,1728
17.6750,1734
17.6778,1732
17.6806,1737
17.6833,1737
17.6861,1745
17.6889,1760
17.6917,1767
17.6944,1781
17.6972,1774
17.7000,1771
17.7028,1784
17.7056,1800
17.7083,1819
17.7111,1837
17.7139,1844
17.7167,1846
17.7194,1851
17.7222,1840
17.7250,1846
17.7278,1851
17.7306,1867
17.7333,1880
17.7361,1887
17.7389,1893
17.7417,1894
17.7444,1903
17.7472,1915
17.7500,1939
17.7528,1959
17.7556,1966
17.7583,1974
17.7611,1970
17.7639,1977
17.7667,1986
17.7694,2006
17.7722,2025
17.7750,2042
17.7778,2044
17.7806,2046
17.7833,2058
17.7861,2075
17.7889,2101
17.7917,2119
17.7944,2132
17.7972,2137
17.8000,2125
17.8028,1767
17.8056,1776
17.8083,1756
17.8111,1740
17.8139,1729
17.8167,1699
17.8194,1674
17.8222,1659
17.8250,1643
17.8278,1633
17.8306,1623
17.8333,1623
17.8361,1615
17.8389,1607
17.8417,1605
17.8444,1602
17.8472,1600
17.8500,1596
17.8528,1586
17.8556,1577
17.8583,1572
17.8611,1575
17.8639,1586
17.8667,1597
17.8694,1598
17.8722,1591
17.8750,1585
17.8778,1579
17.8806,1571
17.8833,1579
17.8861,1585
17.8889,1589
17.8917,1596
17.8944,1602
17.8972,1591
17.9000,1589
17.9028,1592
17.9056,1596
17.9083,1603
17.9111,1615
17.9139,1629
17.9167,1623
17.9194,1621
17.9222,1628
17.9250,1640
17.9278,1643
17.9306,1648
17.9333,1632
17.9361,1625
17.9389,1621
17.9417,1619
17.9444,1641
17.9472,1633
17.9500,1633
17.9528,1629
17.9556,1629
17.9583,1629
17.9611,1636
17.9639,1644
17.9667,1630
17.9694,1634
17.9722,1631
17.9750,1632
17.9778,1616
17.9806,1629
17.9833,1629
17.9861,1637
17.9889,1635
17.9917,1642
17.9944,1640
17.9972,1632
18.0000,1622
18.0028,1631
18.0056,1616
18.0083,1608
18.0111,1608
18.0139,1600
18.0167,1604
18.0194,1606
18.0222,1611
18.0250,1623
18.0278,1620
18.0306,1609
18.0333,1609
18.0361,1594
18.0389,1600
18.0417,1595
18.0444,1605
18.0472,1612
18.0500,1616
18.0528,1620
18.0556,1612
18.0583,1615
18.0611,1611
18.0639,1606
18.0667,1617
18.0694,1614
18.0722,1614
18.0750,1613
18.0778,1595
18.0806,1590
18.0833,1589
18.0861,1600
18.0889,1611
18.0917,1619
18.0944,1635
18.0972,1634
18.1000,1635
18.1028,1648
18.1056,1677
18.1083,1707
18.1111,1718
18.1139,1724
18.1167,1724
18.1194,1722
18.1222,1735
18.1250,1762
18.1278,1797
18.1306,1833
18.1333,1860
18.1361,1885
18.1389,1914
18.1417,1925
18.1444,1941
18.1472,1953
18.1500,1962
18.1528,1944
18.1556,1917
18.1583,1879
18.1611,1838
18.1639,1772
18.1667,1699
18.1694,1632
18.1722,1580
18.1750,1552
18.1778,1526
18.1806,1516
18.1833,1508
18.1861,1514
18.1889,1518
18.1917,1515
18.1944,1505
18.1972,1490
18.2000,1478
18.2028,1459
18.2056,1450
18.2083,1444
18.2111,1467
18.2139,1480
18.2167,1476
18.2194,1479
18.2222,1481
18.2250,1483
18.2278,1483
18.2306,1485
18.2333,1494
18.2361,1514
18.2389,1553
18.2417,1584
18.2444,1607
18.2472,1585
18.2500,1558
18.2528,1535
18.2556,1549
18.2583,1627
18.2611,1773
18.2639,2021
18.2667,2330
18.2694,2505
18.2722,2529
18.2750,2485
18.2778,2427
18.2806,2407
18.2833,2327
18.2861,2091
18.2889,1744
18.2917,1442
18.2944,1248
18.2972,1142
18.3000,1059
18.3028,984
18.3056,943
18.3083,936
18.3111,965
18.3139,1015
18.3167,1083
18.3194,1144
18.3222,1192
18.3250,1239
18.3278,1323
18.3306,1397
18.3333,1478
18.3361,1555
18.3389,1597
18.3417,1618
18.3444,1641
18.3472,1673
18.3500,1694
18.3528,1721
18.3556,1738
18.3583,1752
18.3611,1754
18.3639,1741
18.3667,1745
18.3694,1761
18.3722,1783
18.3750,1794
18.3778,1791
18.3806,1777
18.3833,1781
18.3861,1786
18.3889,1805
18.3917,1834
18.3944,1842
18.3972,1853
18.4000,1848
18.4028,1846
18.4056,1848
18.4083,1852
18.4111,1867
18.4139,1880
18.4167,1881
18.4194,1892
18.4222,1886
18.4250,1895
18.4278,1904
18.4306,1925
18.4333,1947
18.4361,1960
18.4389,1964
18.4417,1973
18.4444,1979
18.4472,1985
18.4500,2010
18.4528,2023
18.4556,2037
18.4583,2054
18.4611,2060
18.4639,2055
18.4667,2075
18.4694,2089
18.4722,2110
18.4750,2124
18.4778,2137
18.4806,2139
18.4833,2146
18.4861,1782
18.4889,1797
18.4917,1769
18.4944,1750
18.4972,1720
18.5000,1708
18.5028,1686
18.5056,1675
18.5083,1671
18.5111,1667
18.5139,1658
18.5167,1639
18.5194,1614
18.5222,1600
18.5250,1588
18.5278,1584
18.5306,1594
18.5333,1601
18.5361,1596
18.5389,1601
18.5417,1599
18.5444,1595
18.5472,1588
18.5500,1585
18.5528,1582
18.5556,1580
18.5583,1578
18.5611,1582
18.5639,1582
18.5667,1575
18.5694,1586
18.5722,1590
18.5750,1592
18.5778,1599
18.5806,1593
18.5833,1601
18.5861,1603
18.5889,1607
18.5917,1614
18.5944,1617
18.5972,1616
18.6000,1620
18.6028,1616
18.6056,1627
18.6083,1639
18.6111,1642
18.6139,1655
18.6167,1642
18.6194,1640
18.6222,1633
18.6250,1633
18.6278,1649
18.6306,1661
18.6333,1674
18.6361,1662
18.6389,1650
18.6417,1636
18.6444,1637
18.6472,1640
18.6500,1645
18.6528,1653
18.6556,1661
18.6583,1652
18.6611,1650
18.6639,1643
18.6667,1637
18.6694,1652
18.6722,1660
18.6750,1658
18.6778,1661
18.6806,1646
18.6833,1647
18.6861,1645
18.6889,1652
18.6917,1648
18.6944,1635
18.6972,1627
18.7000,1606
18.7028,1608
18.7056,1609
18.7083,1627
18.7111,1641
18.7139,1639
18.7167,1629
18.7194,1623
18.7222,1614
18.7250,1609
18.7278,1612
18.7306,1612
18.7333,1611
18.7361,1603
18.7389,1608
18.7417,1609
18.7444,1605
18.7472,1612
18.7500,1617
18.7528,1606
18.7556,1598
18.7583,1584
18.7611,1593
18.7639,1581
18.7667,1601
18.7694,1608
18.7722,1619
18.7750,1622
18.7778,1617
18.7806,1607
18.7833,1593
18.7861,1603
18.7889,1600
18.7917,1605
18.7944,1618
18.7972,1621
18.8000,1615
18.8028,1615
18.8056,1610
18.8083,1608
18.8111,1609
18.8139,1615
18.8167,1622
18.8194,1603
18.8222,1602
18.8250,1601
18.8278,1617
18.8306,1622
18.8333,1630
18.8361,1617
18.8389,1611
18.8417,1609
18.8444,1630
18.8472,1631
18.8500,1640
18.8528,1639
18.8556,1628
18.8583,1616
18.8611,1613
18.8639,1610
18.8667,1624
18.8694,1628
18.8722,1640
18.8750,1643
18.8778,1640
18.8806,1641
18.8833,1635
18.8861,1637
18.8889,1639
18.8917,1638
18.8944,1639
18.8972,1638
18.9000,1633
18.9028,1630
18.9056,1645
18.9083,1646
18.9111,1645
18.9139,1642
18.9167,1641
18.9194,1648
18.9222,1653
18.9250,1659
18.9278,1653
18.9306,1643
18.9333,1649
18.9361,1647
18.9389,1642
18.9417,1643
18.9444,1647
18.9472,1661
18.9500,1682
18.9528,1710
18.9556,1736
18.9583,1747
18.9611,1763
18.9639,1776
18.9667,1806
18.9694,1812
18.9722,1815
18.9750,1815
18.9778,1814
18.9806,1827
18.9833,1858
18.9861,1900
18.9889,1943
18.9917,1957
18.9944,1959
18.9972,1942
19.0000,1937
19.0028,1915
19.0056,1889
19.0083,1843
19.0111,1797
19.0139,1747
19.0167,1702
19.0194,1666
19.0222,1642
19.0250,1630
19.0278,1619
19.0306,1614
19.0333,1593
19.0361,1581
19.0389,1568
19.0417,1558
19.0444,1559
19.0472,1551
19.0500,1555
19.0528,1563
19.0556,1560
19.0583,1558
19.0611,1548
19.0639,1550
19.0667,1544
19.0694,1543
19.0722,1548
19.0750,1555
19.0778,1567
19.0806,1567
19.0833,1571
19.0861,1591
19.0889,1629
19.0917,1664
19.0944,1671
19.0972,1659
19.1000,1614
19.1028,1580
19.1056,1600
19.1083,1696
19.1111,1889
19.1139,2184
19.1167,2487
19.1194,2636
19.1222,2632
19.1250,2578
19.1278,2513
19.1306,2473
19.1333,2368
19.1361,2063
19.1389,1666
19.1417,1369
19.1444,1184
19.1472,1109
19.1500,1052
19.1528,989
19.1556,967
19.1583,980
19.1611,1011
19.1639,1066
19.1667,1115
19.1694,1174
19.1722,1217
19.1750,1290
19.1778,1359
19.1806,1445
19.1833,1534
19.1861,1606
19.1889,1651
19.1917,1680
19.1944,1693
19.1972,1711
19.2000,1734
19.2028,1752
19.2056,1764
19.2083,1773
19.2111,1765
19.2139,1767
19.2167,1788
19.2194,1800
19.2222,1825
19.2250,1826
19.2278,1824
19.2306,1814
19.2333,1799
19.2361,1814
19.2389,1830
19.2417,1856
19.2444,1872
19.2472,1901
19.2500,1901
19.2528,1888
19.2556,1881
19.2583,1893
19.2611,1915
19.2639,1922
19.2667,1935
19.2694,1931
19.2722,1925
19.2750,1927
19.2778,1936
19.2806,1954
19.2833,1965
19.2861,1975
19.2889,1978
19.2917,1981
19.2944,1985
19.2972,2011
19.3000,2040
19.3028,2053
19.3056,2069
19.3083,2078
19.3111,2083
19.3139,2100
19.3167,2111
19.3194,2136
19.3222,2151
19.3250,2173
19.3278,2194
19.3306,2184
19.3333,2185
19.3361,1840
19.3389,1849
19.3417,1823
19.3444,1789
19.3472,1756
19.3500,1721
19.3528,1700
19.3556,1695
19.3583,1692
19.3611,1680
19.3639,1662
19.3667,1644
19.3694,1623
19.3722,1602
19.3750,1601
19.3778,1593
19.3806,1606
19.3833,1601
19.3861,1594
19.3889,1593
19.3917,1570
19.3944,1573
19.3972,1579
19.4000,1589
19.4028,1598
19.4056,1585
19.4083,1565
19.4111,1561
19.4139,1573
19.4167,1573
19.4194,1586
19.4222,1594
19.4250,1603
19.4278,1601
19.4306,1599
19.4333,1604
19.4361,1601
19.4389,1602
19.4417,1609
19.4444,1619
19.4472,1616
19.4500,1622
19.4528,1618
19.4556,1611
19.4583,1616
19.4611,1622
19.4639,1617
19.4667,1620
19.4694,1618
19.4722,1626
19.4750,1622
19.4778,1633
19.4806,1639
19.4833,1637
19.4861,1636
19.4889,1636
19.4917,1643
19.4944,1653
19.4972,1659
19.5000,1674
19.5028,1671
19.5056,1672
19.5083,1655
19.5111,1643
19.5139,1637
19.5167,1639
19.5194,1642
19.5222,1655
19.5250,1659
19.5278,1644
19.5306,1646
19.5333,1639
19.5361,1641
19.5389,1641
19.5417,1637
19.5444,1641
19.5472,1633
19.5500,1628
19.5528,1623
19.5556,1622
19.5583,1625
19.5611,1625
19.5639,1630
19.5667,1625
19.5694,1624
19.5722,1625
19.5750,1622
19.5778,1615
19.5806,1610
19.5833,1614
19.5861,1599
19.5889,1597
19.5917,1599
19.5944,1601
19.5972,1601
19.6000,1608
19.6028,1600
19.6056,1604
19.6083,1601
19.6111,1608
19.6139,1605
19.6167,1588
19.6194,1590
19.6222,1601
19.6250,1596
19.6278,1606
19.6306,1604
19.6333,1599
19.6361,1590
19.6389,1609
19.6417,1604
19.6444,1612
19.6472,1611
19.6500,1604
19.6528,1600
19.6556,1598
19.6583,1602
19.6611,1606
19.6639,1612
19.6667,1600
19.6694,1590
19.6722,1586
19.6750,1599
19.6778,1599
19.6806,1612
19.6833,1617
19.6861,1614
19.6889,1620
19.6917,1626
19.6944,1626
19.6972,1627
19.7000,1623
19.7028,1621
19.7056,1617
19.7083,1613
19.7111,1611
19.7139,1617
19.7167,1615
19.7194,1623
19.7222,1633
19.7250,1634
19.7278,1631
19.7306,1629
19.7333,1631
19.7361,1632
19.7389,1635
19.7417,1640
19.7444,1634
19.7472,1624
19.7500,1619
19.7528,1626
19.7556,1623
19.7583,1628
19.7611,1642
19.7639,1649
19.7667,1645
19.7694,1652
19.7722,1651
19.7750,1649
19.7778,1648
19.7806,1652
19.7833,1652
19.7861,1649
19.7889,1645
19.7917,1644
19.7944,1658
19.7972,1657
19.8000,1657
19.8028,1661
19.8056,1650
19.8083,1651
19.8111,1650
19.8139,1652
19.8167,1647
19.8194,1648
19.8222,1658
19.8250,1654
19.8278,1663
19.8306,1670
19.8333,1669
19.8361,1665
19.8389,1667
19.8417,1669
19.8444,1660
19.8472,1655
19.8500,1648
19.8528,1634
19.8556,1636
19.8583,1651
19.8611,1656
19.8639,1657
19.8667,1658
19.8694,1657
19.8722,1668
19.8750,1664
19.8778,1666
19.8806,1671
19.8833,1671
19.8861,1671
19.8889,1671
19.8917,1680
19.8944,1684
19.8972,1672
19.9000,1687
19.9028,1679
19.9056,1681
19.9083,1677
19.9111,1686
19.9139,1678
19.9167,1683
19.9194,1687
19.9222,1690
19.9250,1703
19.9278,1708
19.9306,1708
19.9333,1704
19.9361,1713
19.9389,1738
19.9417,1766
19.9444,1786
19.9472,1802
19.9500,1814
19.9528,1830
19.9556,1845
19.9583,1860
19.9611,1868
19.9639,1880
19.9667,1894
19.9694,1913
19.9722,1935
19.9750,1975
19.9778,1988
19.9806,1989
19.9833,1980
19.9861,1968
19.9889,1952
19.9917,1932
19.9944,1889
19.9972,1836
20.0000,1780
20.0028,1742
20.0056,1712
20.0083,1687
20.0111,1675
20.0139,1649
20.0167,1628
20.0194,1614
20.0222,1605
20.0250,1604
20.0278,1604
20.0306,1595
20.0333,1591
20.0361,1589
20.0389,1591
20.0417,1587
20.0444,1587
20.0472,1575
20.0500,1575
20.0528,1579
20.0556,1583
20.0583,1592
20.0611,1588
20.0639,1602
20.0667,1608
20.0694,1629
20.0722,1661
20.0750,1688
20.0778,1704
20.0806,1687
20.0833,1650
20.0861,1631
20.0889,1634
20.0917,1694
20.0944,1862
20.0972,2135
20.1000,2470
20.1028,2702
20.1056,2780
20.1083,2726
20.1111,2633
20.1139,2551
20.1167,2459
20.1194,2194
20.1222,1758
20.1250,1349
20.1278,1107
20.1306,1009
20.1333,975
20.1361,967
20.1389,980
20.1417,1008
20.1444,1039
20.1472,1083
20.1500,1135
20.1528,1184
20.1556,1235
20.1583,1319
20.1611,1407
20.1639,1491
20.1667,1587
20.1694,1661
20.1722,1709
20.1750,1732
20.1778,1734
20.1806,1748
20.1833,1759
20.1861,1789
20.1889,1809
20.1917,1828
20.1944,1825
20.1972,1829
20.2000,1816
20.2028,1840
20.2056,1849
20.2083,1858
20.2111,1873
20.2139,1871
20.2167,1863
20.2194,1867
20.2222,1884
20.2250,1895
20.2278,1897
20.2306,1901
20.2333,1898
20.2361,1881
20.2389,1880
20.2417,1897
20.2444,1922
20.2472,1941
20.2500,1956
20.2528,1965
20.2556,1967
20.2583,1964
20.2611,1976
20.2639,2003
20.2667,2024
20.2694,2045
20.2722,2051
20.2750,2055
20.2778,2059
20.2806,2066
20.2833,2088
20.2861,2114
20.2889,2135
20.2917,2162
20.2944,2162
20.2972,2165
20.3000,2177
20.3028,2194
20.3056,2220
20.3083,2235
20.3111,2243
20.3139,2255
20.3167,2256
20.3194,1894
20.3222,1903
20.3250,1885
20.3278,1854
20.3306,1828
20.3333,1796
20.3361,1768
20.3389,1745
20.3417,1727
20.3444,1722
20.3472,1700
20.3500,1682
20.3528,1656
20.3556,1627
20.3583,1607
20.3611,1608
20.3639,1620
20.3667,1622
20.3694,1614
20.3722,1599
20.3750,1595
20.3778,1586
20.3806,1593
20.3833,1599
20.3861,1603
20.3889,1600
20.3917,1591
20.3944,1589
20.3972,1586
20.4000,1590
20.4028,1596
20.4056,1610
20.4083,1615
20.4111,1606
20.4139,1595
20.4167,1587
20.4194,1584
20.4222,1596
20.4250,1594
20.4278,1607
20.4306,1604
20.4333,1591
20.4361,1600
20.4389,1605
20.4417,1613
20.4444,1617
20.4472,1619
20.4500,1622
20.4528,1622
20.4556,1623
20.4583,1622
20.4611,1623
20.4639,1613
20.4667,1613
20.4694,1611
20.4722,1614
20.4750,1617
20.4778,1618
20.4806,1632
20.4833,1638
20.4861,1643
20.4889,1647
20.4917,1641
20.4944,1644
20.4972,1641
20.5000,1641
20.5028,1648
20.5056,1646
20.5083,1661
20.5111,1664
20.5139,1659
20.5167,1653
20.5194,1651
20.5222,1657
20.5250,1657
20.5278,1641
20.5306,1640
20.5333,1632
20.5361,1636
20.5389,1638
20.5417,1645
20.5444,1652
20.5472,1644
20.5500,1648
20.5528,1630
20.5556,1625
20.5583,1615
20.5611,1612
20.5639,1618
20.5667,1630
20.5694,1620
20.5722,1624
20.5750,1613
20.5778,1611
20.5806,1617
20.5833,1612
20.5861,1615
20.5889,1612
20.5917,1614
20.5944,1607
20.5972,1604
20.6000,1607
20.6028,1607
20.6056,1601
20.6083,1607
20.6111,1608
20.6139,1608
20.6167,1602
20.6194,1600
20.6222,1611
20.6250,1605
20.6278,1602
20.6306,1610
20.6333,1592
20.6361,1589
20.6389,1585
20.6417,1593
20.6444,1604
20.6472,1612
20.6500,1610
20.6528,1612
20.6556,1600
20.6583,1597
20.6611,1594
20.6639,1608
20.6667,1617
20.6694,1608
20.6722,1620
20.6750,1614
20.6778,1620
20.6806,1617
20.6833,1614
20.6861,1609
20.6889,1613
20.6917,1610
20.6944,1615
20.6972,1615
20.7000,1612
20.7028,1620
20.7056,1628
20.7083,1625
20.7111,1635
20.7139,1639
20.7167,1638
20.7194,1642
20.7222,1643
20.7250,1649
20.7278,1640
20.7306,1645
20.7333,1640
20.7361,1638
20.7389,1636
20.7417,1633
20.7444,1644
20.7472,1656
20.7500,1652
20.7528,1646
20.7556,1644
20.7583,1651
20.7611,1646
20.7639,1646
20.7667,1656
20.7694,1658
20.7722,1660
20.7750,1656
20.7778,1659
20.7806,1658
20.7833,1665
20.7861,1664
20.7889,1666
20.7917,1664
20.7944,1669
20.7972,1662
20.8000,1658
20.8028,1662
20.8056,1664
20.8083,1672
20.8111,1680
20.8139,1673
20.8167,1675
20.8194,1671
20.8222,1675
20.8250,1677
20.8278,1680
20.8306,1682
20.8333,1673
20.8361,1680
20.8389,1679
20.8417,1681
20.8444,1696
20.8472,1697
20.8500,1699
20.8528,1695
20.8556,1695
20.8583,1692
20.8611,1687
20.8639,1689
20.8667,1694
20.8694,1692
20.8722,1690
20.8750,1686
20.8778,1689
20.8806,1698
20.8833,1691
20.8861,1697
20.8889,1684
20.8917,1687
20.8944,1686
20.8972,1686
20.9000,1670
20.9028,1684
20.9056,1687
20.9083,1687
20.9111,1684
20.9139,1692
20.9167,1686
20.9194,1681
20.9222,1684
20.9250,1676
20.9278,1680
20.9306,1691
20.9333,1691
20.9361,1678
20.9389,1678
20.9417,1690
20.9444,1715
20.9472,1750
20.9500,1773
20.9528,1800
20.9556,1812
20.9583,1822
20.9611,1834
20.9639,1844
20.9667,1853
20.9694,1857
20.9722,1869
20.9750,1894
20.9778,1932
20.9806,1953
20.9833,1986
20.9861,1992
20.9889,1985
20.9917,1957
20.9944,1950
20.9972,1935
21.0000,1898
21.0028,1859
21.0056,1819
21.0083,1758
21.0111,1721
21.0139,1693
21.0167,1666
21.0194,1647
21.0222,1631
21.0250,1629
21.0278,1615
21.0306,1614
21.0333,1602
21.0361,1599
21.0389,1603
21.0417,1597
21.0444,1589
21.0472,1580
21.0500,1578
21.0528,1572
21.0556,1566
21.0583,1570
21.0611,1567
21.0639,1561
21.0667,1571
21.0694,1574
21.0722,1587
21.0750,1603
21.0778,1628
21.0806,1673
21.0833,1698
21.0861,1693
21.0889,1664
21.0917,1614
21.0944,1594
21.0972,1617
21.1000,1736
21.1028,1949
21.1056,2265
21.1083,2592
21.1111,2725
21.1139,2709
21.1167,2613
21.1194,2515
21.1222,2432
21.1250,2256
21.1278,1878
21.1306,1451
21.1333,1152
21.1361,1004
21.1389,955
21.1417,942
21.1444,943
21.1472,957
21.1500,982
21.1528,1024
21.1556,1081
21.1583,1135
21.1611,1187
21.1639,1248
21.1667,1344
21.1694,1433
21.1722,1535
21.1750,1608
21.1778,1669
21.1806,1714
21.1833,1732
21.1861,1736
21.1889,1748
21.1917,1763
21.1944,1787
21.1972,1803
21.2000,1811
21.2028,1804
21.2056,1815
21.2083,1823
21.2111,1832
21.2139,1856
21.2167,1871
21.2194,1873
21.2222,1854
21.2250,1843
21.2278,1834
21.2306,1836
21.2333,1857
21.2361,1877
21.2389,1879
21.2417,1882
21.2444,1871
21.2472,1880
21.2500,1890
21.2528,1923
21.2556,1945
21.2583,1951
21.2611,1953
21.2639,1942
21.2667,1945
21.2694,1960
21.2722,1986
21.2750,2013
21.2778,2025
21.2806,2035
21.2833,2037
21.2861,2029
21.2889,2040
21.2917,2054
21.2944,2077
21.2972,2098
21.3000,2116
21.3028,2118
21.3056,2133
21.3083,2160
21.3111,2186
21.3139,2206
21.3167,2211
21.3194,2223
21.3222,2232
21.3250,1888
21.3278,1893
21.3306,1869
21.3333,1843
21.3361,1806
21.3389,1777
21.3417,1747
21.3444,1720
21.3472,1697
21.3500,1680
21.3528,1665
21.3556,1646
21.3583,1623
21.3611,1603
21.3639,1596
21.3667,1580
21.3694,1583
21.3722,1574
21.3750,1563
21.3778,1541
21.3806,1521
21.3833,1528
21.3861,1537
21.3889,1542
21.3917,1531
21.3944,1539
21.3972,1549
21.4000,1543
21.4028,1551
21.4056,1550
21.4083,1556
21.4111,1561
21.4139,1569
21.4167,1575
21.4194,1579
21.4222,1580
21.4250,1577
21.4278,1584
21.4306,1588
21.4333,1588
21.4361,1592
21.4389,1592
21.4417,1601
21.4444,1601
21.4472,1617
21.4500,1616
21.4528,1625
21.4556,1621
21.4583,1619
21.4611,1614
21.4639,1619
21.4667,1636
21.4694,1641
21.4722,1634
21.4750,1637
21.4778,1640
21.4806,1636
21.4833,1632
21.4861,1639
21.4889,1637
21.4917,1648
21.4944,1640
21.4972,1641
21.5000,1632
21.5028,1637
21.5056,1638
21.5083,1644
21.5111,1642
21.5139,1642
21.5167,1642
21.5194,1641
21.5222,1637
21.5250,1634
21.5278,1642
21.5306,1628
21.5333,1627
21.5361,1621
21.5389,1614
21.5417,1614
21.5444,1615
21.5472,1619
21.5500,1623
21.5528,1624
21.5556,1616
21.5583,1615
21.5611,1604
21.5639,1604
21.5667,1602
21.5694,1606
21.5722,1597
21.5750,1593
21.5778,1588
21.5806,1588
21.5833,1602
21.5861,1595
21.5889,1599
21.5917,1593
21.5944,1597
21.5972,1586
21.6000,1592
21.6028,1585
21.6056,1593
21.6083,1588
21.6111,1587
21.6139,1595
21.6167,1590
21.6194,1600
21.6222,1589
21.6250,1582
21.6278,1590
21.6306,1591
21.6333,1601
21.6361,1600
21.6389,1591
21.6417,1584
21.6444,1586
21.6472,1597
21.6500,1597
21.6528,1606
21.6556,1607
21.6583,1602
21.6611,1606
21.6639,1597
21.6667,1605
21.6694,1599
21.6722,1601
21.6750,1609
21.6778,1610
21.6806,1600
21.6833,1606
21.6861,1605
21.6889,1612
21.6917,1613
21.6944,1599
21.6972,1604
21.7000,1592
21.7028,1611
21.7056,1604
21.7083,1618
21.7111,1629
21.7139,1626
21.7167,1628
21.7194,1627
21.7222,1618
21.7250,1622
21.7278,1626
21.7306,1632
21.7333,1637
21.7361,1628
21.7389,1620
21.7417,1620
21.7444,1617
21.7472,1618
21.7500,1630
21.7528,1648
21.7556,1643
21.7583,1646
21.7611,1642
21.7639,1638
21.7667,1640
21.7694,1644
21.7722,1642
21.7750,1639
21.7778,1647
21.7806,1659
21.7833,1653
21.7861,1650
21.7889,1644
21.7917,1655
21.7944,1659
21.7972,1657
21.8000,1659
21.8028,1653
21.8056,1651
21.8083,1664
21.8111,1681
21.8139,1679
21.8167,1669
21.8194,1666
21.8222,1652
21.8250,1655
21.8278,1651
21.8306,1664
21.8333,1677
21.8361,1674
21.8389,1691
21.8417,1688
21.8444,1686
21.8472,1678
21.8500,1682
21.8528,1681
21.8556,1691
21.8583,1679
21.8611,1686
21.8639,1693
21.8667,1696
21.8694,1687
21.8722,1687
21.8750,1680
21.8778,1683
21.8806,1683
21.8833,1685
21.8861,1692
21.8889,1695
21.8917,1701
21.8944,1706
21.8972,1705
21.9000,1689
21.9028,1688
21.9056,1685
21.9083,1676
21.9111,1686
21.9139,1695
21.9167,1703
21.9194,1702
21.9222,1692
21.9250,1696
21.9278,1702
21.9306,1696
21.9333,1691
21.9361,1691
21.9389,1699
21.9417,1728
21.9444,1760
21.9472,1793
21.9500,1811
21.9528,1825
21.9556,1835
21.9583,1858
21.9611,1869
21.9639,1866
21.9667,1875
21.9694,1888
21.9722,1919
21.9750,1948
21.9778,1980
21.9806,1996
21.9833,2019
21.9861,2019
21.9889,2001
21.9917,1987
21.9944,1960
21.9972,1914
22.0000,1863
22.0028,1806
22.0056,1768
22.0083,1717
22.0111,1693
22.0139,1673
22.0167,1669
22.0194,1654
22.0222,1650
22.0250,1638
22.0278,1629
22.0306,1616
22.0333,1607
22.0361,1600
22.0389,1592
22.0417,1594
22.0444,1597
22.0472,1602
22.0500,1597
22.0528,1596
22.0556,1585
22.0583,1590
22.0611,1588
22.0639,1594
22.0667,1590
22.0694,1599
22.0722,1612
22.0750,1631
22.0778,1666
22.0806,1680
22.0833,1656
22.0861,1623
22.0889,1587
22.0917,1571
22.0944,1617
22.0972,1764
22.1000,2014
22.1028,2355
22.1056,2637
22.1083,2728
22.1111,2676
22.1139,2582
22.1167,2474
22.1194,2379
22.1222,2156
22.1250,1771
22.1278,1369
22.1306,1124
22.1333,1007
22.1361,970
22.1389,945
22.1417,936
22.1444,949
22.1472,983
22.1500,1030
22.1528,1082
22.1556,1130
22.1583,1192
22.1611,1258
22.1639,1340
22.1667,1440
22.1694,1538
22.1722,1614
22.1750,1662
22.1778,1698
22.1806,1714
22.1833,1722
22.1861,1741
22.1889,1759
22.1917,1777
22.1944,1784
22.1972,1784
22.2000,1791
22.2028,1790
22.2056,1806
22.2083,1828
22.2111,1849
22.2139,1860
22.2167,1867
22.2194,1859
22.2222,1862
22.2250,1856
22.2278,1872
22.2306,1885
22.2333,1898
22.2361,1891
22.2389,1889
22.2417,1895
22.2444,1905
22.2472,1920
22.2500,1939
22.2528,1964
22.2556,1972
22.2583,1968
22.2611,1968
22.2639,1969
22.2667,1983
22.2694,1998
22.2722,2014
22.2750,2013
22.2778,2024
22.2806,2034
22.2833,2043
22.2861,2068
22.2889,2091
22.2917,2105
22.2944,2117
22.2972,2118
22.3000,2123
22.3028,2128
22.3056,2159
22.3083,2175
22.3111,2197
22.3139,2220
22.3167,2227
22.3194,2222
22.3222,1903
22.3250,1899
22.3278,1872
22.3306,1833
22.3333,1790
22.3361,1753
22.3389,1723
22.3417,1709
22.3444,1696
22.3472,1692
22.3500,1665
22.3528,1650
22.3556,1630
22.3583,1610
22.3611,1605
22.3639,1587
22.3667,1590
22.3694,1583
22.3722,1583
22.3750,1574
22.3778,1570
22.3806,1568
22.3833,1571
22.3861,1578
22.3889,1570
22.3917,1578
22.3944,1564
22.3972,1559
22.4000,1554
22.4028,1558
22.4056,1556
22.4083,1575
22.4111,1578
22.4139,1581
22.4167,1571
22.4194,1573
22.4222,1577
22.4250,1585
22.4278,1582
22.4306,1584
22.4333,1581
22.4361,1587
22.4389,1581
22.4417,1589
22.4444,1603
22.4472,1619
22.4500,1621
22.4528,1615
22.4556,1615
22.4583,1611
22.4611,1606
22.4639,1617
22.4667,1623
22.4694,1629
22.4722,1633
22.4750,1631
22.4778,1629
22.4806,1623
22.4833,1624
22.4861,1630
22.4889,1623
22.4917,1633
22.4944,1637
22.4972,1635
22.5000,1643
22.5028,1641
22.5056,1649
22.5083,1654
22.5111,1655
22.5139,1661
22.5167,1650
22.5194,1639
22.5222,1635
22.5250,1646
22.5278,1648
22.5306,1651
22.5333,1646
22.5361,1632
22.5389,1624
22.5417,1628
22.5444,1620
22.5472,1632
22.5500,1637
22.5528,1638
22.5556,1629
22.5583,1614
22.5611,1612
22.5639,1600
22.5667,1613
22.5694,1612
22.5722,1620
22.5750,1628
22.5778,1614
22.5806,1600
22.5833,1595
22.5861,1601
22.5889,1608
22.5917,1604
22.5944,1601
22.5972,1601
22.6000,1608
22.6028,1608
22.6056,1615
22.6083,1614
22.6111,1623
22.6139,1621
22.6167,1607
22.6194,1608
22.6222,1608
22.6250,1602
22.6278,1607
22.6306,1614
22.6333,1611
22.6361,1608
22.6389,1607
22.6417,1610
22.6444,1612
22.6472,1616
22.6500,1605
22.6528,1610
22.6556,1613
22.6583,1606
22.6611,1601
22.6639,1605
22.6667,1609
22.6694,1614
22.6722,1623
22.6750,1623
22.6778,1624
22.6806,1619
22.6833,1620
22.6861,1618
22.6889,1621
22.6917,1630
22.6944,1626
22.6972,1626
22.7000,1621
22.7028,1622
22.7056,1619
22.7083,1625
22.7111,1638
22.7139,1627
22.7167,1631
22.7194,1636
22.7222,1634
22.7250,1640
22.7278,1651
22.7306,1646
22.7333,1644
22.7361,1640
22.7389,1639
22.7417,1649
22.7444,1652
22.7472,1651
22.7500,1649
22.7528,1649
22.7556,1633
22.7583,1633
22.7611,1634
22.7639,1642
22.7667,1650
22.7694,1651
22.7722,1659
22.7750,1658
22.7778,1673
22.7806,1676
22.7833,1664
22.7861,1666
22.7889,1666
22.7917,1669
22.7944,1670
22.7972,1666
22.8000,1661
22.8028,1667
22.8056,1671
22.8083,1672
22.8111,1679
22.8139,1676
22.8167,1673
22.8194,1679
22.8222,1678
22.8250,1681
22.8278,1676
22.8306,1680
22.8333,1693
22.8361,1686
22.8389,1705
22.8417,1723
22.8444,1753
22.8472,1779
22.8500,1796
22.8528,1813
22.8556,1826
22.8583,1834
22.8611,1842
22.8639,1847
22.8667,1865
22.8694,1885
22.8722,1912
22.8750,1948
22.8778,1976
22.8806,1999
22.8833,2023
22.8861,2021
22.8889,2020
22.8917,2000
22.8944,1979
22.8972,1934
22.9000,1875
22.9028,1822
22.9056,1757
22.9083,1702
22.9111,1666
22.9139,1645
22.9167,1635
22.9194,1624
22.9222,1609
22.9250,1598
22.9278,1592
22.9306,1585
22.9333,1574
22.9361,1568
22.9389,1566
22.9417,1563
22.9444,1561
22.9472,1556
22.9500,1556
22.9528,1554
22.9556,1550
22.9583,1550
22.9611,1553
22.9639,1560
22.9667,1560
22.9694,1573
22.9722,1598
22.9750,1617
22.9778,1647
22.9806,1650
22.9833,1629
22.9861,1585
22.9889,1554
22.9917,1540
22.9944,1608
22.9972,1777
23.0000,2042
23.0028,2403
23.0056,2669
23.0083,2734
23.0111,2692
23.0139,2573
23.0167,2459
23.0194,2340
23.0222,2071
23.0250,1663
23.0278,1308
23.0306,1106
23.0333,1020
23.0361,976
23.0389,946
23.0417,932
23.0444,953
23.0472,987
23.0500,1030
23.0528,1092
23.0556,1139
23.0583,1193
23.0611,1259
23.0639,1363
23.0667,1457
23.0694,1554
23.0722,1629
23.0750,1681
23.0778,1714
23.0806,1731
23.0833,1741
23.0861,1755
23.0889,1768
23.0917,1795
23.0944,1799
23.0972,1796
23.1000,1784
23.1028,1803
23.1056,1820
23.1083,1839
23.1111,1860
23.1139,1860
23.1167,1853
23.1194,1849
23.1222,1852
23.1250,1858
23.1278,1864
23.1306,1888
23.1333,1889
23.1361,1874
23.1389,1867
23.1417,1877
23.1444,1889
23.1472,1919
23.1500,1932
23.1528,1943
23.1556,1952
23.1583,1956
23.1611,1947
23.1639,1953
23.1667,1972
23.1694,1988
23.1722,2004
23.1750,2020
23.1778,2032
23.1806,2039
23.1833,2051
23.1861,2068
23.1889,2092
23.1917,2105
23.1944,2118
23.1972,2132
23.2000,2139
23.2028,2159
23.2056,2168
23.2083,2184
23.2111,2208
23.2139,2227
23.2167,2225
23.2194,2222
23.2222,1891
23.2250,1898
23.2278,1873
23.2306,1840
23.2333,1805
23.2361,1769
23.2389,1739
23.2417,1719
23.2444,1711
23.2472,1698
23.2500,1692
23.2528,1670
23.2556,1645
23.2583,1632
23.2611,1612
23.2639,1609
23.2667,1607
23.2694,1614
23.2722,1601
23.2750,1598
23.2778,1587
23.2806,1587
23.2833,1589
23.2861,1595
23.2889,1598
23.2917,1591
23.2944,1586
23.2972,1580
23.3000,1590
23.3028,1599
23.3056,1609
23.3083,1611
23.3111,1602
23.3139,1604
23.3167,1598
23.3194,1600
23.3222,1608
23.3250,1613
23.3278,1617
23.3306,1623
23.3333,1624
23.3361,1632
23.3389,1630
23.3417,1642
23.3444,1640
23.3472,1647
23.3500,1655
23.3528,1655
23.3556,1645
23.3583,1640
23.3611,1640
23.3639,1636
23.3667,1652
23.3694,1656
23.3722,1660
23.3750,1646
23.3778,1647
23.3806,1657
23.3833,1661
23.3861,1657
23.3889,1668
23.3917,1670
23.3944,1655
23.3972,1652
23.4000,1648
23.4028,1654
23.4056,1653
23.4083,1657
23.4111,1660
23.4139,1651
23.4167,1647
23.4194,1634
23.4222,1630
23.4250,1637
23.4278,1638
23.4306,1637
23.4333,1634
23.4361,1629
23.4389,1628
23.4417,1631
23.4444,1635
23.4472,1630
23.4500,1629
23.4528,1630
23.4556,1629
23.4583,1622
23.4611,1617
23.4639,1615
23.4667,1614
23.4694,1624
23.4722,1622
23.4750,1614
23.4778,1618
23.4806,1611
23.4833,1618
23.4861,1623
23.4889,1620
23.4917,1628
23.4944,1625
23.4972,1625
23.5000,1612
23.5028,1602
23.5056,1602
23.5083,1614
23.5111,1624
23.5139,1625
23.5167,1621
23.5194,1617
23.5222,1619
23.5250,1608
23.5278,1610
23.5306,1608
23.5333,1599
23.5361,1593
23.5389,1611
23.5417,1622
23.5444,1627
23.5472,1628
23.5500,1622
23.5528,1622
23.5556,1620
23.5583,1618
23.5611,1612
23.5639,1619
23.5667,1621
23.5694,1612
23.5722,1627
23.5750,1625
23.5778,1629
23.5806,1624
23.5833,1636
23.5861,1634
23.5889,1635
23.5917,1628
23.5944,1614
23.5972,1613
23.6000,1619
23.6028,1624
23.6056,1628
23.6083,1634
23.6111,1640
23.6139,1639
23.6167,1637
23.6194,1629
23.6222,1639
23.6250,1633
23.6278,1639
23.6306,1645
23.6333,1642
23.6361,1638
23.6389,1646
23.6417,1646
23.6444,1651
23.6472,1658
23.6500,1669
23.6528,1667
23.6556,1664
23.6583,1656
23.6611,1655
23.6639,1654
23.6667,1659
23.6694,1664
23.6722,1656
23.6750,1666
23.6778,1663
23.6806,1664
23.6833,1672
23.6861,1670
23.6889,1676
23.6917,1661
23.6944,1659
23.6972,1660
23.7000,1662
23.7028,1676
23.7056,1698
23.7083,1723
23.7111,1755
23.7139,1780
23.7167,1803
23.7194,1812
23.7222,1821
23.7250,1831
23.7278,1835
23.7306,1843
23.7333,1864
23.7361,1879
23.7389,1910
23.7417,1947
23.7444,1995
23.7472,2021
23.7500,2033
23.7528,2029
23.7556,2009
23.7583,1990
23.7611,1949
23.7639,1909
23.7667,1865
23.7694,1800
23.7722,1742
23.7750,1690
23.7778,1655
23.7806,1633
23.7833,1618
23.7861,1614
23.7889,1613
23.7917,1603
23.7944,1588
23.7972,1581
23.8000,1584
23.8028,1569
23.8056,1564
23.8083,1565
23.8111,1556
23.8139,1554
23.8167,1553
23.8194,1556
23.8222,1562
23.8250,1560
23.8278,1554
23.8306,1556
23.8333,1564
23.8361,1576
23.8389,1594
23.8417,1627
23.8444,1643
23.8472,1647
23.8500,1618
23.8528,1579
23.8556,1564
23.8583,1586
23.8611,1673
23.8639,1863
23.8667,2156
23.8694,2502
23.8722,2718
23.8750,2744
23.8778,2663
23.8806,2534
23.8833,2429
23.8861,2273
23.8889,1945
23.8917,1547
23.8944,1238
23.8972,1088
23.9000,1021
23.9028,979
23.9056,960
23.9083,948
23.9111,961
23.9139,987
23.9167,1038
23.9194,1097
23.9222,1164
23.9250,1229
23.9278,1307
23.9306,1395
23.9333,1476
23.9361,1565
23.9389,1637
23.9417,1689
23.9444,1718
23.9472,1742
23.9500,1759
23.9528,1769
23.9556,1790
23.9583,1800
23.9611,1805
23.9639,1795
23.9667,1804
23.9694,1809
23.9722,1827
23.9750,1850
23.9778,1874
23.9806,1883
23.9833,1888
23.9861,1875
23.9889,1869
23.9917,1867
23.9944,1880
23.9972,1890
24.0000,1895
24.0028,1883
24.0056,1884
24.0083,1895
24.0111,1913
24.0139,1938
24.0167,1960
24.0194,1958
24.0222,1968
24.0250,1972
24.0278,1957
24.0306,1966
24.0333,1995
24.0361,2021
24.0389,2036
24.0417,2041
24.0444,2046
24.0472,2051
24.0500,2067
24.0528,2073
24.0556,2094
24.0583,2107
24.0611,2113
24.0639,2190
24.0667,2187
24.0694,2155
24.0722,2115
24.0750,2097
24.0778,2060
24.0806,2021
24.0833,1986
24.0861,1934
24.0889,1905
24.0917,1867
24.0944,1838
24.0972,1802
24.1000,1771
24.1028,1735
24.1056,1701
24.1083,1684
24.1111,1672
24.1139,1653
24.1167,1651
24.1194,1637
24.1222,1625
24.1250,1611
24.1278,1601
24.1306,1602
24.1333,1602
24.1361,1591
24.1389,1594
24.1417,1594
24.1444,1573
24.1472,1572
24.1500,1583
24.1528,1597
24.1556,1607
24.1583,1624
24.1611,1617
24.1639,1610
24.1667,1611
24.1694,1609
24.1722,1614
24.1750,1618
24.1778,1626
24.1806,1623
24.1833,1628
24.1861,1628
24.1889,1629
24.1917,1641
24.1944,1663
24.1972,1665
24.2000,1675
24.2028,1682
24.2056,1665
24.2083,1659
24.2111,1662
24.2139,1664
24.2167,1680
24.2194,1678
24.2222,1678
24.2250,1676
24.2278,1673
24.2306,1672
24.2333,1683
24.2361,1683
24.2389,1686
24.2417,1680
24.2444,1680
24.2472,1673
24.2500,1679
24.2528,1684
24.2556,1687
24.2583,1690
24.2611,1692
24.2639,1682
24.2667,1678
24.2694,1670
24.2722,1670
24.2750,1679
24.2778,1679
24.2806,1671
24.2833,1668
24.2861,1664
24.2889,1660
24.2917,1665
24.2944,1662
24.2972,1661
24.3000,1655
24.3028,1650
24.3056,1644
24.3083,1644
24.3111,1638
24.3139,1648
24.3167,1645
24.3194,1656
24.3222,1657
24.3250,1656
24.3278,1650
24.3306,1641
24.3333,1642
24.3361,1645
24.3389,1644
24.3417,1647
24.3444,1650
24.3472,1644
24.3500,1636
24.3528,1643
24.3556,1651
24.3583,1653
24.3611,1647
24.3639,1650
24.3667,1646
24.3694,1648
24.3722,1643
24.3750,1650
24.3778,1640
24.3806,1630
24.3833,1634
24.3861,1629
24.3889,1638
24.3917,1634
24.3944,1647
24.3972,1642
24.4000,1650
24.4028,1652
24.4056,1656
24.4083,1646
24.4111,1647
24.4139,1651
24.4167,1658
24.4194,1656
24.4222,1660
24.4250,1670
24.4278,1654
24.4306,1671
24.4333,1669
24.4361,1668
24.4389,1680
24.4417,1675
24.4444,1671
24.4472,1684
24.4500,1679
24.4528,1679
24.4556,1682
24.4583,1690
24.4611,1685
24.4639,1682
24.4667,1673
24.4694,1674
24.4722,1683
24.4750,1689
24.4778,1691
24.4806,1693
24.4833,1695
24.4861,1699
24.4889,1701
24.4917,1696
24.4944,1712
24.4972,1704
24.5000,1707
24.5028,1697
24.5056,1695
24.5083,1690
24.5111,1684
24.5139,1687
24.5167,1688
24.5194,1699
24.5222,1711
24.5250,1711
24.5278,1715
24.5306,1726
24.5333,1733
24.5361,1750
24.5389,1784
24.5417,1820
24.5444,1842
24.5472,1845
24.5500,1864
24.5528,1876
24.5556,1888
24.5583,1903
24.5611,1916
24.5639,1927
24.5667,1948
24.5694,1977
24.5722,2015
24.5750,2044
24.5778,2072
24.5806,2072
24.5833,2062
24.5861,2052
24.5889,2033
24.5917,2005
24.5944,1955
24.5972,1901
24.6000,1827
24.6028,1771
24.6056,1727
24.6083,1697
24.6111,1683
24.6139,1683
24.6167,1683
24.6194,1672
24.6222,1661
24.6250,1650
24.6278,1643
24.6306,1635
24.6333,1633
24.6361,1628
24.6389,1624
24.6417,1618
24.6444,1625
24.6472,1616
24.6500,1619
24.6528,1620
24.6556,1633
24.6583,1635
24.6611,1637
24.6639,1629
24.6667,1638
24.6694,1649
24.6722,1686
24.6750,1696
24.6778,1694
24.6806,1662
24.6833,1631
24.6861,1633
24.6889,1674
24.6917,1795
24.6944,2014
24.6972,2342
24.7000,2656
24.7028,2787
24.7056,2767
24.7083,2670
24.7111,2560
24.7139,2462
24.7167,2267
24.7194,1897
24.7222,1526
24.7250,1291
24.7278,1171
24.7306,1120
24.7333,1069
24.7361,1029
24.7389,1005
24.7417,1021
24.7444,1059
24.7472,1121
24.7500,1193
24.7528,1262
24.7556,1331
24.7583,1409
24.7611,1504
24.7639,1601
24.7667,1681
24.7694,1742
24.7722,1765
24.7750,1785
24.7778,1801
24.7806,1811
24.7833,1830
24.7861,1857
24.7889,1870
24.7917,1874
24.7944,1880
24.7972,1889
24.8000,1900
24.8028,1918
24.8056,1926
24.8083,1942
24.8111,1931
24.8139,1930
24.8167,1928
24.8194,1932
24.8222,1953
24.8250,1961
24.8278,1977
24.8306,1975
24.8333,1963
24.8361,1962
24.8389,1976
24.8417,1989
24.8444,2022
24.8472,2032
24.8500,2037
24.8528,2028
24.8556,2034
24.8583,2023
24.8611,2030
24.8639,2055
24.8667,2071
24.8694,2086
24.8722,2085
24.8750,2079
24.8778,2088
24.8806,2104
24.8833,2121
24.8861,2144
24.8889,2153
24.8917,2169
24.8944,2179
24.8972,2187
24.9000,2203
24.9028,2218
24.9056,2235
24.9083,2241
24.9111,2246
24.9139,2234
24.9167,1922
24.9194,1926
24.9222,1903
24.9250,1867
24.9278,1832
24.9306,1801
24.9333,1764
24.9361,1741
24.9389,1732
24.9417,1728
24.9444,1717
24.9472,1691
24.9500,1667
24.9528,1652
24.9556,1646
24.9583,1645
24.9611,1636
24.9639,1637
24.9667,1630
24.9694,1621
24.9722,1613
24.9750,1613
24.9778,1613
24.9806,1624
24.9833,1623
24.9861,1618
24.9889,1605
24.9917,1597
24.9944,1597
24.9972,1593
25.0000,1598
25.0028,1603
25.0056,1616
25.0083,1618
25.0111,1615
25.0139,1626
25.0167,1614
25.0194,1628
25.0222,1620
25.0250,1623
25.0278,1618
25.0306,1614
25.0333,1623
25.0361,1624
25.0389,1633
25.0417,1651
25.0444,1659
25.0472,1656
25.0500,1649
25.0528,1634
25.0556,1627
25.0583,1630
25.0611,1633
25.0639,1641
25.0667,1641
25.0694,1641
25.0722,1644
25.0750,1643
25.0778,1642
25.0806,1640
25.0833,1631
25.0861,1632
25.0889,1614
25.0917,1613
25.0944,1618
25.0972,1617
25.1000,1625
25.1028,1618
25.1056,1614
25.1083,1611
25.1111,1607
25.1139,1612
25.1167,1612
25.1194,1609
25.1222,1610
25.1250,1607
25.1278,1610
25.1306,1605
25.1333,1600
25.1361,1592
25.1389,1593
25.1417,1587
25.1444,1601
25.1472,1596
25.1500,1588
25.1528,1578
25.1556,1580
25.1583,1576
25.1611,1578
25.1639,1577
25.1667,1571
25.1694,1574
25.1722,1568
25.1750,1583
25.1778,1582
25.1806,1582
25.1833,1586
25.1861,1582
25.1889,1567
25.1917,1568
25.1944,1554
25.1972,1560
25.2000,1565
25.2028,1572
25.2056,1568
25.2083,1576
25.2111,1569
25.2139,1558
25.2167,1570
25.2194,1570
25.2222,1566
25.2250,1565
25.2278,1568
25.2306,1564
25.2333,1572
25.2361,1579
25.2389,1575
25.2417,1574
25.2444,1582
25.2472,1576
25.2500,1566
25.2528,1564
25.2556,1553
25.2583,1562
25.2611,1568
25.2639,1567
25.2667,1566
25.2694,1562
25.2722,1564
25.2750,1571
25.2778,1579
25.2806,1584
25.2833,1592
25.2861,1582
25.2889,1579
25.2917,1572
25.2944,1566
25.2972,1563
25.3000,1574
25.3028,1585
25.3056,1585
25.3083,1593
25.3111,1592
25.3139,1576
25.3167,1576
25.3194,1572
25.3222,1586
25.3250,1606
25.3278,1633
25.3306,1647
25.3333,1666
25.3361,1683
25.3389,1698
25.3417,1709
25.3444,1708
25.3472,1709
25.3500,1730
25.3528,1750
25.3556,1779
25.3583,1816
25.3611,1852
25.3639,1885
25.3667,1894
25.3694,1894
25.3722,1885
25.3750,1881
25.3778,1873
25.3806,1827
25.3833,1776
25.3861,1713
25.3889,1646
25.3917,1601
25.3944,1555
25.3972,1521
25.4000,1516
25.4028,1519
25.4056,1516
25.4083,1512
25.4111,1493
25.4139,1493
25.4167,1477
25.4194,1468
25.4222,1459
25.4250,1459
25.4278,1461
25.4306,1455
25.4333,1455
25.4361,1457
25.4389,1455
25.4417,1462
25.4444,1458
25.4472,1463
25.4500,1461
25.4528,1463
25.4556,1485
25.4583,1491
25.4611,1514
25.4639,1522
25.4667,1518
25.4694,1501
25.4722,1484
25.4750,1465
25.4778,1494
25.4806,1587
25.4833,1781
25.4861,2087
25.4889,2384
25.4917,2502
25.4944,2488
25.4972,2431
25.5000,2373
25.5028,2337
25.5056,2219
25.5083,1957
25.5111,1667
25.5139,1442
25.5167,1277
25.5194,1151
25.5222,1053
25.5250,956
25.5278,905
25.5306,904
25.5333,934
25.5361,984
25.5389,1037
25.5417,1103
25.5444,1152
25.5472,1198
25.5500,1271
25.5528,1336
25.5556,1403
25.5583,1475
25.5611,1516
25.5639,1561
25.5667,1582
25.5694,1621
25.5722,1646
25.5750,1672
25.5778,1690
25.5806,1693
25.5833,1687
25.5861,1690
25.5889,1686
25.5917,1696
25.5944,1724
25.5972,1726
25.6000,1738
25.6028,1739
25.6056,1738
25.6083,1739
25.6111,1744
25.6139,1758
25.6167,1779
25.6194,1766
25.6222,1778
25.6250,1775
25.6278,1778
25.6306,1786
25.6333,1799
25.6361,1816
25.6389,1826
25.6417,1822
25.6444,1830
25.6472,1833
25.6500,1840
25.6528,1864
25.6556,1883
25.6583,1883
25.6611,1881
25.6639,1869
25.6667,1874
25.6694,1886
25.6722,1899
25.6750,1942
25.6778,1960
25.6806,1962
25.6833,2034
25.6861,2020
25.6889,1987
25.6917,1961
25.6944,1940
25.6972,1923
25.7000,1887
25.7028,1849
25.7056,1804
25.7083,1773
25.7111,1735
25.7139,1728
25.7167,1711
25.7194,1688
25.7222,1656
25.7250,1634
25.7278,1606
25.7306,1593
25.7333,1584
25.7361,1566
25.7389,1561
25.7417,1545
25.7444,1523
25.7472,1524
25.7500,1522
25.7528,1522
25.7556,1516
25.7583,1508
25.7611,1501
25.7639,1493
25.7667,1503
25.7694,1511
25.7722,1513
25.7750,1528
25.7778,1529
25.7806,1528
25.7833,1528
25.7861,1514
25.7889,1513
25.7917,1518
25.7944,1518
25.7972,1531
25.8000,1540
25.8028,1543
25.8056,1550
25.8083,1551
25.8111,1556
25.8139,1564
25.8167,1575
25.8194,1565
25.8222,1550
25.8250,1554
25.8278,1557
25.8306,1551
25.8333,1557
25.8361,1565
25.8389,1572
25.8417,1566
25.8444,1565
25.8472,1574
25.8500,1578
25.8528,1589
25.8556,1587
25.8583,1592
25.8611,1589
25.8639,1588
25.8667,1584
25.8694,1590
25.8722,1599
25.8750,1605
25.8778,1596
25.8806,1595
25.8833,1601
25.8861,1597
25.8889,1585
25.8917,1572
25.8944,1571
25.8972,1569
25.9000,1571
25.9028,1571
25.9056,1567
25.9083,1572
25.9111,1576
25.9139,1593
25.9167,1594
25.9194,1584
25.9222,1578
25.9250,1572
25.9278,1573
25.9306,1574
25.9333,1581
25.9361,1593
25.9389,1594
25.9417,1593
25.9444,1590
25.9472,1579
25.9500,1576
25.9528,1576
25.9556,1570
25.9583,1581
25.9611,1574
25.9639,1569
25.9667,1575
25.9694,1582
25.9722,1591
25.9750,1606
25.9778,1615
25.9806,1620
25.9833,1620
25.9861,1630
25.9889,1659
25.9917,1679
25.9944,1695
25.9972,1708
26.0000,1718
26.0028,1720
26.0056,1739
26.0083,1753
26.0111,1779
26.0139,1802
26.0167,1834
26.0194,1857
26.0222,1880
26.0250,1905
26.0278,1931
26.0306,1946
26.0333,1936
26.0361,1912
26.0389,1882
26.0417,1831
26.0444,1789
26.0472,1730
26.0500,1664
26.0528,1620
26.0556,1570
26.0583,1556
26.0611,1548
26.0639,1535
26.0667,1520
26.0694,1511
26.0722,1516
26.0750,1513
26.0778,1508
26.0806,1495
26.0833,1492
26.0861,1485
26.0889,1492
26.0917,1494
26.0944,1498
26.0972,1495
26.1000,1482
26.1028,1476
26.1056,1470
26.1083,1472
26.1111,1477
26.1139,1474
26.1167,1481
26.1194,1501
26.1222,1528
26.1250,1562
26.1278,1561
26.1306,1545
26.1333,1525
26.1361,1504
26.1389,1496
26.1417,1520
26.1444,1624
26.1472,1816
26.1500,2111
26.1528,2378
26.1556,2475
26.1583,2462
26.1611,2425
26.1639,2401
26.1667,2374
26.1694,2258
26.1722,1998
26.1750,1698
26.1778,1457
26.1806,1311
26.1833,1202
26.1861,1113
26.1889,1024
26.1917,977
26.1944,955
26.1972,979
26.2000,1026
26.2028,1088
26.2056,1150
26.2083,1214
26.2111,1275
26.2139,1334
26.2167,1420
26.2194,1495
26.2222,1563
26.2250,1610
26.2278,1634
26.2306,1658
26.2333,1676
26.2361,1697
26.2389,1705
26.2417,1731
26.2444,1733
26.2472,1735
26.2500,1732
26.2528,1747
26.2556,1767
26.2583,1776
26.2611,1773
26.2639,1773
26.2667,1769
26.2694,1770
26.2722,1790
26.2750,1811
26.2778,1822
26.2806,1827
26.2833,1822
26.2861,1832
26.2889,1835
26.2917,1831
26.2944,1843
26.2972,1858
26.3000,1868
26.3028,1876
26.3056,1881
26.3083,1887
26.3111,1889
26.3139,1903
26.3167,1917
26.3194,1920
26.3222,1935
26.3250,1947
26.3278,1954
26.3306,1958
26.3333,1987
26.3361,2011
26.3389,2027
26.3417,2039
26.3444,2028
26.3472,2028
26.3500,2029
26.3528,2044
26.3556,2066
26.3583,2099
26.3611,2117
26.3639,2123
26.3667,2130
26.3694,2121
26.3722,1762
26.3750,1772
26.3778,1763
26.3806,1749
26.3833,1720
26.3861,1691
26.3889,1666
26.3917,1648
26.3944,1647
26.3972,1640
26.4000,1640
26.4028,1626
26.4056,1591
26.4083,1565
26.4111,1566
26.4139,1584
26.4167,1596
26.4194,1592
26.4222,1591
26.4250,1573
26.4278,1559
26.4306,1550
26.4333,1566
