Tiempo(s),Valor_ADC
0.0028,1545
0.0056,1465
0.0083,1389
0.0111,1323
0.0139,1283
0.0167,1280
0.0194,1371
0.0222,1558
0.0250,1807
0.0278,2057
0.0306,2325
0.0333,2653
0.0361,2986
0.0389,3267
0.0417,3337
0.0444,3332
0.0472,3146
0.0500,2744
0.0528,2204
0.0556,1670
0.0583,1328
0.0611,1208
0.0639,1255
0.0667,1375
0.0694,1502
0.0722,1587
0.0750,1614
0.0778,1609
0.0806,1566
0.0833,1543
0.0861,1542
0.0889,1551
0.0917,1561
0.0944,1570
0.0972,1571
0.1000,1553
0.1028,1551
0.1056,1534
0.1083,1538
0.1111,1526
0.1139,1550
0.1167,1564
0.1194,1590
0.1222,1602
0.1250,1596
0.1278,1577
0.1306,1575
0.1333,1573
0.1361,1580
0.1389,1590
0.1417,1596
0.1444,1590
0.1472,1601
0.1500,1604
0.1528,1618
0.1556,1609
0.1583,1603
0.1611,1591
0.1639,1592
0.1667,1603
0.1694,1616
0.1722,1625
0.1750,1632
0.1778,1640
0.1806,1635
0.1833,1629
0.1861,1637
0.1889,1622
0.1917,1613
0.1944,1624
0.1972,1621
0.2000,1624
0.2028,1617
0.2056,1620
0.2083,1629
0.2111,1640
0.2139,1665
0.2167,1672
0.2194,1679
0.2222,1669
0.2250,1648
0.2278,1648
0.2306,1647
0.2333,1654
0.2361,1657
0.2389,1668
0.2417,1671
0.2444,1663
0.2472,1667
0.2500,1649
0.2528,1655
0.2556,1652
0.2583,1657
0.2611,1650
0.2639,1649
0.2667,1643
0.2694,1644
0.2722,1641
0.2750,1642
0.2778,1634
0.2806,1623
0.2833,1618
0.2861,1610
0.2889,1615
0.2917,1616
0.2944,1610
0.2972,1606
0.3000,1591
0.3028,1577
0.3056,1586
0.3083,1587
0.3111,1586
0.3139,1593
0.3167,1597
0.3194,1583
0.3222,1572
0.3250,1573
0.3278,1586
0.3306,1591
0.3333,1601
0.3361,1610
0.3389,1605
0.3417,1600
0.3444,1600
0.3472,1606
0.3500,1609
0.3528,1606
0.3556,1624
0.3583,1627
0.3611,1641
0.3639,1669
0.3667,1683
0.3694,1718
0.3722,1745
0.3750,1749
0.3778,1753
0.3806,1753
0.3833,1760
0.3861,1786
0.3889,1814
0.3917,1838
0.3944,1858
0.3972,1858
0.4000,1863
0.4028,1870
0.4056,1870
0.4083,1865
0.4111,1860
0.4139,1840
0.4167,1817
0.4194,1781
0.4222,1736
0.4250,1688
0.4278,1644
0.4306,1624
0.4333,1615
0.4361,1572
0.4389,1524
0.4417,1498
0.4444,1493
0.4472,1490
0.4500,1479
0.4528,1484
0.4556,1500
0.4583,1506
0.4611,1512
0.4639,1504
0.4667,1495
0.4694,1498
0.4722,1502
0.4750,1486
0.4778,1479
0.4806,1480
0.4833,1482
0.4861,1494
0.4889,1514
0.4917,1518
0.4944,1508
0.4972,1465
0.5000,1392
0.5028,1317
0.5056,1254
0.5083,1219
0.5111,1214
0.5139,1269
0.5167,1411
0.5194,1621
0.5222,1831
0.5250,2077
0.5278,2372
0.5306,2705
0.5333,2982
0.5361,3161
0.5389,3154
0.5417,2946
0.5444,2590
0.5472,2086
0.5500,1583
0.5528,1243
0.5556,1117
0.5583,1143
0.5611,1251
0.5639,1372
0.5667,1465
0.5694,1519
0.5722,1517
0.5750,1474
0.5778,1423
0.5806,1403
0.5833,1410
0.5861,1435
0.5889,1468
0.5917,1487
0.5944,1492
0.5972,1477
0.6000,1448
0.6028,1441
0.6056,1442
0.6083,1457
0.6111,1485
0.6139,1498
0.6167,1505
0.6194,1513
0.6222,1519
0.6250,1521
0.6278,1531
0.6306,1540
0.6333,1541
0.6361,1536
0.6389,1523
0.6417,1516
0.6444,1520
0.6472,1547
0.6500,1569
0.6528,1585
0.6556,1576
0.6583,1559
0.6611,1538
0.6639,1545
0.6667,1545
0.6694,1564
0.6722,1565
0.6750,1584
0.6778,1574
0.6806,1571
0.6833,1572
0.6861,1581
0.6889,1603
0.6917,1607
0.6944,1613
0.6972,1600
0.7000,1604
0.7028,1610
0.7056,1627
0.7083,1638
0.7111,1655
0.7139,1653
0.7167,1638
0.7194,1626
0.7222,1632
0.7250,1651
0.7278,1667
0.7306,1684
0.7333,1692
0.7361,1683
0.7389,1673
0.7417,1668
0.7444,1656
0.7472,1656
0.7500,1677
0.7528,1681
0.7556,1682
0.7583,1680
0.7611,1672
0.7639,1673
0.7667,1680
0.7694,1684
0.7722,1692
0.7750,1715
0.7778,1716
0.7806,1729
0.7833,1736
0.7861,1735
0.7889,1731
0.7917,1737
0.7944,1737
0.7972,1739
0.8000,1743
0.8028,1759
0.8056,1778
0.8083,1798
0.8111,1811
0.8139,1832
0.8167,1852
0.8194,1876
0.8222,1892
0.8250,1901
0.8278,1913
0.8306,1921
0.8333,1938
0.8361,1960
0.8389,1982
0.8417,2005
0.8444,1992
0.8472,1990
0.8500,2003
0.8528,2001
0.8556,2002
0.8583,1998
0.8611,1982
0.8639,1946
0.8667,1900
0.8694,1871
0.8722,1827
0.8750,1799
0.8778,1770
0.8806,1747
0.8833,1724
0.8861,1711
0.8889,1695
0.8917,1690
0.8944,1678
0.8972,1674
0.9000,1665
0.9028,1645
0.9056,1637
0.9083,1646
0.9111,1643
0.9139,1645
0.9167,1652
0.9194,1652
0.9222,1656
0.9250,1663
0.9278,1672
0.9306,1663
0.9333,1660
0.9361,1639
0.9389,1622
0.9417,1591
0.9444,1543
0.9472,1468
0.9500,1419
0.9528,1380
0.9556,1358
0.9583,1357
0.9611,1421
0.9639,1582
0.9667,1787
0.9694,2017
0.9722,2292
0.9750,2647
0.9778,2980
0.9806,3242
0.9833,3325
0.9861,3244
0.9889,2959
0.9917,2547
0.9944,2052
0.9972,1598
1.0000,1331
1.0028,1257
1.0056,1308
1.0083,1428
1.0111,1528
1.0139,1605
1.0167,1625
1.0194,1635
1.0222,1603
1.0250,1578
1.0278,1570
1.0306,1582
1.0333,1579
1.0361,1579
1.0389,1574
1.0417,1574
1.0444,1576
1.0472,1582
1.0500,1602
1.0528,1611
1.0556,1614
1.0583,1616
1.0611,1610
1.0639,1591
1.0667,1603
1.0694,1612
1.0722,1620
1.0750,1640
1.0778,1631
1.0806,1621
1.0833,1623
1.0861,1618
1.0889,1622
1.0917,1628
1.0944,1641
1.0972,1650
1.1000,1663
1.1028,1670
1.1056,1660
1.1083,1650
1.1111,1644
1.1139,1642
1.1167,1647
1.1194,1645
1.1222,1654
1.1250,1661
1.1278,1664
1.1306,1669
1.1333,1685
1.1361,1676
1.1389,1670
1.1417,1669
1.1444,1671
1.1472,1681
1.1500,1680
1.1528,1689
1.1556,1684
1.1583,1686
1.1611,1682
1.1639,1659
1.1667,1672
1.1694,1686
1.1722,1711
1.1750,1722
1.1778,1726
1.1806,1716
1.1833,1707
1.1861,1706
1.1889,1629
1.1917,1632
1.1944,1639
1.1972,1639
1.2000,1644
1.2028,1627
1.2056,1620
1.2083,1625
1.2111,1621
1.2139,1622
1.2167,1636
1.2194,1644
1.2222,1645
1.2250,1636
1.2278,1639
1.2306,1640
1.2333,1641
1.2361,1650
1.2389,1654
1.2417,1652
1.2444,1640
1.2472,1642
1.2500,1658
1.2528,1675
1.2556,1679
1.2583,1687
1.2611,1683
1.2639,1664
1.2667,1651
1.2694,1647
1.2722,1648
1.2750,1646
1.2778,1652
1.2806,1648
1.2833,1643
1.2861,1650
1.2889,1648
1.2917,1646
1.2944,1645
1.2972,1645
1.3000,1642
1.3028,1652
1.3056,1654
1.3083,1681
1.3111,1711
1.3139,1737
1.3167,1761
1.3194,1772
1.3222,1765
1.3250,1777
1.3278,1791
1.3306,1801
1.3333,1826
1.3361,1849
1.3389,1864
1.3417,1863
1.3444,1857
1.3472,1861
1.3500,1864
1.3528,1849
1.3556,1815
1.3583,1773
1.3611,1725
1.3639,1684
1.3667,1648
1.3694,1623
1.3722,1604
1.3750,1587
1.3778,1550
1.3806,1518
1.3833,1506
1.3861,1511
1.3889,1509
1.3917,1510
1.3944,1507
1.3972,1495
1.4000,1496
1.4028,1497
1.4056,1493
1.4083,1493
1.4111,1491
1.4139,1484
1.4167,1485
1.4194,1490
1.4222,1488
1.4250,1489
1.4278,1475
1.4306,1471
1.4333,1457
1.4361,1451
1.4389,1393
1.4417,1339
1.4444,1290
1.4472,1245
1.4500,1243
1.4528,1268
1.4556,1368
1.4583,1542
1.4611,1746
1.4639,1952
1.4667,2195
1.4694,2497
1.4722,2794
1.4750,3002
1.4778,3074
1.4806,2980
1.4833,2731
1.4861,2342
1.4889,1868
1.4917,1439
1.4944,1168
1.4972,1080
1.5000,1118
1.5028,1217
1.5056,1334
1.5083,1423
1.5111,1464
1.5139,1478
1.5167,1458
1.5194,1435
1.5222,1411
1.5250,1401
1.5278,1411
1.5306,1412
1.5333,1426
1.5361,1433
1.5389,1433
1.5417,1434
1.5444,1444
1.5472,1449
1.5500,1450
1.5528,1446
1.5556,1449
1.5583,1465
1.5611,1478
1.5639,1493
1.5667,1500
1.5694,1505
1.5722,1496
1.5750,1487
1.5778,1475
1.5806,1458
1.5833,1471
1.5861,1484
1.5889,1502
1.5917,1521
1.5944,1529
1.5972,1523
1.6000,1505
1.6028,1499
1.6056,1498
1.6083,1510
1.6111,1533
1.6139,1544
1.6167,1544
1.6194,1553
1.6222,1564
1.6250,1570
1.6278,1581
1.6306,1577
1.6333,1577
1.6361,1582
1.6389,1570
1.6417,1572
1.6444,1573
1.6472,1579
1.6500,1589
1.6528,1598
1.6556,1588
1.6583,1580
1.6611,1573
1.6639,1577
1.6667,1601
1.6694,1625
1.6722,1623
1.6750,1623
1.6778,1613
1.6806,1603
1.6833,1607
1.6861,1574
1.6889,1570
1.6917,1567
1.6944,1562
1.6972,1557
1.7000,1562
1.7028,1562
1.7056,1574
1.7083,1592
1.7111,1601
1.7139,1608
1.7167,1591
1.7194,1589
1.7222,1608
1.7250,1615
1.7278,1627
1.7306,1625
1.7333,1621
1.7361,1626
1.7389,1630
1.7417,1642
1.7444,1651
1.7472,1650
1.7500,1656
1.7528,1663
1.7556,1674
1.7583,1670
1.7611,1671
1.7639,1660
1.7667,1660
1.7694,1660
1.7722,1655
1.7750,1654
1.7778,1651
1.7806,1647
1.7833,1637
1.7861,1647
1.7889,1650
1.7917,1647
1.7944,1633
1.7972,1641
1.8000,1631
1.8028,1640
1.8056,1640
1.8083,1645
1.8111,1655
1.8139,1651
1.8167,1650
1.8194,1648
1.8222,1658
1.8250,1656
1.8278,1658
1.8306,1662
1.8333,1659
1.8361,1656
1.8389,1658
1.8417,1670
1.8444,1687
1.8472,1700
1.8500,1720
1.8528,1747
1.8556,1766
1.8583,1776
1.8611,1779
1.8639,1794
1.8667,1798
1.8694,1828
1.8722,1867
1.8750,1887
1.8778,1896
1.8806,1891
1.8833,1895
1.8861,1901
1.8889,1901
1.8917,1883
1.8944,1851
1.8972,1809
1.9000,1766
1.9028,1726
1.9056,1707
1.9083,1684
1.9111,1668
1.9139,1659
1.9167,1625
1.9194,1622
1.9222,1615
1.9250,1614
1.9278,1611
1.9306,1604
1.9333,1607
1.9361,1613
1.9389,1600
1.9417,1595
1.9444,1587
1.9472,1589
1.9500,1594
1.9528,1595
1.9556,1591
1.9583,1592
1.9611,1598
1.9639,1597
1.9667,1591
1.9694,1567
1.9722,1569
1.9750,1546
1.9778,1517
1.9806,1473
1.9833,1441
1.9861,1439
1.9889,1458
1.9917,1505
1.9944,1610
1.9972,1764
2.0000,1953
2.0028,2149
2.0056,2408
2.0083,2699
2.0111,2953
2.0139,3097
2.0167,3126
2.0194,3008
2.0222,2731
2.0250,2304
2.0278,1850
2.0306,1475
2.0333,1287
2.0361,1251
2.0389,1309
2.0417,1403
2.0444,1493
2.0472,1560
2.0500,1594
2.0528,1587
2.0556,1568
2.0583,1549
2.0611,1543
2.0639,1555
2.0667,1557
2.0694,1579
2.0722,1583
2.0750,1584
2.0778,1586
2.0806,1595
2.0833,1603
2.0861,1614
2.0889,1622
2.0917,1635
2.0944,1625
2.0972,1627
2.1000,1616
2.1028,1623
2.1056,1639
2.1083,1643
2.1111,1668
2.1139,1654
2.1167,1638
2.1194,1644
2.1222,1654
2.1250,1659
2.1278,1660
2.1306,1673
2.1333,1684
2.1361,1690
2.1389,1691
2.1417,1694
2.1444,1703
2.1472,1698
2.1500,1696
2.1528,1700
2.1556,1704
2.1583,1707
2.1611,1703
2.1639,1704
2.1667,1722
2.1694,1758
2.1722,1767
2.1750,1762
2.1778,1765
2.1806,1769
2.1833,1765
2.1861,1752
2.1889,1757
2.1917,1758
2.1944,1753
2.1972,1758
2.2000,1768
2.2028,1771
2.2056,1782
2.2083,1791
2.2111,1800
2.2139,1787
2.2167,1783
2.2194,1784
2.2222,1734
2.2250,1733
2.2278,1742
2.2306,1752
2.2333,1748
2.2361,1770
2.2389,1756
2.2417,1747
2.2444,1749
2.2472,1747
2.2500,1751
2.2528,1749
2.2556,1757
2.2583,1780
2.2611,1779
2.2639,1794
2.2667,1811
2.2694,1816
2.2722,1818
2.2750,1815
2.2778,1825
2.2806,1824
2.2833,1831
2.2861,1829
2.2889,1828
2.2917,1819
2.2944,1811
2.2972,1817
2.3000,1818
2.3028,1809
2.3056,1812
2.3083,1813
2.3111,1814
2.3139,1816
2.3167,1824
2.3194,1827
2.3222,1834
2.3250,1839
2.3278,1839
2.3306,1829
2.3333,1819
2.3361,1801
2.3389,1779
2.3417,1778
2.3444,1798
2.3472,1799
2.3500,1802
2.3528,1786
2.3556,1797
2.3583,1809
2.3611,1816
2.3639,1826
2.3667,1831
2.3694,1825
2.3722,1825
2.3750,1816
2.3778,1802
2.3806,1791
2.3833,1787
2.3861,1792
2.3889,1787
2.3917,1803
2.3944,1821
2.3972,1852
2.4000,1882
2.4028,1906
2.4056,1939
2.4083,1963
2.4111,1961
2.4139,1958
2.4167,1963
2.4194,1973
2.4222,1995
2.4250,2012
2.4278,2028
2.4306,2035
2.4333,2033
2.4361,2038
2.4389,2042
2.4417,2026
2.4444,2012
2.4472,1977
2.4500,1941
2.4528,1891
2.4556,1852
2.4583,1832
2.4611,1825
2.4639,1806
2.4667,1800
2.4694,1784
2.4722,1757
2.4750,1746
2.4778,1722
2.4806,1720
2.4833,1716
2.4861,1713
2.4889,1723
2.4917,1734
2.4944,1728
2.4972,1729
2.5000,1724
2.5028,1717
2.5056,1720
2.5083,1734
2.5111,1730
2.5139,1719
2.5167,1714
2.5194,1713
2.5222,1707
2.5250,1689
2.5278,1632
2.5306,1596
2.5333,1571
2.5361,1556
2.5389,1587
2.5417,1626
2.5444,1734
2.5472,1892
2.5500,2076
2.5528,2272
2.5556,2536
2.5583,2814
2.5611,3042
2.5639,3201
2.5667,3241
2.5694,3119
2.5722,2822
2.5750,2381
2.5778,1908
2.5806,1537
2.5833,1336
2.5861,1311
2.5889,1380
2.5917,1485
2.5944,1592
2.5972,1668
2.6000,1701
2.6028,1702
2.6056,1680
2.6083,1660
2.6111,1655
2.6139,1657
2.6167,1669
2.6194,1675
2.6222,1676
2.6250,1662
2.6278,1662
2.6306,1656
2.6333,1664
2.6361,1673
2.6389,1690
2.6417,1692
2.6444,1693
2.6472,1693
2.6500,1690
2.6528,1702
2.6556,1716
2.6583,1720
2.6611,1724
2.6639,1711
2.6667,1702
2.6694,1691
2.6722,1700
2.6750,1708
2.6778,1732
2.6806,1739
2.6833,1733
2.6861,1730
2.6889,1730
2.6917,1734
2.6944,1748
2.6972,1747
2.7000,1744
2.7028,1743
2.7056,1754
2.7083,1761
2.7111,1781
2.7139,1784
2.7167,1802
2.7194,1799
2.7222,1793
2.7250,1783
2.7278,1795
2.7306,1789
2.7333,1795
2.7361,1792
2.7389,1810
2.7417,1821
2.7444,1817
2.7472,1805
2.7500,1800
2.7528,1790
2.7556,1807
2.7583,1820
2.7611,1820
2.7639,1821
2.7667,1824
2.7694,1820
2.7722,1724
2.7750,1724
2.7778,1723
2.7806,1725
2.7833,1745
2.7861,1742
2.7889,1739
2.7917,1749
2.7944,1756
2.7972,1769
2.8000,1766
2.8028,1756
2.8056,1740
2.8083,1749
2.8111,1757
2.8139,1762
2.8167,1780
2.8194,1776
2.8222,1778
2.8250,1765
2.8278,1769
2.8306,1769
2.8333,1785
2.8361,1803
2.8389,1784
2.8417,1779
2.8444,1777
2.8472,1783
2.8500,1791
2.8528,1792
2.8556,1796
2.8583,1799
2.8611,1790
2.8639,1780
2.8667,1776
2.8694,1774
2.8722,1764
2.8750,1765
2.8778,1763
2.8806,1771
2.8833,1783
2.8861,1780
2.8889,1772
2.8917,1769
2.8944,1766
2.8972,1760
2.9000,1777
2.9028,1776
2.9056,1764
2.9083,1764
2.9111,1774
2.9139,1777
2.9167,1793
2.9194,1799
2.9222,1813
2.9250,1843
2.9278,1859
2.9306,1877
2.9333,1897
2.9361,1894
2.9389,1899
2.9417,1908
2.9444,1924
2.9472,1944
2.9500,1968
2.9528,1973
2.9556,1976
2.9583,1985
2.9611,1995
2.9639,2000
2.9667,1993
2.9694,1953
2.9722,1900
2.9750,1859
2.9778,1815
2.9806,1789
2.9833,1776
2.9861,1748
2.9889,1734
2.9917,1723
2.9944,1705
2.9972,1685
3.0000,1675
3.0028,1672
3.0056,1653
3.0083,1647
3.0111,1636
3.0139,1653
3.0167,1659
3.0194,1662
3.0222,1650
3.0250,1645
3.0278,1640
3.0306,1635
3.0333,1642
3.0361,1638
3.0389,1651
3.0417,1655
3.0444,1646
3.0472,1616
3.0500,1575
3.0528,1530
3.0556,1480
3.0583,1460
3.0611,1471
3.0639,1489
3.0667,1573
3.0694,1717
3.0722,1902
3.0750,2108
3.0778,2334
3.0806,2619
3.0833,2890
3.0861,3094
3.0889,3181
3.0917,3132
3.0944,2908
3.0972,2533
3.1000,2059
3.1028,1616
3.1056,1340
3.1083,1245
3.1111,1288
3.1139,1388
3.1167,1504
3.1194,1589
3.1222,1635
3.1250,1630
3.1278,1613
3.1306,1592
3.1333,1576
3.1361,1576
3.1389,1582
3.1417,1591
3.1444,1590
3.1472,1594
3.1500,1595
3.1528,1596
3.1556,1592
3.1583,1609
3.1611,1625
3.1639,1638
3.1667,1627
3.1694,1627
3.1722,1626
3.1750,1636
3.1778,1650
3.1806,1661
3.1833,1653
3.1861,1642
3.1889,1641
3.1917,1650
3.1944,1657
3.1972,1668
3.2000,1680
3.2028,1693
3.2056,1692
3.2083,1684
3.2111,1685
3.2139,1677
3.2167,1682
3.2194,1694
3.2222,1712
3.2250,1711
3.2278,1713
3.2306,1711
3.2333,1718
3.2361,1710
3.2389,1713
3.2417,1736
3.2444,1751
3.2472,1751
3.2500,1756
3.2528,1740
3.2556,1747
3.2583,1744
3.2611,1739
3.2639,1739
3.2667,1754
3.2694,1764
3.2722,1770
3.2750,1769
3.2778,1775
3.2806,1772
3.2833,1765
3.2861,1762
3.2889,1766
3.2917,1771
3.2944,1772
3.2972,1678
3.3000,1683
3.3028,1690
3.3056,1677
3.3083,1682
3.3111,1674
3.3139,1672
3.3167,1684
3.3194,1691
3.3222,1697
3.3250,1686
3.3278,1678
3.3306,1689
3.3333,1701
3.3361,1712
3.3389,1723
3.3417,1727
3.3444,1733
3.3472,1721
3.3500,1709
3.3528,1717
3.3556,1720
3.3583,1736
3.3611,1743
3.3639,1741
3.3667,1735
3.3694,1733
3.3722,1726
3.3750,1715
3.3778,1726
3.3806,1729
3.3833,1741
3.3861,1739
3.3889,1733
3.3917,1723
3.3944,1717
3.3972,1716
3.4000,1722
3.4028,1724
3.4056,1724
3.4083,1720
3.4111,1711
3.4139,1698
3.4167,1699
3.4194,1695
3.4222,1692
3.4250,1688
3.4278,1698
3.4306,1714
3.4333,1727
3.4361,1745
3.4389,1758
3.4417,1773
3.4444,1783
3.4472,1789
3.4500,1806
3.4528,1815
3.4556,1828
3.4583,1840
3.4611,1860
3.4639,1874
3.4667,1880
3.4694,1891
3.4722,1886
3.4750,1890
3.4778,1906
3.4806,1914
3.4833,1889
3.4861,1846
3.4889,1802
3.4917,1747
3.4944,1705
3.4972,1684
3.5000,1672
3.5028,1656
3.5056,1642
3.5083,1620
3.5111,1592
3.5139,1562
3.5167,1550
3.5194,1552
3.5222,1552
3.5250,1567
3.5278,1566
3.5306,1561
3.5333,1561
3.5361,1554
3.5389,1557
3.5417,1552
3.5444,1542
3.5472,1530
3.5500,1519
3.5528,1518
3.5556,1523
3.5583,1528
3.5611,1531
3.5639,1503
3.5667,1457
3.5694,1397
3.5722,1350
3.5750,1328
3.5778,1342
3.5806,1374
3.5833,1459
3.5861,1613
3.5889,1787
3.5917,1991
3.5944,2223
3.5972,2525
3.6000,2802
3.6028,2981
3.6056,3054
3.6083,2971
3.6111,2739
3.6139,2355
3.6167,1877
3.6194,1440
3.6222,1166
3.6250,1080
3.6278,1129
3.6306,1254
3.6333,1366
3.6361,1460
3.6389,1499
3.6417,1490
3.6444,1450
3.6472,1427
3.6500,1411
3.6528,1412
3.6556,1438
3.6583,1454
3.6611,1455
3.6639,1457
3.6667,1454
3.6694,1446
3.6722,1447
3.6750,1458
3.6778,1469
3.6806,1464
3.6833,1452
3.6861,1460
3.6889,1450
3.6917,1458
3.6944,1467
3.6972,1485
3.7000,1485
3.7028,1485
3.7056,1478
3.7083,1477
3.7111,1481
3.7139,1491
3.7167,1507
3.7194,1493
3.7222,1498
3.7250,1498
3.7278,1504
3.7306,1504
3.7333,1514
3.7361,1520
3.7389,1514
3.7417,1507
3.7444,1515
3.7472,1526
3.7500,1534
3.7528,1540
3.7556,1555
3.7583,1563
3.7611,1558
3.7639,1555
3.7667,1552
3.7694,1557
3.7722,1555
3.7750,1570
3.7778,1592
3.7806,1582
3.7833,1587
3.7861,1580
3.7889,1574
3.7917,1582
3.7944,1576
3.7972,1586
3.8000,1587
3.8028,1580
3.8056,1570
3.8083,1567
3.8111,1576
3.8139,1511
3.8167,1511
3.8194,1508
3.8222,1505
3.8250,1495
3.8278,1485
3.8306,1464
3.8333,1471
3.8361,1488
3.8389,1499
3.8417,1511
3.8444,1514
3.8472,1518
3.8500,1516
3.8528,1524
3.8556,1533
3.8583,1541
3.8611,1533
3.8639,1556
3.8667,1555
3.8694,1562
3.8722,1571
3.8750,1578
3.8778,1581
3.8806,1585
3.8833,1573
3.8861,1557
3.8889,1551
3.8917,1558
3.8944,1563
3.8972,1585
3.9000,1587
3.9028,1578
3.9056,1562
3.9083,1549
3.9111,1537
3.9139,1552
3.9167,1558
3.9194,1577
3.9222,1570
3.9250,1561
3.9278,1574
3.9306,1589
3.9333,1583
3.9361,1598
3.9389,1612
3.9417,1629
3.9444,1653
3.9472,1676
3.9500,1693
3.9528,1700
3.9556,1714
3.9583,1721
3.9611,1750
3.9639,1761
3.9667,1765
3.9694,1760
3.9722,1768
3.9750,1775
3.9778,1776
3.9806,1788
3.9833,1775
3.9861,1753
3.9889,1710
3.9917,1655
3.9944,1627
3.9972,1593
4.0000,1573
4.0028,1561
4.0056,1528
4.0083,1502
4.0111,1486
4.0139,1478
4.0167,1475
4.0194,1473
4.0222,1471
4.0250,1468
4.0278,1470
4.0306,1474
4.0333,1473
4.0361,1474
4.0389,1470
4.0417,1460
4.0444,1462
4.0472,1468
4.0500,1476
4.0528,1476
4.0556,1485
4.0583,1472
4.0611,1473
4.0639,1432
4.0667,1391
4.0694,1345
4.0722,1305
4.0750,1285
4.0778,1292
4.0806,1317
4.0833,1398
4.0861,1531
4.0889,1708
4.0917,1919
4.0944,2167
4.0972,2474
4.1000,2758
4.1028,2959
4.1056,3051
4.1083,2979
4.1111,2756
4.1139,2399
4.1167,1942
4.1194,1491
4.1222,1210
4.1250,1094
4.1278,1131
4.1306,1216
4.1333,1339
4.1361,1439
4.1389,1490
4.1417,1499
4.1444,1483
4.1472,1465
4.1500,1451
4.1528,1446
4.1556,1456
4.1583,1465
4.1611,1472
4.1639,1477
4.1667,1465
4.1694,1463
4.1722,1468
4.1750,1476
4.1778,1491
4.1806,1501
4.1833,1506
4.1861,1503
4.1889,1503
4.1917,1503
4.1944,1514
4.1972,1520
4.2000,1522
4.2028,1533
4.2056,1544
4.2083,1536
4.2111,1540
4.2139,1553
4.2167,1560
4.2194,1573
4.2222,1585
4.2250,1594
4.2278,1587
4.2306,1572
4.2333,1579
4.2361,1586
4.2389,1601
4.2417,1608
4.2444,1601
4.2472,1608
4.2500,1607
4.2528,1619
4.2556,1615
4.2583,1627
4.2611,1629
4.2639,1636
4.2667,1635
4.2694,1640
4.2722,1645
4.2750,1660
4.2778,1667
4.2806,1672
4.2833,1676
4.2861,1670
4.2889,1674
4.2917,1673
4.2944,1690
4.2972,1692
4.3000,1700
4.3028,1704
4.3056,1708
4.3083,1708
4.3111,1705
4.3139,1670
4.3167,1679
4.3194,1674
4.3222,1663
4.3250,1656
4.3278,1656
4.3306,1659
4.3333,1650
4.3361,1656
4.3389,1668
4.3417,1684
4.3444,1682
4.3472,1691
4.3500,1691
4.3528,1708
4.3556,1711
4.3583,1728
4.3611,1728
4.3639,1721
4.3667,1734
4.3694,1726
4.3722,1737
4.3750,1738
4.3778,1745
4.3806,1754
4.3833,1755
4.3861,1752
4.3889,1748
4.3917,1741
4.3944,1732
4.3972,1742
4.4000,1761
4.4028,1757
4.4056,1760
4.4083,1756
4.4111,1756
4.4139,1778
4.4167,1794
4.4194,1828
4.4222,1848
4.4250,1863
4.4278,1857
4.4306,1877
4.4333,1878
4.4361,1894
4.4389,1910
4.4417,1934
4.4444,1938
4.4472,1949
4.4500,1964
4.4528,1984
4.4556,2003
4.4583,2012
4.4611,2006
4.4639,1980
4.4667,1942
4.4694,1894
4.4722,1853
4.4750,1807
4.4778,1793
4.4806,1766
4.4833,1753
4.4861,1733
4.4889,1711
4.4917,1690
4.4944,1678
4.4972,1665
4.5000,1671
4.5028,1657
4.5056,1654
4.5083,1657
4.5111,1666
4.5139,1676
4.5167,1686
4.5194,1664
4.5222,1656
4.5250,1654
4.5278,1661
4.5306,1655
4.5333,1666
4.5361,1654
4.5389,1666
4.5417,1655
4.5444,1639
4.5472,1598
4.5500,1545
4.5528,1500
4.5556,1465
4.5583,1441
4.5611,1454
4.5639,1501
4.5667,1613
4.5694,1792
4.5722,1991
4.5750,2208
4.5778,2493
4.5806,2821
4.5833,3068
4.5861,3236
4.5889,3252
4.5917,3090
4.5944,2781
4.5972,2339
4.6000,1862
4.6028,1490
4.6056,1301
4.6083,1273
4.6111,1354
4.6139,1466
4.6167,1586
4.6194,1653
4.6222,1680
4.6250,1660
4.6278,1630
4.6306,1608
4.6333,1604
4.6361,1614
4.6389,1625
4.6417,1653
4.6444,1641
4.6472,1650
4.6500,1648
4.6528,1656
4.6556,1671
4.6583,1678
4.6611,1670
4.6639,1671
4.6667,1649
4.6694,1653
4.6722,1650
4.6750,1660
4.6778,1674
4.6806,1688
4.6833,1692
4.6861,1701
4.6889,1708
4.6917,1702
4.6944,1701
4.6972,1705
4.7000,1712
4.7028,1706
4.7056,1707
4.7083,1710
4.7111,1722
4.7139,1723
4.7167,1737
4.7194,1749
4.7222,1749
4.7250,1748
4.7278,1751
4.7306,1733
4.7333,1739
4.7361,1751
4.7389,1763
4.7417,1760
4.7444,1770
4.7472,1764
4.7500,1770
4.7528,1771
4.7556,1770
4.7583,1779
4.7611,1776
4.7639,1781
4.7667,1766
4.7694,1772
4.7722,1778
4.7750,1790
4.7778,1798
4.7806,1805
4.7833,1813
4.7861,1810
4.7889,1814
4.7917,1807
4.7944,1768
4.7972,1769
4.8000,1780
4.8028,1768
4.8056,1755
4.8083,1756
4.8111,1760
4.8139,1765
4.8167,1773
4.8194,1772
4.8222,1777
4.8250,1772
4.8278,1775
4.8306,1780
4.8333,1790
4.8361,1797
4.8389,1809
4.8417,1811
4.8444,1820
4.8472,1826
4.8500,1807
4.8528,1804
4.8556,1814
4.8583,1829
4.8611,1837
4.8639,1846
4.8667,1834
4.8694,1833
4.8722,1827
4.8750,1841
4.8778,1856
4.8806,1897
4.8833,1920
4.8861,1940
4.8889,1959
4.8917,1960
4.8944,1956
4.8972,1960
4.9000,1953
4.9028,1970
4.9056,1980
4.9083,2005
4.9111,2031
4.9139,2052
4.9167,2072
4.9194,2077
4.9222,2055
4.9250,2022
4.9278,1985
4.9306,1948
4.9333,1901
4.9361,1876
4.9389,1855
4.9417,1841
4.9444,1832
4.9472,1809
4.9500,1782
4.9528,1765
4.9556,1759
4.9583,1740
4.9611,1738
4.9639,1727
4.9667,1722
4.9694,1715
4.9722,1716
4.9750,1718
4.9778,1733
4.9806,1742
4.9833,1737
4.9861,1723
4.9889,1719
4.9917,1717
4.9944,1718
4.9972,1719
5.0000,1727
5.0028,1723
5.0056,1705
5.0083,1684
5.0111,1649
5.0139,1584
5.0167,1529
5.0194,1503
5.0222,1497
5.0250,1517
5.0278,1590
5.0306,1732
5.0333,1934
5.0361,2133
5.0389,2384
5.0417,2697
5.0444,2980
5.0472,3198
5.0500,3322
5.0528,3309
5.0556,3120
5.0583,2744
5.0611,2246
5.0639,1783
5.0667,1463
5.0694,1325
5.0722,1330
5.0750,1419
5.0778,1530
5.0806,1644
5.0833,1701
5.0861,1715
5.0889,1700
5.0917,1672
5.0944,1650
5.0972,1656
5.1000,1653
5.1028,1680
5.1056,1691
5.1083,1681
5.1111,1679
5.1139,1675
5.1167,1671
5.1194,1685
5.1222,1691
5.1250,1700
5.1278,1710
5.1306,1710
5.1333,1711
5.1361,1704
5.1389,1711
5.1417,1720
5.1444,1729
5.1472,1727
5.1500,1731
5.1528,1738
5.1556,1749
5.1583,1745
5.1611,1759
5.1639,1761
5.1667,1755
5.1694,1749
5.1722,1735
5.1750,1730
5.1778,1735
5.1806,1754
5.1833,1765
5.1861,1776
5.1889,1773
5.1917,1772
5.1944,1768
5.1972,1775
5.2000,1777
5.2028,1780
5.2056,1777
5.2083,1783
5.2111,1771
5.2139,1766
5.2167,1772
5.2194,1780
5.2222,1796
5.2250,1805
5.2278,1797
5.2306,1795
5.2333,1791
5.2361,1798
5.2389,1803
5.2417,1827
5.2444,1838
5.2472,1835
5.2500,1822
5.2528,1815
5.2556,1816
5.2583,1781
5.2611,1796
5.2639,1795
5.2667,1793
5.2694,1783
5.2722,1778
5.2750,1782
5.2778,1785
5.2806,1792
5.2833,1803
5.2861,1808
5.2889,1810
5.2917,1815
5.2944,1807
5.2972,1806
5.3000,1825
5.3028,1833
5.3056,1848
5.3083,1838
5.3111,1830
5.3139,1842
5.3167,1845
5.3194,1861
5.3222,1876
5.3250,1886
5.3278,1904
5.3306,1913
5.3333,1939
5.3361,1958
5.3389,1971
5.3417,1983
5.3444,1982
5.3472,1999
5.3500,1994
5.3528,2004
5.3556,2009
5.3583,2025
5.3611,2058
5.3639,2069
5.3667,2087
5.3694,2074
5.3722,2052
5.3750,2012
5.3778,1985
5.3806,1951
5.3833,1910
5.3861,1881
5.3889,1862
5.3917,1844
5.3944,1836
5.3972,1804
5.4000,1777
5.4028,1747
5.4056,1744
5.4083,1734
5.4111,1734
5.4139,1723
5.4167,1731
5.4194,1730
5.4222,1742
5.4250,1737
5.4278,1734
5.4306,1721
5.4333,1719
5.4361,1707
5.4389,1709
5.4417,1718
5.4444,1718
5.4472,1706
5.4500,1704
5.4528,1698
5.4556,1675
5.4583,1649
5.4611,1591
5.4639,1524
5.4667,1471
5.4694,1445
5.4722,1440
5.4750,1475
5.4778,1597
5.4806,1762
5.4833,1973
5.4861,2202
5.4889,2494
5.4917,2798
5.4944,3062
5.4972,3243
5.5000,3289
5.5028,3150
5.5056,2837
5.5083,2397
5.5111,1913
5.5139,1529
5.5167,1338
5.5194,1309
5.5222,1380
5.5250,1482
5.5278,1575
5.5306,1633
5.5333,1663
5.5361,1649
5.5389,1632
5.5417,1623
5.5444,1631
5.5472,1629
5.5500,1643
5.5528,1646
5.5556,1646
5.5583,1648
5.5611,1636
5.5639,1630
5.5667,1632
5.5694,1637
5.5722,1647
5.5750,1650
5.5778,1651
5.5806,1658
5.5833,1654
5.5861,1656
5.5889,1677
5.5917,1674
5.5944,1667
5.5972,1661
5.6000,1663
5.6028,1668
5.6056,1673
5.6083,1671
5.6111,1686
5.6139,1684
5.6167,1699
5.6194,1691
5.6222,1701
5.6250,1709
5.6278,1721
5.6306,1738
5.6333,1737
5.6361,1731
5.6389,1720
5.6417,1701
5.6444,1703
5.6472,1717
5.6500,1729
5.6528,1733
5.6556,1734
5.6583,1733
5.6611,1723
5.6639,1715
5.6667,1726
5.6694,1733
5.6722,1729
5.6750,1726
5.6778,1730
5.6806,1729
5.6833,1732
5.6861,1737
5.6889,1744
5.6917,1759
5.6944,1767
5.6972,1758
5.7000,1760
5.7028,1754
5.7056,1719
5.7083,1727
5.7111,1735
5.7139,1724
5.7167,1716
5.7194,1707
5.7222,1703
5.7250,1707
5.7278,1717
5.7306,1726
5.7333,1730
5.7361,1729
5.7389,1736
5.7417,1726
5.7444,1740
5.7472,1754
5.7500,1761
5.7528,1755
5.7556,1758
5.7583,1745
5.7611,1744
5.7639,1757
5.7667,1761
5.7694,1757
5.7722,1759
5.7750,1761
5.7778,1762
5.7806,1772
5.7833,1801
5.7861,1825
5.7889,1841
5.7917,1873
5.7944,1885
5.7972,1886
5.8000,1888
5.8028,1887
5.8056,1896
5.8083,1920
5.8111,1951
5.8139,1976
5.8167,1984
5.8194,1976
5.8222,1983
5.8250,1995
5.8278,2006
5.8306,2002
5.8333,1968
5.8361,1927
5.8389,1873
5.8417,1824
5.8444,1799
5.8472,1788
5.8500,1772
5.8528,1756
5.8556,1733
5.8583,1699
5.8611,1677
5.8639,1664
5.8667,1650
5.8694,1640
5.8722,1637
5.8750,1641
5.8778,1647
5.8806,1651
5.8833,1653
5.8861,1648
5.8889,1635
5.8917,1623
5.8944,1609
5.8972,1601
5.9000,1616
5.9028,1632
5.9056,1637
5.9083,1639
5.9111,1623
5.9139,1593
5.9167,1530
5.9194,1456
5.9222,1398
5.9250,1346
5.9278,1341
5.9306,1361
5.9333,1428
5.9361,1568
5.9389,1755
5.9417,1954
5.9444,2198
5.9472,2495
5.9500,2817
5.9528,3065
5.9556,3226
5.9583,3205
5.9611,2986
5.9639,2601
5.9667,2125
5.9694,1666
5.9722,1359
5.9750,1238
5.9778,1244
5.9806,1340
5.9833,1450
5.9861,1551
5.9889,1596
5.9917,1604
5.9944,1578
5.9972,1553
6.0000,1535
6.0028,1532
6.0056,1533
6.0083,1549
6.0111,1568
6.0139,1570
6.0167,1569
6.0194,1564
6.0222,1556
6.0250,1562
6.0278,1576
6.0306,1581
6.0333,1576
6.0361,1576
6.0389,1570
6.0417,1575
6.0444,1586
6.0472,1593
6.0500,1599
6.0528,1601
6.0556,1602
6.0583,1591
6.0611,1593
6.0639,1596
6.0667,1603
6.0694,1611
6.0722,1621
6.0750,1612
6.0778,1612
6.0806,1608
6.0833,1618
6.0861,1622
6.0889,1637
6.0917,1641
6.0944,1638
6.0972,1629
6.1000,1617
6.1028,1624
6.1056,1630
6.1083,1640
6.1111,1647
6.1139,1648
6.1167,1644
6.1194,1642
6.1222,1650
6.1250,1646
6.1278,1653
6.1306,1647
6.1333,1642
6.1361,1648
6.1389,1643
6.1417,1643
6.1444,1656
6.1472,1665
6.1500,1660
6.1528,1679
6.1556,1683
6.1583,1685
6.1611,1681
6.1639,1594
6.1667,1600
6.1694,1605
6.1722,1597
6.1750,1596
6.1778,1585
6.1806,1589
6.1833,1608
6.1861,1614
6.1889,1620
6.1917,1614
6.1944,1600
6.1972,1604
6.2000,1600
6.2028,1603
6.2056,1624
6.2083,1626
6.2111,1636
6.2139,1636
6.2167,1630
6.2194,1621
6.2222,1627
6.2250,1624
6.2278,1631
6.2306,1628
6.2333,1617
6.2361,1618
6.2389,1617
6.2417,1625
6.2444,1638
6.2472,1645
6.2500,1652
6.2528,1667
6.2556,1679
6.2583,1688
6.2611,1711
6.2639,1724
6.2667,1736
6.2694,1739
6.2722,1756
6.2750,1776
6.2778,1795
6.2806,1798
6.2833,1825
6.2861,1817
6.2889,1817
6.2917,1824
6.2944,1823
6.2972,1818
6.3000,1795
6.3028,1747
6.3056,1716
6.3083,1668
6.3111,1639
6.3139,1608
6.3167,1581
6.3194,1554
6.3222,1533
6.3250,1506
6.3278,1482
6.3306,1461
6.3333,1452
6.3361,1450
6.3389,1443
6.3417,1441
6.3444,1447
6.3472,1445
6.3500,1434
6.3528,1412
6.3556,1404
6.3583,1395
6.3611,1400
6.3639,1402
6.3667,1403
6.3694,1409
6.3722,1416
6.3750,1412
6.3778,1393
6.3806,1372
6.3833,1343
6.3861,1275
6.3889,1207
6.3917,1147
6.3944,1123
6.3972,1120
6.4000,1161
6.4028,1260
6.4056,1433
6.4083,1644
6.4111,1857
6.4139,2119
6.4167,2433
6.4194,2710
6.4222,2912
6.4250,2953
6.4278,2818
6.4306,2518
6.4333,2103
6.4361,1636
6.4389,1241
6.4417,1034
6.4444,993
6.4472,1068
6.4500,1177
6.4528,1286
6.4556,1346
6.4583,1358
6.4611,1346
6.4639,1337
6.4667,1312
6.4694,1307
6.4722,1305
6.4750,1319
6.4778,1324
6.4806,1326
6.4833,1313
6.4861,1312
6.4889,1317
6.4917,1325
6.4944,1330
6.4972,1340
6.5000,1329
6.5028,1328
6.5056,1322
6.5083,1319
6.5111,1333
6.5139,1353
6.5167,1366
6.5194,1367
6.5222,1350
6.5250,1356
6.5278,1351
6.5306,1364
6.5333,1369
6.5361,1389
6.5389,1382
6.5417,1384
6.5444,1380
6.5472,1376
6.5500,1383
6.5528,1390
6.5556,1392
6.5583,1401
6.5611,1410
6.5639,1403
6.5667,1396
6.5694,1405
6.5722,1406
6.5750,1429
6.5778,1436
6.5806,1443
6.5833,1430
6.5861,1430
6.5889,1428
6.5917,1430
6.5944,1428
6.5972,1433
6.6000,1440
6.6028,1431
6.6056,1433
6.6083,1441
6.6111,1454
6.6139,1464
6.6167,1466
6.6194,1455
6.6222,1464
6.6250,1470
6.6278,1473
6.6306,1430
6.6333,1428
6.6361,1430
6.6389,1428
6.6417,1424
6.6444,1418
6.6472,1411
6.6500,1425
6.6528,1441
6.6556,1449
6.6583,1458
6.6611,1457
6.6639,1464
6.6667,1467
6.6694,1475
6.6722,1487
6.6750,1485
6.6778,1478
6.6806,1477
6.6833,1472
6.6861,1481
6.6889,1493
6.6917,1501
6.6944,1503
6.6972,1505
6.7000,1508
6.7028,1507
6.7056,1503
6.7083,1499
6.7111,1494
6.7139,1498
6.7167,1504
6.7194,1510
6.7222,1519
6.7250,1520
6.7278,1527
6.7306,1524
6.7333,1527
6.7361,1529
6.7389,1517
6.7417,1513
6.7444,1520
6.7472,1529
6.7500,1531
6.7528,1554
6.7556,1581
6.7583,1612
6.7611,1648
6.7639,1647
6.7667,1645
6.7694,1646
6.7722,1656
6.7750,1684
6.7778,1715
6.7806,1725
6.7833,1734
6.7861,1736
6.7889,1744
6.7917,1751
6.7944,1767
6.7972,1769
6.8000,1752
6.8028,1721
6.8056,1683
6.8083,1633
6.8111,1595
6.8139,1572
6.8167,1549
6.8194,1519
6.8222,1499
6.8250,1470
6.8278,1452
6.8306,1436
6.8333,1435
6.8361,1435
6.8389,1428
6.8417,1424
6.8444,1425
6.8472,1431
6.8500,1430
6.8528,1437
6.8556,1442
6.8583,1450
6.8611,1448
6.8639,1451
6.8667,1454
6.8694,1458
6.8722,1459
6.8750,1452
6.8778,1426
6.8806,1395
6.8833,1346
6.8861,1310
6.8889,1266
6.8917,1235
6.8944,1232
6.8972,1259
6.9000,1316
6.9028,1458
6.9056,1647
6.9083,1850
6.9111,2076
6.9139,2371
6.9167,2681
6.9194,2909
6.9222,3041
6.9250,3020
6.9278,2826
6.9306,2477
6.9333,2001
6.9361,1546
6.9389,1206
6.9417,1079
6.9444,1097
6.9472,1190
6.9500,1304
6.9528,1413
6.9556,1477
6.9583,1489
6.9611,1465
6.9639,1436
6.9667,1418
6.9694,1426
6.9722,1436
6.9750,1453
6.9778,1458
6.9806,1461
6.9833,1463
6.9861,1461
6.9889,1471
6.9917,1482
6.9944,1498
6.9972,1503
7.0000,1504
7.0028,1506
7.0056,1517
7.0083,1520
7.0111,1522
7.0139,1537
7.0167,1535
7.0194,1542
7.0222,1536
7.0250,1538
7.0278,1542
7.0306,1554
7.0333,1561
7.0361,1563
7.0389,1567
7.0417,1573
7.0444,1576
7.0472,1562
7.0500,1565
7.0528,1587
7.0556,1602
7.0583,1611
7.0611,1614
7.0639,1598
7.0667,1602
7.0694,1610
7.0722,1616
7.0750,1632
7.0778,1645
7.0806,1650
7.0833,1653
7.0861,1641
7.0889,1640
7.0917,1637
7.0944,1658
7.0972,1665
7.1000,1679
7.1028,1686
7.1056,1688
7.1083,1700
7.1111,1683
7.1139,1694
7.1167,1690
7.1194,1698
7.1222,1712
7.1250,1723
7.1278,1713
7.1306,1668
7.1333,1674
7.1361,1665
7.1389,1669
7.1417,1662
7.1444,1667
7.1472,1675
7.1500,1682
7.1528,1694
7.1556,1696
7.1583,1697
7.1611,1700
7.1639,1708
7.1667,1718
7.1694,1722
7.1722,1725
7.1750,1739
7.1778,1740
7.1806,1742
7.1833,1737
7.1861,1733
7.1889,1735
7.1917,1736
7.1944,1748
7.1972,1750
7.2000,1756
7.2028,1762
7.2056,1756
7.2083,1759
7.2111,1758
7.2139,1766
7.2167,1772
7.2194,1773
7.2222,1771
7.2250,1776
7.2278,1781
7.2306,1786
7.2333,1786
7.2361,1784
7.2389,1779
7.2417,1771
7.2444,1776
7.2472,1768
7.2500,1770
7.2528,1773
7.2556,1769
7.2583,1770
7.2611,1768
7.2639,1763
7.2667,1772
7.2694,1766
7.2722,1774
7.2750,1770
7.2778,1765
7.2806,1786
7.2833,1808
7.2861,1831
7.2889,1854
7.2917,1881
7.2944,1900
7.2972,1909
7.3000,1915
7.3028,1921
7.3056,1934
7.3083,1965
7.3111,1993
7.3139,2018
7.3167,2032
7.3194,2031
7.3222,2033
7.3250,2020
7.3278,2007
7.3306,1981
7.3333,1951
7.3361,1924
7.3389,1891
7.3417,1840
7.3444,1811
7.3472,1795
7.3500,1783
7.3528,1778
7.3556,1761
7.3583,1735
7.3611,1713
7.3639,1699
7.3667,1692
7.3694,1686
7.3722,1696
7.3750,1699
7.3778,1697
7.3806,1698
7.3833,1694
7.3861,1695
7.3889,1687
7.3917,1684
7.3944,1685
7.3972,1689
7.4000,1696
7.4028,1694
7.4056,1692
7.4083,1678
7.4111,1652
7.4139,1612
7.4167,1552
7.4194,1505
7.4222,1492
7.4250,1504
7.4278,1542
7.4306,1618
7.4333,1766
7.4361,1957
7.4389,2169
7.4417,2411
7.4444,2695
7.4472,2968
7.4500,3172
7.4528,3260
7.4556,3194
7.4583,2963
7.4611,2564
7.4639,2076
7.4667,1647
7.4694,1378
7.4722,1287
7.4750,1326
7.4778,1432
7.4806,1539
7.4833,1637
7.4861,1677
7.4889,1669
7.4917,1645
7.4944,1619
7.4972,1600
7.5000,1597
7.5028,1614
7.5056,1631
7.5083,1657
7.5111,1659
7.5139,1657
7.5167,1650
7.5194,1646
7.5222,1643
7.5250,1660
7.5278,1672
7.5306,1675
7.5333,1679
7.5361,1685
7.5389,1701
7.5417,1713
7.5444,1714
7.5472,1707
7.5500,1713
7.5528,1707
7.5556,1699
7.5583,1697
7.5611,1701
7.5639,1710
7.5667,1713
7.5694,1720
7.5722,1725
7.5750,1728
7.5778,1733
7.5806,1733
7.5833,1738
7.5861,1741
7.5889,1740
7.5917,1748
7.5944,1755
7.5972,1754
7.6000,1755
7.6028,1761
7.6056,1760
7.6083,1771
7.6111,1780
7.6139,1783
7.6167,1789
7.6194,1795
7.6222,1805
7.6250,1815
7.6278,1804
7.6306,1810
7.6333,1813
7.6361,1811
7.6389,1800
7.6417,1808
7.6444,1809
7.6472,1815
7.6500,1816
7.6528,1827
7.6556,1827
7.6583,1825
7.6611,1763
7.6639,1771
7.6667,1763
7.6694,1760
7.6722,1755
7.6750,1751
7.6778,1762
7.6806,1767
7.6833,1774
7.6861,1780
7.6889,1790
7.6917,1797
7.6944,1790
7.6972,1790
7.7000,1798
7.7028,1815
7.7056,1815
7.7083,1821
7.7111,1827
7.7139,1827
7.7167,1823
7.7194,1825
7.7222,1828
7.7250,1836
7.7278,1843
7.7306,1840
7.7333,1827
7.7361,1826
7.7389,1841
7.7417,1848
7.7444,1850
7.7472,1847
7.7500,1830
7.7528,1830
7.7556,1819
7.7583,1815
7.7611,1831
7.7639,1844
7.7667,1836
7.7694,1832
7.7722,1831
7.7750,1812
7.7778,1811
7.7806,1811
7.7833,1809
7.7861,1812
7.7889,1824
7.7917,1834
7.7944,1850
7.7972,1849
7.8000,1874
7.8028,1893
7.8056,1905
7.8083,1919
7.8111,1924
7.8139,1930
7.8167,1932
7.8194,1962
7.8222,1982
7.8250,2000
7.8278,2015
7.8306,2017
7.8333,2013
7.8361,2038
7.8389,2045
7.8417,2047
7.8444,2025
7.8472,1990
7.8500,1938
7.8528,1897
7.8556,1858
7.8583,1834
7.8611,1821
7.8639,1798
7.8667,1784
7.8694,1765
7.8722,1740
7.8750,1733
7.8778,1724
7.8806,1726
7.8833,1729
7.8861,1718
7.8889,1734
7.8917,1721
7.8944,1714
7.8972,1709
7.9000,1715
7.9028,1718
7.9056,1727
7.9083,1734
7.9111,1729
7.9139,1717
7.9167,1710
7.9194,1715
7.9222,1711
7.9250,1694
7.9278,1666
7.9306,1615
7.9333,1572
7.9361,1536
7.9389,1535
7.9417,1562
7.9444,1623
7.9472,1756
7.9500,1941
7.9528,2161
7.9556,2398
7.9583,2691
7.9611,2995
7.9639,3203
7.9667,3321
7.9694,3309
7.9722,3130
7.9750,2747
7.9778,2274
7.9806,1811
7.9833,1487
7.9861,1355
7.9889,1357
7.9917,1435
7.9944,1528
7.9972,1630
8.0000,1698
8.0028,1713
8.0056,1700
8.0083,1680
8.0111,1652
8.0139,1647
8.0167,1653
8.0194,1669
8.0222,1683
8.0250,1700
8.0278,1697
8.0306,1701
8.0333,1686
8.0361,1692
8.0389,1708
8.0417,1707
8.0444,1715
8.0472,1713
8.0500,1710
8.0528,1718
8.0556,1716
8.0583,1723
8.0611,1730
8.0639,1736
8.0667,1743
8.0694,1733
8.0722,1734
8.0750,1740
8.0778,1745
8.0806,1754
8.0833,1764
8.0861,1770
8.0889,1777
8.0917,1767
8.0944,1770
8.0972,1777
8.1000,1790
8.1028,1800
8.1056,1797
8.1083,1795
8.1111,1794
8.1139,1798
8.1167,1809
8.1194,1824
8.1222,1818
8.1250,1811
8.1278,1806
8.1306,1812
8.1333,1823
8.1361,1847
8.1389,1858
8.1417,1854
8.1444,1843
8.1472,1834
8.1500,1830
8.1528,1847
8.1556,1839
8.1583,1858
8.1611,1851
8.1639,1856
8.1667,1858
8.1694,1858
8.1722,1866
8.1750,1801
8.1778,1806
8.1806,1809
8.1833,1809
8.1861,1795
8.1889,1781
8.1917,1777
8.1944,1785
8.1972,1799
8.2000,1809
8.2028,1808
8.2056,1793
8.2083,1784
8.2111,1797
8.2139,1807
8.2167,1823
8.2194,1832
8.2222,1850
8.2250,1855
8.2278,1855
8.2306,1841
8.2333,1835
8.2361,1846
8.2389,1851
8.2417,1851
8.2444,1855
8.2472,1853
8.2500,1854
8.2528,1852
8.2556,1848
8.2583,1856
8.2611,1854
8.2639,1850
8.2667,1836
8.2694,1828
8.2722,1830
8.2750,1832
8.2778,1838
8.2806,1837
8.2833,1846
8.2861,1843
8.2889,1830
8.2917,1828
8.2944,1831
8.2972,1837
8.3000,1854
8.3028,1873
8.3056,1895
8.3083,1913
8.3111,1923
8.3139,1941
8.3167,1951
8.3194,1949
8.3222,1962
8.3250,1970
8.3278,1987
8.3306,2001
8.3333,2022
8.3361,2034
8.3389,2034
8.3417,2049
8.3444,2054
8.3472,2053
8.3500,2029
8.3528,1993
8.3556,1962
8.3583,1907
8.3611,1868
8.3639,1841
8.3667,1821
8.3694,1804
8.3722,1781
8.3750,1765
8.3778,1744
8.3806,1732
8.3833,1725
8.3861,1720
8.3889,1714
8.3917,1707
8.3944,1698
8.3972,1694
8.4000,1696
8.4028,1691
8.4056,1695
8.4083,1687
8.4111,1685
8.4139,1664
8.4167,1672
8.4194,1677
8.4222,1686
8.4250,1682
8.4278,1679
8.4306,1647
8.4333,1628
8.4361,1578
8.4389,1537
8.4417,1498
8.4444,1487
8.4472,1497
8.4500,1540
8.4528,1639
8.4556,1796
8.4583,2002
8.4611,2218
8.4639,2473
8.4667,2783
8.4694,3048
8.4722,3215
8.4750,3264
8.4778,3132
8.4806,2842
8.4833,2392
8.4861,1916
8.4889,1526
8.4917,1304
8.4944,1266
8.4972,1334
8.5000,1444
8.5028,1547
8.5056,1627
8.5083,1653
8.5111,1658
8.5139,1647
8.5167,1621
8.5194,1600
8.5222,1603
8.5250,1610
8.5278,1616
8.5306,1611
8.5333,1611
8.5361,1620
8.5389,1629
8.5417,1633
8.5444,1642
8.5472,1643
8.5500,1648
8.5528,1652
8.5556,1654
8.5583,1655
8.5611,1654
8.5639,1669
8.5667,1669
8.5694,1679
8.5722,1666
8.5750,1655
8.5778,1659
8.5806,1666
8.5833,1674
8.5861,1687
8.5889,1701
8.5917,1714
8.5944,1695
8.5972,1696
8.6000,1692
8.6028,1704
8.6056,1712
8.6083,1715
8.6111,1713
8.6139,1702
8.6167,1717
8.6194,1727
8.6222,1737
8.6250,1746
8.6278,1765
8.6306,1762
8.6333,1764
8.6361,1754
8.6389,1747
8.6417,1743
8.6444,1760
8.6472,1764
8.6500,1763
8.6528,1763
8.6556,1769
8.6583,1779
8.6611,1778
8.6639,1786
8.6667,1784
8.6694,1782
8.6722,1778
8.6750,1776
8.6778,1772
8.6806,1686
8.6833,1692
8.6861,1689
8.6889,1706
8.6917,1705
8.6944,1701
8.6972,1704
8.7000,1700
8.7028,1710
8.7056,1702
8.7083,1690
8.7111,1691
8.7139,1693
8.7167,1701
8.7194,1726
8.7222,1739
8.7250,1738
8.7278,1750
8.7306,1743
8.7333,1749
8.7361,1739
8.7389,1740
8.7417,1748
8.7444,1745
8.7472,1762
8.7500,1769
8.7528,1766
8.7556,1756
8.7583,1761
8.7611,1769
8.7639,1767
8.7667,1770
8.7694,1763
8.7722,1763
8.7750,1761
8.7778,1755
8.7806,1745
8.7833,1744
8.7861,1754
8.7889,1741
8.7917,1745
8.7944,1730
8.7972,1730
8.8000,1734
8.8028,1735
8.8056,1741
8.8083,1731
8.8111,1723
8.8139,1718
8.8167,1715
8.8194,1718
8.8222,1733
8.8250,1738
8.8278,1742
8.8306,1764
8.8333,1778
8.8361,1791
8.8389,1808
8.8417,1833
8.8444,1841
8.8472,1849
8.8500,1865
8.8528,1889
8.8556,1904
8.8583,1938
8.8611,1946
8.8639,1945
8.8667,1940
8.8694,1950
8.8722,1960
8.8750,1956
8.8778,1947
8.8806,1911
8.8833,1870
8.8861,1822
8.8889,1774
8.8917,1741
8.8944,1719
8.8972,1700
8.9000,1693
8.9028,1668
8.9056,1659
8.9083,1661
8.9111,1648
8.9139,1635
8.9167,1637
8.9194,1621
8.9222,1626
8.9250,1625
8.9278,1633
8.9306,1633
8.9333,1624
8.9361,1612
8.9389,1602
8.9417,1600
8.9444,1603
8.9472,1609
8.9500,1608
8.9528,1610
8.9556,1605
8.9583,1592
8.9611,1561
8.9639,1512
8.9667,1460
8.9694,1427
8.9722,1423
8.9750,1435
8.9778,1471
8.9806,1572
8.9833,1740
8.9861,1935
8.9889,2153
8.9917,2412
8.9944,2707
8.9972,2955
9.0000,3134
9.0028,3179
9.0056,3065
9.0083,2781
9.0111,2342
9.0139,1880
9.0167,1468
9.0194,1263
9.0222,1208
9.0250,1273
9.0278,1381
9.0306,1488
9.0333,1562
9.0361,1590
9.0389,1581
9.0417,1552
9.0444,1539
9.0472,1525
9.0500,1524
9.0528,1544
9.0556,1560
9.0583,1569
9.0611,1568
9.0639,1568
9.0667,1555
9.0694,1564
9.0722,1580
9.0750,1589
9.0778,1593
9.0806,1597
9.0833,1599
9.0861,1601
9.0889,1602
9.0917,1612
9.0944,1611
9.0972,1613
9.1000,1602
9.1028,1599
9.1056,1598
9.1083,1610
9.1111,1620
9.1139,1626
9.1167,1630
9.1194,1636
9.1222,1630
9.1250,1636
9.1278,1629
9.1306,1637
9.1333,1650
9.1361,1650
9.1389,1655
9.1417,1655
9.1444,1657
9.1472,1658
9.1500,1661
9.1528,1672
9.1556,1673
9.1583,1674
9.1611,1682
9.1639,1685
9.1667,1692
9.1694,1706
9.1722,1721
9.1750,1727
9.1778,1727
9.1806,1728
9.1833,1732
9.1861,1714
9.1889,1717
9.1917,1714
9.1944,1718
9.1972,1732
9.2000,1727
9.2028,1740
9.2056,1740
9.2083,1623
9.2111,1630
9.2139,1634
9.2167,1637
9.2194,1642
9.2222,1638
9.2250,1642
9.2278,1647
9.2306,1649
9.2333,1651
9.2361,1656
9.2389,1657
9.2417,1653
9.2444,1654
9.2472,1664
9.2500,1671
9.2528,1671
9.2556,1682
9.2583,1679
9.2611,1683
9.2639,1691
9.2667,1687
9.2694,1692
9.2722,1691
9.2750,1695
9.2778,1693
9.2806,1696
9.2833,1704
9.2861,1699
9.2889,1703
9.2917,1701
9.2944,1706
9.2972,1703
9.3000,1689
9.3028,1687
9.3056,1683
9.3083,1687
9.3111,1694
9.3139,1690
9.3167,1695
9.3194,1687
9.3222,1679
9.3250,1682
9.3278,1680
9.3306,1679
9.3333,1678
9.3361,1666
9.3389,1674
9.3417,1675
9.3444,1684
9.3472,1690
9.3500,1686
9.3528,1686
9.3556,1688
9.3583,1683
9.3611,1679
9.3639,1669
9.3667,1667
9.3694,1671
9.3722,1696
9.3750,1707
9.3778,1721
9.3806,1725
9.3833,1739
9.3861,1769
9.3889,1797
9.3917,1801
9.3944,1805
9.3972,1811
9.4000,1827
9.4028,1846
9.4056,1858
9.4083,1875
9.4111,1898
9.4139,1914
9.4167,1913
9.4194,1919
9.4222,1910
9.4250,1916
9.4278,1908
9.4306,1882
9.4333,1846
9.4361,1789
9.4389,1747
9.4417,1717
9.4444,1705
9.4472,1689
9.4500,1663
9.4528,1651
9.4556,1630
9.4583,1603
9.4611,1600
9.4639,1595
9.4667,1607
9.4694,1602
9.4722,1610
9.4750,1615
9.4778,1607
9.4806,1598
9.4833,1586
9.4861,1573
9.4889,1572
9.4917,1564
9.4944,1578
9.4972,1589
9.5000,1591
9.5028,1594
9.5056,1581
9.5083,1556
9.5111,1524
9.5139,1483
9.5167,1451
9.5194,1430
9.5222,1437
9.5250,1459
9.5278,1520
9.5306,1644
9.5333,1812
9.5361,2008
9.5389,2222
9.5417,2488
9.5444,2778
9.5472,2997
9.5500,3138
9.5528,3140
9.5556,2970
9.5583,2618
9.5611,2133
9.5639,1671
9.5667,1333
9.5694,1191
9.5722,1181
9.5750,1267
9.5778,1377
9.5806,1482
9.5833,1556
9.5861,1567
9.5889,1552
9.5917,1527
9.5944,1511
9.5972,1500
9.6000,1512
9.6028,1521
9.6056,1524
9.6083,1529
9.6111,1529
9.6139,1528
9.6167,1535
9.6194,1540
9.6222,1555
9.6250,1574
9.6278,1571
9.6306,1554
9.6333,1564
9.6361,1574
9.6389,1580
9.6417,1604
9.6444,1609
9.6472,1613
9.6500,1604
9.6528,1589
9.6556,1582
9.6583,1575
9.6611,1593
9.6639,1603
9.6667,1610
9.6694,1610
9.6722,1612
9.6750,1611
9.6778,1615
9.6806,1633
9.6833,1635
9.6861,1637
9.6889,1641
9.6917,1636
9.6944,1643
9.6972,1652
9.7000,1668
9.7028,1681
9.7056,1696
9.7083,1698
9.7111,1688
9.7139,1685
9.7167,1693
9.7194,1702
9.7222,1722
9.7250,1719
9.7278,1728
9.7306,1736
9.7333,1739
9.7361,1741
9.7389,1728
9.7417,1737
9.7444,1746
9.7472,1748
9.7500,1751
9.7528,1749
9.7556,1745
9.7583,1651
9.7611,1658
9.7639,1650
9.7667,1645
9.7694,1629
9.7722,1628
9.7750,1635
9.7778,1639
9.7806,1646
9.7833,1653
9.7861,1669
9.7889,1675
9.7917,1670
9.7944,1671
9.7972,1677
9.8000,1669
9.8028,1677
9.8056,1674
9.8083,1680
9.8111,1688
9.8139,1694
9.8167,1703
9.8194,1706
9.8222,1707
9.8250,1707
9.8278,1702
9.8306,1700
9.8333,1700
9.8361,1691
9.8389,1707
9.8417,1714
9.8444,1714
9.8472,1706
9.8500,1710
9.8528,1713
9.8556,1712
9.8583,1711
9.8611,1714
9.8639,1716
9.8667,1712
9.8694,1707
9.8722,1706
9.8750,1717
9.8778,1714
9.8806,1726
9.8833,1732
9.8861,1758
9.8889,1777
9.8917,1792
9.8944,1799
9.8972,1812
9.9000,1828
9.9028,1835
9.9056,1856
9.9083,1870
9.9111,1884
9.9139,1901
9.9167,1905
9.9194,1905
9.9222,1914
9.9250,1913
9.9278,1918
9.9306,1919
9.9333,1906
9.9361,1880
9.9389,1846
9.9417,1807
9.9444,1760
9.9472,1725
9.9500,1702
9.9528,1683
9.9556,1659
9.9583,1647
9.9611,1650
9.9639,1643
9.9667,1637
9.9694,1626
9.9722,1603
9.9750,1596
9.9778,1602
9.9806,1602
9.9833,1604
9.9861,1598
9.9889,1599
9.9917,1596
9.9944,1604
9.9972,1598
10.0000,1606
10.0028,1605
10.0056,1600
10.0083,1603
10.0111,1596
10.0139,1578
10.0167,1552
10.0194,1503
10.0222,1455
10.0250,1412
10.0278,1393
10.0306,1398
10.0333,1436
10.0361,1543
10.0389,1724
10.0417,1925
10.0444,2134
10.0472,2420
10.0500,2732
10.0528,2995
10.0556,3174
10.0583,3230
10.0611,3151
10.0639,2881
10.0667,2421
10.0694,1921
10.0722,1503
10.0750,1262
10.0778,1188
10.0806,1239
10.0833,1324
10.0861,1423
10.0889,1514
10.0917,1573
10.0944,1600
10.0972,1595
10.1000,1569
10.1028,1556
10.1056,1545
10.1083,1553
10.1111,1555
10.1139,1556
10.1167,1555
10.1194,1561
10.1222,1559
10.1250,1568
10.1278,1593
10.1306,1590
10.1333,1593
10.1361,1594
10.1389,1593
10.1417,1598
10.1444,1604
10.1472,1603
10.1500,1608
10.1528,1616
10.1556,1618
10.1583,1623
10.1611,1632
10.1639,1635
10.1667,1633
10.1694,1639
10.1722,1655
10.1750,1654
10.1778,1656
10.1806,1648
10.1833,1645
10.1861,1637
10.1889,1655
10.1917,1664
10.1944,1669
10.1972,1679
10.2000,1677
10.2028,1671
10.2056,1671
10.2083,1667
10.2111,1678
10.2139,1697
10.2167,1715
10.2194,1729
10.2222,1725
10.2250,1727
10.2278,1723
10.2306,1722
10.2333,1729
10.2361,1715
10.2389,1702
10.2417,1709
10.2444,1725
10.2472,1729
10.2500,1734
10.2528,1734
10.2556,1753
10.2583,1747
10.2611,1764
10.2639,1653
10.2667,1661
10.2694,1665
10.2722,1676
10.2750,1671
10.2778,1668
10.2806,1660
10.2833,1649
10.2861,1666
10.2889,1679
10.2917,1677
10.2944,1676
10.2972,1674
10.3000,1681
10.3028,1699
10.3056,1710
10.3083,1720
10.3111,1717
10.3139,1704
10.3167,1692
10.3194,1694
10.3222,1705
10.3250,1718
10.3278,1723
10.3306,1733
10.3333,1732
10.3361,1736
10.3389,1729
10.3417,1731
10.3444,1736
10.3472,1734
10.3500,1732
10.3528,1720
10.3556,1720
10.3583,1731
10.3611,1735
10.3639,1755
10.3667,1772
10.3694,1779
10.3722,1806
10.3750,1821
10.3778,1817
10.3806,1834
10.3833,1845
10.3861,1858
10.3889,1870
10.3917,1879
10.3944,1888
10.3972,1910
10.4000,1925
10.4028,1946
10.4056,1957
10.4083,1967
10.4111,1956
10.4139,1939
10.4167,1915
10.4194,1877
10.4222,1831
10.4250,1799
10.4278,1766
10.4306,1751
10.4333,1736
10.4361,1735
10.4389,1703
10.4417,1687
10.4444,1674
10.4472,1674
10.4500,1680
10.4528,1671
10.4556,1659
10.4583,1652
10.4611,1646
10.4639,1644
10.4667,1641
10.4694,1644
10.4722,1642
10.4750,1634
10.4778,1624
10.4806,1612
10.4833,1631
10.4861,1634
10.4889,1638
10.4917,1627
10.4944,1620
10.4972,1601
10.5000,1571
10.5028,1528
10.5056,1469
10.5083,1422
10.5111,1401
10.5139,1404
10.5167,1439
10.5194,1518
10.5222,1688
10.5250,1888
10.5278,2114
10.5306,2373
10.5333,2684
10.5361,2970
10.5389,3159
10.5417,3264
10.5444,3210
10.5472,2970
10.5500,2548
10.5528,2030
10.5556,1580
10.5583,1300
10.5611,1195
10.5639,1237
10.5667,1326
10.5694,1443
10.5722,1542
10.5750,1595
10.5778,1598
10.5806,1586
10.5833,1562
10.5861,1548
10.5889,1542
10.5917,1547
10.5944,1566
10.5972,1563
10.6000,1564
10.6028,1574
10.6056,1571
10.6083,1575
10.6111,1589
10.6139,1599
10.6167,1601
10.6194,1591
10.6222,1604
10.6250,1593
10.6278,1586
10.6306,1593
10.6333,1605
10.6361,1623
10.6389,1626
10.6417,1624
10.6444,1614
10.6472,1623
10.6500,1622
10.6528,1631
10.6556,1629
10.6583,1631
10.6611,1635
10.6639,1648
10.6667,1646
10.6694,1652
10.6722,1650
10.6750,1660
10.6778,1652
10.6806,1658
10.6833,1660
10.6861,1659
10.6889,1667
10.6917,1682
10.6944,1686
10.6972,1690
10.7000,1697
10.7028,1693
10.7056,1682
10.7083,1689
10.7111,1697
10.7139,1711
10.7167,1717
10.7194,1721
10.7222,1721
10.7250,1720
10.7278,1730
10.7306,1739
10.7333,1738
10.7361,1744
10.7389,1745
10.7417,1744
10.7444,1738
10.7472,1733
10.7500,1649
10.7528,1662
10.7556,1665
10.7583,1659
10.7611,1659
10.7639,1653
10.7667,1655
10.7694,1663
10.7722,1673
10.7750,1669
10.7778,1665
10.7806,1662
10.7833,1660
10.7861,1670
10.7889,1690
10.7917,1718
10.7944,1711
10.7972,1709
10.8000,1702
10.8028,1684
10.8056,1690
10.8083,1698
10.8111,1714
10.8139,1722
10.8167,1704
10.8194,1695
10.8222,1693
10.8250,1701
10.8278,1712
10.8306,1722
10.8333,1735
10.8361,1729
10.8389,1719
10.8417,1709
10.8444,1695
10.8472,1687
10.8500,1708
10.8528,1718
10.8556,1727
10.8583,1747
10.8611,1748
10.8639,1776
10.8667,1790
10.8694,1812
10.8722,1818
10.8750,1838
10.8778,1844
10.8806,1851
10.8833,1854
10.8861,1872
10.8889,1898
10.8917,1926
10.8944,1954
10.8972,1960
10.9000,1958
10.9028,1957
10.9056,1947
10.9083,1923
10.9111,1877
10.9139,1842
10.9167,1804
10.9194,1770
10.9222,1746
10.9250,1715
10.9278,1709
10.9306,1689
10.9333,1673
10.9361,1647
10.9389,1627
10.9417,1615
10.9444,1604
10.9472,1604
10.9500,1604
10.9528,1608
10.9556,1603
10.9583,1593
10.9611,1594
10.9639,1598
10.9667,1607
10.9694,1608
10.9722,1607
10.9750,1616
10.9778,1614
10.9806,1610
10.9833,1599
10.9861,1592
10.9889,1578
10.9917,1550
10.9944,1506
10.9972,1460
11.0000,1422
11.0028,1387
11.0056,1385
11.0083,1410
11.0111,1468
11.0139,1613
11.0167,1819
11.0194,2035
11.0222,2282
11.0250,2587
11.0278,2902
11.0306,3119
11.0333,3241
11.0361,3213
11.0389,2996
11.0417,2605
11.0444,2108
11.0472,1651
11.0500,1328
11.0528,1197
11.0556,1228
11.0583,1315
11.0611,1429
11.0639,1509
11.0667,1559
11.0694,1569
11.0722,1557
11.0750,1553
11.0778,1534
11.0806,1519
11.0833,1533
11.0861,1536
11.0889,1547
11.0917,1553
11.0944,1551
11.0972,1546
11.1000,1550
11.1028,1559
11.1056,1564
11.1083,1588
11.1111,1593
11.1139,1587
11.1167,1582
11.1194,1584
11.1222,1579
11.1250,1584
11.1278,1584
11.1306,1594
11.1333,1593
11.1361,1609
11.1389,1609
11.1417,1614
11.1444,1611
11.1472,1612
11.1500,1614
11.1528,1621
11.1556,1623
11.1583,1627
11.1611,1640
11.1639,1650
11.1667,1657
11.1694,1653
11.1722,1649
11.1750,1654
11.1778,1654
11.1806,1662
11.1833,1669
11.1861,1674
11.1889,1682
11.1917,1692
11.1944,1688
11.1972,1695
11.2000,1699
11.2028,1702
11.2056,1701
11.2083,1712
11.2111,1709
11.2139,1710
11.2167,1706
11.2194,1708
11.2222,1717
11.2250,1727
11.2278,1733
11.2306,1741
11.2333,1738
11.2361,1733
11.2389,1737
11.2417,1644
11.2444,1644
11.2472,1647
11.2500,1644
11.2528,1636
11.2556,1640
11.2583,1640
11.2611,1644
11.2639,1648
11.2667,1652
11.2694,1655
11.2722,1647
11.2750,1653
11.2778,1647
11.2806,1664
11.2833,1682
11.2861,1675
11.2889,1676
11.2917,1678
11.2944,1679
11.2972,1673
11.3000,1688
11.3028,1688
11.3056,1699
11.3083,1699
11.3111,1696
11.3139,1700
11.3167,1691
11.3194,1688
11.3222,1696
11.3250,1690
11.3278,1692
11.3306,1696
11.3333,1695
11.3361,1697
11.3389,1695
11.3417,1697
11.3444,1697
11.3472,1708
11.3500,1714
11.3528,1735
11.3556,1755
11.3583,1774
11.3611,1804
11.3639,1823
11.3667,1830
11.3694,1840
11.3722,1847
11.3750,1855
11.3778,1864
11.3806,1889
11.3833,1918
11.3861,1930
11.3889,1921
11.3917,1931
11.3944,1928
11.3972,1922
11.4000,1889
11.4028,1865
11.4056,1830
11.4083,1791
11.4111,1768
11.4139,1730
11.4167,1694
11.4194,1668
11.4222,1644
11.4250,1625
11.4278,1616
11.4306,1604
11.4333,1586
11.4361,1576
11.4389,1572
11.4417,1571
11.4444,1570
11.4472,1570
11.4500,1565
11.4528,1557
11.4556,1549
11.4583,1563
11.4611,1577
11.4639,1587
11.4667,1587
11.4694,1575
11.4722,1572
11.4750,1566
11.4778,1559
11.4806,1557
11.4833,1531
11.4861,1483
11.4889,1408
11.4917,1347
11.4944,1322
11.4972,1318
11.5000,1351
11.5028,1462
11.5056,1628
11.5083,1835
11.5111,2063
11.5139,2344
11.5167,2668
11.5194,2953
11.5222,3130
11.5250,3185
11.5278,3063
11.5306,2785
11.5333,2352
11.5361,1883
11.5389,1477
11.5417,1250
11.5444,1199
11.5472,1270
11.5500,1376
11.5528,1493
11.5556,1568
11.5583,1594
11.5611,1583
11.5639,1555
11.5667,1525
11.5694,1511
11.5722,1509
11.5750,1531
11.5778,1553
11.5806,1571
11.5833,1555
11.5861,1556
11.5889,1554
11.5917,1562
11.5944,1561
11.5972,1571
11.6000,1567
11.6028,1573
11.6056,1569
11.6083,1580
11.6111,1600
11.6139,1604
11.6167,1614
11.6194,1624
11.6222,1623
11.6250,1623
11.6278,1611
11.6306,1613
11.6333,1633
11.6361,1640
11.6389,1644
11.6417,1630
11.6444,1625
11.6472,1629
11.6500,1632
11.6528,1648
11.6556,1669
11.6583,1661
11.6611,1665
11.6639,1672
11.6667,1683
11.6694,1689
11.6722,1685
11.6750,1682
11.6778,1692
11.6806,1689
11.6833,1706
11.6861,1709
11.6889,1709
11.6917,1723
11.6944,1724
11.6972,1741
11.7000,1736
11.7028,1742
11.7056,1755
11.7083,1747
11.7111,1746
11.7139,1755
11.7167,1747
11.7194,1757
11.7222,1742
11.7250,1756
11.7278,1766
11.7306,1672
11.7333,1675
11.7361,1671
11.7389,1674
11.7417,1664
11.7444,1663
11.7472,1669
11.7500,1672
11.7528,1674
11.7556,1694
11.7583,1705
11.7611,1704
11.7639,1690
11.7667,1686
11.7694,1683
11.7722,1697
11.7750,1697
11.7778,1706
11.7806,1695
11.7833,1693
11.7861,1698
11.7889,1695
11.7917,1703
11.7944,1716
11.7972,1713
11.8000,1723
11.8028,1733
11.8056,1737
11.8083,1726
11.8111,1736
11.8139,1737
11.8167,1742
11.8194,1735
11.8222,1737
11.8250,1734
11.8278,1733
11.8306,1728
11.8333,1736
11.8361,1739
11.8389,1737
11.8417,1742
11.8444,1741
11.8472,1733
11.8500,1731
11.8528,1720
11.8556,1740
11.8583,1752
11.8611,1768
11.8639,1787
11.8667,1819
11.8694,1841
11.8722,1853
11.8750,1861
11.8778,1865
11.8806,1862
11.8833,1880
11.8861,1911
11.8889,1923
11.8917,1955
11.8944,1968
11.8972,1979
11.9000,1987
11.9028,1981
11.9056,1982
11.9083,1957
11.9111,1927
11.9139,1890
11.9167,1861
11.9194,1816
11.9222,1776
11.9250,1747
11.9278,1722
11.9306,1708
11.9333,1693
11.9361,1681
11.9389,1648
11.9417,1644
11.9444,1624
11.9472,1613
11.9500,1614
11.9528,1626
11.9556,1635
11.9583,1624
11.9611,1629
11.9639,1617
11.9667,1609
11.9694,1610
11.9722,1624
11.9750,1623
11.9778,1626
11.9806,1631
11.9833,1625
11.9861,1618
11.9889,1601
11.9917,1593
11.9944,1564
11.9972,1520
12.0000,1478
12.0028,1435
12.0056,1422
12.0083,1421
12.0111,1455
12.0139,1556
12.0167,1735
12.0194,1944
12.0222,2162
12.0250,2438
12.0278,2753
12.0306,3019
12.0333,3196
12.0361,3244
12.0389,3108
12.0417,2799
12.0444,2359
12.0472,1876
12.0500,1477
12.0528,1268
12.0556,1226
12.0583,1305
12.0611,1429
12.0639,1538
12.0667,1611
12.0694,1614
12.0722,1600
12.0750,1569
12.0778,1552
12.0806,1554
12.0833,1564
12.0861,1590
12.0889,1597
12.0917,1595
12.0944,1589
12.0972,1581
12.1000,1582
12.1028,1592
12.1056,1605
12.1083,1621
12.1111,1630
12.1139,1625
12.1167,1627
12.1194,1630
12.1222,1634
12.1250,1637
12.1278,1647
12.1306,1656
12.1333,1652
12.1361,1647
12.1389,1643
12.1417,1646
12.1444,1662
12.1472,1667
12.1500,1676
12.1528,1680
12.1556,1669
12.1583,1669
12.1611,1662
12.1639,1666
12.1667,1674
12.1694,1688
12.1722,1706
12.1750,1710
12.1778,1706
12.1806,1710
12.1833,1708
12.1861,1707
12.1889,1715
12.1917,1717
12.1944,1720
12.1972,1719
12.2000,1722
12.2028,1735
12.2056,1770
12.2083,1780
12.2111,1779
12.2139,1782
12.2167,1776
12.2194,1771
12.2222,1765
12.2250,1762
12.2278,1766
12.2306,1793
12.2333,1793
12.2361,1800
12.2389,1798
12.2417,1676
12.2444,1680
12.2472,1678
12.2500,1687
12.2528,1679
12.2556,1685
12.2583,1684
12.2611,1675
12.2639,1677
12.2667,1686
12.2694,1687
12.2722,1687
12.2750,1694
12.2778,1697
12.2806,1697
12.2833,1696
12.2861,1708
12.2889,1711
12.2917,1712
12.2944,1711
12.2972,1715
12.3000,1718
12.3028,1721
12.3056,1732
12.3083,1731
12.3111,1733
12.3139,1736
12.3167,1730
12.3194,1730
12.3222,1744
12.3250,1742
12.3278,1749
12.3306,1754
12.3333,1753
12.3361,1744
12.3389,1733
12.3417,1731
12.3444,1726
12.3472,1732
12.3500,1741
12.3528,1741
12.3556,1741
12.3583,1727
12.3611,1730
12.3639,1731
12.3667,1733
12.3694,1732
12.3722,1739
12.3750,1732
12.3778,1728
12.3806,1725
12.3833,1721
12.3861,1721
12.3889,1720
12.3917,1709
12.3944,1703
12.3972,1695
12.4000,1695
12.4028,1711
12.4056,1719
12.4083,1721
12.4111,1723
12.4139,1735
12.4167,1762
12.4194,1789
12.4222,1819
12.4250,1835
12.4278,1843
12.4306,1848
12.4333,1847
12.4361,1865
12.4389,1886
12.4417,1916
12.4444,1933
12.4472,1932
12.4500,1939
12.4528,1944
12.4556,1944
12.4583,1928
12.4611,1913
12.4639,1886
12.4667,1843
12.4694,1795
12.4722,1753
12.4750,1726
12.4778,1707
12.4806,1688
12.4833,1679
12.4861,1654
12.4889,1646
12.4917,1636
12.4944,1632
12.4972,1628
12.5000,1627
12.5028,1615
12.5056,1623
12.5083,1619
12.5111,1618
12.5139,1617
12.5167,1603
12.5194,1606
12.5222,1607
12.5250,1613
12.5278,1614
12.5306,1609
12.5333,1601
12.5361,1593
12.5389,1588
12.5417,1583
12.5444,1566
12.5472,1530
12.5500,1487
12.5528,1446
12.5556,1424
12.5583,1439
12.5611,1471
12.5639,1552
12.5667,1716
12.5694,1909
12.5722,2118
12.5750,2376
12.5778,2672
12.5806,2934
12.5833,3102
12.5861,3179
12.5889,3072
12.5917,2811
12.5944,2378
12.5972,1897
12.6000,1493
12.6028,1258
12.6056,1194
12.6083,1258
12.6111,1356
12.6139,1458
12.6167,1541
12.6194,1583
12.6222,1580
12.6250,1563
12.6278,1546
12.6306,1541
12.6333,1532
12.6361,1540
12.6389,1539
12.6417,1546
12.6444,1553
12.6472,1563
12.6500,1565
12.6528,1561
12.6556,1571
12.6583,1581
12.6611,1575
12.6639,1578
12.6667,1573
12.6694,1588
12.6722,1601
12.6750,1614
12.6778,1628
12.6806,1629
12.6833,1625
12.6861,1621
12.6889,1628
12.6917,1626
12.6944,1633
12.6972,1630
12.7000,1632
12.7028,1638
12.7056,1633
12.7083,1646
12.7111,1652
12.7139,1669
12.7167,1677
12.7194,1678
12.7222,1679
12.7250,1681
12.7278,1675
12.7306,1683
12.7333,1680
12.7361,1684
12.7389,1686
12.7417,1700
12.7444,1714
12.7472,1715
12.7500,1722
12.7528,1731
12.7556,1737
12.7583,1744
12.7611,1741
12.7639,1740
12.7667,1750
12.7694,1739
12.7722,1739
12.7750,1745
12.7778,1763
12.7806,1774
12.7833,1771
12.7861,1764
12.7889,1762
12.7917,1642
12.7944,1639
12.7972,1644
12.8000,1656
12.8028,1649
12.8056,1660
12.8083,1654
12.8111,1664
12.8139,1662
12.8167,1662
12.8194,1661
12.8222,1672
12.8250,1665
12.8278,1671
12.8306,1678
12.8333,1691
12.8361,1686
12.8389,1680
12.8417,1677
12.8444,1672
12.8472,1687
12.8500,1710
12.8528,1725
12.8556,1731
12.8583,1740
12.8611,1738
12.8639,1735
12.8667,1728
12.8694,1731
12.8722,1738
12.8750,1744
12.8778,1747
12.8806,1748
12.8833,1753
12.8861,1746
12.8889,1747
12.8917,1737
12.8944,1744
12.8972,1736
12.9000,1734
12.9028,1732
12.9056,1725
12.9083,1727
12.9111,1738
12.9139,1735
12.9167,1735
12.9194,1722
12.9222,1717
12.9250,1719
12.9278,1713
12.9306,1721
12.9333,1725
12.9361,1728
12.9389,1730
12.9417,1722
12.9444,1715
12.9472,1717
12.9500,1719
12.9528,1720
12.9556,1730
12.9583,1744
12.9611,1770
12.9639,1785
12.9667,1810
12.9694,1819
12.9722,1829
12.9750,1840
12.9778,1848
12.9806,1868
12.9833,1879
12.9861,1892
12.9889,1918
12.9917,1934
12.9944,1943
12.9972,1955
13.0000,1960
13.0028,1961
13.0056,1935
13.0083,1909
13.0111,1864
13.0139,1835
13.0167,1774
13.0194,1748
13.0222,1729
13.0250,1721
13.0278,1710
13.0306,1700
13.0333,1684
13.0361,1676
13.0389,1674
13.0417,1657
13.0444,1638
13.0472,1633
13.0500,1632
13.0528,1635
13.0556,1649
13.0583,1648
13.0611,1651
13.0639,1646
13.0667,1643
13.0694,1641
13.0722,1644
13.0750,1631
13.0778,1638
13.0806,1639
13.0833,1635
13.0861,1613
13.0889,1602
13.0917,1570
13.0944,1530
13.0972,1485
13.1000,1460
13.1028,1460
13.1056,1483
13.1083,1526
13.1111,1647
13.1139,1825
13.1167,2033
13.1194,2264
13.1222,2525
13.1250,2807
13.1278,3033
13.1306,3181
13.1333,3224
13.1361,3101
13.1389,2786
13.1417,2315
13.1444,1852
13.1472,1495
13.1500,1301
13.1528,1254
13.1556,1311
13.1583,1403
13.1611,1509
13.1639,1567
13.1667,1600
13.1694,1606
13.1722,1573
13.1750,1576
13.1778,1565
13.1806,1572
13.1833,1583
13.1861,1587
13.1889,1591
13.1917,1593
13.1944,1586
13.1972,1592
13.2000,1598
13.2028,1607
13.2056,1627
13.2083,1627
13.2111,1628
13.2139,1610
13.2167,1614
13.2194,1613
13.2222,1623
13.2250,1641
13.2278,1653
13.2306,1657
13.2333,1651
13.2361,1645
13.2389,1652
13.2417,1658
13.2444,1667
13.2472,1673
13.2500,1676
13.2528,1686
13.2556,1690
13.2583,1681
13.2611,1695
13.2639,1695
13.2667,1693
13.2694,1698
13.2722,1718
13.2750,1707
13.2778,1704
13.2806,1722
13.2833,1725
13.2861,1735
13.2889,1736
13.2917,1721
13.2944,1726
13.2972,1725
13.3000,1748
13.3028,1769
13.3056,1764
13.3083,1774
13.3111,1767
13.3139,1760
13.3167,1774
13.3194,1763
13.3222,1768
13.3250,1772
13.3278,1771
13.3306,1777
13.3333,1774
13.3361,1778
13.3389,1670
13.3417,1680
13.3444,1680
13.3472,1673
13.3500,1671
13.3528,1672
13.3556,1667
13.3583,1659
13.3611,1669
13.3639,1670
13.3667,1668
13.3694,1680
13.3722,1678
13.3750,1678
13.3778,1676
13.3806,1697
13.3833,1700
13.3861,1706
13.3889,1714
13.3917,1715
13.3944,1714
13.3972,1713
13.4000,1727
13.4028,1739
13.4056,1757
13.4083,1749
13.4111,1741
13.4139,1744
13.4167,1746
13.4194,1755
13.4222,1756
13.4250,1756
13.4278,1770
13.4306,1763
13.4333,1760
13.4361,1750
13.4389,1738
13.4417,1734
13.4444,1730
13.4472,1737
13.4500,1728
13.4528,1728
13.4556,1729
13.4583,1728
13.4611,1731
13.4639,1733
13.4667,1736
13.4694,1726
13.4722,1721
13.4750,1719
13.4778,1709
13.4806,1714
13.4833,1720
13.4861,1719
13.4889,1714
13.4917,1720
13.4944,1727
13.4972,1721
13.5000,1729
13.5028,1734
13.5056,1726
13.5083,1716
13.5111,1709
13.5139,1711
13.5167,1727
13.5194,1751
13.5222,1777
13.5250,1795
13.5278,1812
13.5306,1822
13.5333,1826
13.5361,1824
13.5389,1839
13.5417,1861
13.5444,1891
13.5472,1913
13.5500,1934
13.5528,1939
13.5556,1932
13.5583,1936
13.5611,1940
13.5639,1951
13.5667,1936
13.5694,1906
13.5722,1869
13.5750,1812
13.5778,1770
13.5806,1738
13.5833,1737
13.5861,1731
13.5889,1705
13.5917,1688
13.5944,1662
13.5972,1655
13.6000,1643
13.6028,1636
13.6056,1629
13.6083,1623
13.6111,1635
13.6139,1620
13.6167,1618
13.6194,1612
13.6222,1614
13.6250,1608
13.6278,1613
13.6306,1613
13.6333,1623
13.6361,1630
13.6389,1640
13.6417,1634
13.6444,1624
13.6472,1605
13.6500,1586
13.6528,1551
13.6556,1509
13.6583,1472
13.6611,1459
13.6639,1461
13.6667,1484
13.6694,1547
13.6722,1691
13.6750,1877
13.6778,2080
13.6806,2316
13.6833,2595
13.6861,2870
13.6889,3058
13.6917,3163
13.6944,3137
13.6972,2938
13.7000,2565
13.7028,2080
13.7056,1647
13.7083,1357
13.7111,1242
13.7139,1263
13.7167,1341
13.7194,1446
13.7222,1542
13.7250,1585
13.7278,1600
13.7306,1588
13.7333,1564
13.7361,1551
13.7389,1548
13.7417,1556
13.7444,1567
13.7472,1568
13.7500,1574
13.7528,1572
13.7556,1570
13.7583,1563
13.7611,1582
13.7639,1607
13.7667,1614
13.7694,1616
13.7722,1609
13.7750,1602
13.7778,1600
13.7806,1610
13.7833,1624
13.7861,1636
13.7889,1638
13.7917,1632
13.7944,1640
13.7972,1642
13.8000,1654
13.8028,1671
13.8056,1673
13.8083,1658
13.8111,1665
13.8139,1654
13.8167,1664
13.8194,1663
13.8222,1672
13.8250,1689
13.8278,1695
13.8306,1687
13.8333,1690
13.8361,1698
13.8389,1701
13.8417,1721
13.8444,1712
13.8472,1726
13.8500,1732
13.8528,1732
13.8556,1739
13.8583,1747
13.8611,1754
13.8639,1758
13.8667,1773
13.8694,1777
13.8722,1772
13.8750,1768
13.8778,1773
13.8806,1782
13.8833,1792
13.8861,1791
13.8889,1800
13.8917,1789
13.8944,1784
13.8972,1791
13.9000,1679
13.9028,1680
13.9056,1678
13.9083,1675
13.9111,1672
13.9139,1676
13.9167,1669
13.9194,1686
13.9222,1705
13.9250,1708
13.9278,1696
13.9306,1687
13.9333,1680
13.9361,1681
13.9389,1683
13.9417,1692
13.9444,1701
13.9472,1712
13.9500,1710
13.9528,1707
13.9556,1711
13.9583,1727
13.9611,1734
13.9639,1740
13.9667,1731
13.9694,1718
13.9722,1713
13.9750,1716
13.9778,1729
13.9806,1740
13.9833,1751
13.9861,1752
13.9889,1738
13.9917,1751
13.9944,1742
13.9972,1740
14.0000,1729
14.0028,1735
14.0056,1736
14.0083,1740
14.0111,1741
14.0139,1733
14.0167,1734
14.0194,1742
14.0222,1735
14.0250,1733
14.0278,1734
14.0306,1740
14.0333,1740
14.0361,1739
14.0389,1745
14.0417,1735
14.0444,1732
14.0472,1730
14.0500,1716
14.0528,1712
14.0556,1704
14.0583,1717
14.0611,1713
14.0639,1721
14.0667,1732
14.0694,1725
14.0722,1723
14.0750,1718
14.0778,1726
14.0806,1730
14.0833,1743
14.0861,1762
14.0889,1784
14.0917,1813
14.0944,1830
14.0972,1831
14.1000,1847
14.1028,1851
14.1056,1865
14.1083,1865
14.1111,1893
14.1139,1915
14.1167,1929
14.1194,1942
14.1222,1957
14.1250,1961
14.1278,1968
14.1306,1948
14.1333,1936
14.1361,1895
14.1389,1857
14.1417,1821
14.1444,1786
14.1472,1747
14.1500,1733
14.1528,1722
14.1556,1709
14.1583,1689
14.1611,1670
14.1639,1656
14.1667,1653
14.1694,1638
14.1722,1622
14.1750,1619
14.1778,1613
14.1806,1625
14.1833,1631
14.1861,1640
14.1889,1629
14.1917,1620
14.1944,1618
14.1972,1618
14.2000,1612
14.2028,1619
14.2056,1627
14.2083,1638
14.2111,1631
14.2139,1619
14.2167,1602
14.2194,1569
14.2222,1532
14.2250,1477
14.2278,1476
14.2306,1474
14.2333,1498
14.2361,1572
14.2389,1708
14.2417,1886
14.2444,2077
14.2472,2291
14.2500,2564
14.2528,2838
14.2556,3040
14.2583,3144
14.2611,3101
14.2639,2892
14.2667,2509
14.2694,2047
14.2722,1612
14.2750,1318
14.2778,1213
14.2806,1248
14.2833,1355
14.2861,1472
14.2889,1569
14.2917,1612
14.2944,1603
14.2972,1579
14.3000,1571
14.3028,1561
14.3056,1566
14.3083,1570
14.3111,1592
14.3139,1605
14.3167,1603
14.3194,1594
14.3222,1583
14.3250,1584
14.3278,1599
14.3306,1619
14.3333,1627
14.3361,1622
14.3389,1616
14.3417,1603
14.3444,1608
14.3472,1613
14.3500,1629
14.3528,1647
14.3556,1655
14.3583,1650
14.3611,1652
14.3639,1655
14.3667,1664
14.3694,1671
14.3722,1671
14.3750,1671
14.3778,1663
14.3806,1664
14.3833,1668
14.3861,1678
14.3889,1684
14.3917,1687
14.3944,1691
14.3972,1705
14.4000,1699
14.4028,1699
14.4056,1700
14.4083,1711
14.4111,1722
14.4139,1725
14.4167,1723
14.4194,1725
14.4222,1739
14.4250,1746
14.4278,1767
14.4306,1781
14.4333,1804
14.4361,1815
14.4389,1805
14.4417,1793
14.4444,1796
14.4472,1791
14.4500,1792
14.4528,1793
14.4556,1813
14.4583,1797
14.4611,1804
14.4639,1800
14.4667,1660
14.4694,1664
14.4722,1666
14.4750,1655
14.4778,1655
14.4806,1664
14.4833,1666
14.4861,1675
14.4889,1674
14.4917,1676
14.4944,1658
14.4972,1662
14.5000,1659
14.5028,1661
14.5056,1677
14.5083,1681
14.5111,1681
14.5139,1683
14.5167,1679
14.5194,1684
14.5222,1688
14.5250,1694
14.5278,1691
14.5306,1696
14.5333,1697
14.5361,1703
14.5389,1698
14.5417,1697
14.5444,1693
14.5472,1703
14.5500,1719
14.5528,1724
14.5556,1715
14.5583,1718
14.5611,1715
14.5639,1715
14.5667,1713
14.5694,1724
14.5722,1724
14.5750,1725
14.5778,1713
14.5806,1706
14.5833,1704
14.5861,1708
14.5889,1710
14.5917,1724
14.5944,1726
14.5972,1721
14.6000,1716
14.6028,1701
14.6056,1693
14.6083,1696
14.6111,1690
14.6139,1693
14.6167,1689
14.6194,1676
14.6222,1681
14.6250,1696
14.6278,1705
14.6306,1719
14.6333,1744
14.6361,1755
14.6389,1784
14.6417,1794
14.6444,1812
14.6472,1816
14.6500,1821
14.6528,1832
14.6556,1843
14.6583,1855
14.6611,1874
14.6639,1902
14.6667,1906
14.6694,1914
14.6722,1926
14.6750,1932
14.6778,1918
14.6806,1900
14.6833,1869
14.6861,1828
14.6889,1786
14.6917,1755
14.6944,1721
14.6972,1699
14.7000,1676
14.7028,1645
14.7056,1629
14.7083,1615
14.7111,1611
14.7139,1609
14.7167,1604
14.7194,1598
14.7222,1605
14.7250,1613
14.7278,1608
14.7306,1604
14.7333,1597
14.7361,1591
14.7389,1579
14.7417,1578
14.7444,1586
14.7472,1596
14.7500,1601
14.7528,1602
14.7556,1600
14.7583,1594
14.7611,1565
14.7639,1551
14.7667,1512
14.7694,1463
14.7722,1434
14.7750,1431
14.7778,1445
14.7806,1461
14.7833,1519
14.7861,1665
14.7889,1864
14.7917,2061
14.7944,2312
14.7972,2602
14.8000,2878
14.8028,3087
14.8056,3172
14.8083,3116
14.8111,2884
14.8139,2491
14.8167,2019
14.8194,1583
14.8222,1298
14.8250,1195
14.8278,1223
14.8306,1339
14.8333,1463
14.8361,1541
14.8389,1575
14.8417,1573
14.8444,1544
14.8472,1520
14.8500,1513
14.8528,1530
14.8556,1550
14.8583,1546
14.8611,1558
14.8639,1563
14.8667,1543
14.8694,1547
14.8722,1552
14.8750,1561
14.8778,1573
14.8806,1578
14.8833,1580
14.8861,1580
14.8889,1596
14.8917,1601
14.8944,1609
14.8972,1609
14.9000,1612
14.9028,1609
14.9056,1609
14.9083,1609
14.9111,1615
14.9139,1618
14.9167,1618
14.9194,1636
14.9222,1657
14.9250,1651
14.9278,1650
14.9306,1642
14.9333,1642
14.9361,1642
14.9389,1661
14.9417,1677
14.9444,1687
14.9472,1696
14.9500,1688
14.9528,1690
14.9556,1692
14.9583,1692
14.9611,1705
14.9639,1721
14.9667,1711
14.9694,1720
14.9722,1722
14.9750,1730
14.9778,1729
14.9806,1738
14.9833,1751
14.9861,1760
14.9889,1763
14.9917,1772
14.9944,1774
14.9972,1785
15.0000,1783
15.0028,1789
15.0056,1790
15.0083,1780
15.0111,1778
15.0139,1622
15.0167,1629
15.0194,1632
15.0222,1647
15.0250,1648
15.0278,1644
15.0306,1643
15.0333,1640
15.0361,1641
15.0389,1633
15.0417,1640
15.0444,1637
15.0472,1645
15.0500,1646
15.0528,1643
15.0556,1655
15.0583,1655
15.0611,1657
15.0639,1649
15.0667,1653
15.0694,1654
15.0722,1657
15.0750,1673
15.0778,1685
15.0806,1688
15.0833,1688
15.0861,1684
15.0889,1673
15.0917,1681
15.0944,1687
15.0972,1707
15.1000,1704
15.1028,1696
15.1056,1693
15.1083,1694
15.1111,1699
15.1139,1713
15.1167,1714
15.1194,1713
15.1222,1699
15.1250,1698
15.1278,1688
15.1306,1688
15.1333,1698
15.1361,1696
15.1389,1705
15.1417,1705
15.1444,1703
15.1472,1690
15.1500,1688
15.1528,1692
15.1556,1695
15.1583,1695
15.1611,1696
15.1639,1688
15.1667,1691
15.1694,1679
15.1722,1689
15.1750,1710
15.1778,1724
15.1806,1746
15.1833,1760
15.1861,1784
15.1889,1791
15.1917,1800
15.1944,1805
15.1972,1832
15.2000,1846
15.2028,1868
15.2056,1879
15.2083,1882
15.2111,1888
15.2139,1893
15.2167,1905
15.2194,1916
15.2222,1916
15.2250,1898
15.2278,1878
15.2306,1832
15.2333,1779
15.2361,1734
15.2389,1699
15.2417,1688
15.2444,1674
15.2472,1667
15.2500,1652
15.2528,1635
15.2556,1612
15.2583,1596
15.2611,1582
15.2639,1581
15.2667,1581
15.2694,1595
15.2722,1596
15.2750,1592
15.2778,1596
15.2806,1593
15.2833,1595
15.2861,1591
15.2889,1580
15.2917,1583
15.2944,1580
15.2972,1580
15.3000,1582
15.3028,1585
15.3056,1580
15.3083,1571
15.3111,1537
15.3139,1488
15.3167,1449
15.3194,1410
15.3222,1403
15.3250,1425
15.3278,1490
15.3306,1615
15.3333,1804
15.3361,2001
15.3389,2220
15.3417,2499
15.3444,2785
15.3472,2989
15.3500,3117
15.3528,3108
15.3556,2955
15.3583,2627
15.3611,2178
15.3639,1724
15.3667,1380
15.3694,1202
15.3722,1188
15.3750,1274
15.3778,1389
15.3806,1494
15.3833,1561
15.3861,1577
15.3889,1562
15.3917,1545
15.3944,1526
15.3972,1522
15.4000,1521
15.4028,1549
15.4056,1562
15.4083,1563
15.4111,1565
15.4139,1550
15.4167,1553
15.4194,1563
15.4222,1577
15.4250,1588
15.4278,1590
15.4306,1591
15.4333,1590
15.4361,1595
15.4389,1590
15.4417,1603
15.4444,1603
15.4472,1599
15.4500,1597
15.4528,1594
15.4556,1600
15.4583,1619
15.4611,1631
15.4639,1632
15.4667,1627
15.4694,1625
15.4722,1621
15.4750,1631
15.4778,1639
15.4806,1648
15.4833,1646
15.4861,1658
15.4889,1664
15.4917,1690
15.4944,1683
15.4972,1693
15.5000,1685
15.5028,1689
15.5056,1687
15.5083,1695
15.5111,1690
15.5139,1695
15.5167,1712
15.5194,1725
15.5222,1742
15.5250,1752
15.5278,1758
15.5306,1758
15.5333,1745
15.5361,1743
15.5389,1741
15.5417,1758
15.5444,1767
15.5472,1774
15.5500,1772
15.5528,1757
15.5556,1768
15.5583,1657
15.5611,1658
15.5639,1652
15.5667,1646
15.5694,1648
15.5722,1635
15.5750,1627
15.5778,1637
15.5806,1649
15.5833,1648
15.5861,1661
15.5889,1650
15.5917,1655
15.5944,1654
15.5972,1660
15.6000,1665
15.6028,1678
15.6056,1682
15.6083,1675
15.6111,1679
15.6139,1679
15.6167,1684
15.6194,1698
15.6222,1698
15.6250,1702
15.6278,1704
15.6306,1710
15.6333,1706
15.6361,1711
15.6389,1719
15.6417,1716
15.6444,1713
15.6472,1704
15.6500,1700
15.6528,1702
15.6556,1712
15.6583,1721
15.6611,1718
15.6639,1716
15.6667,1705
15.6694,1713
15.6722,1724
15.6750,1699
15.6778,1710
15.6806,1708
15.6833,1712
15.6861,1714
15.6889,1708
15.6917,1703
15.6944,1692
15.6972,1691
15.7000,1693
15.7028,1705
15.7056,1716
15.7083,1726
15.7111,1738
15.7139,1745
15.7167,1759
15.7194,1785
15.7222,1801
15.7250,1820
15.7278,1831
15.7306,1843
15.7333,1840
15.7361,1846
15.7389,1864
15.7417,1880
15.7444,1898
15.7472,1918
15.7500,1931
15.7528,1931
15.7556,1941
15.7583,1952
15.7611,1940
15.7639,1920
15.7667,1876
15.7694,1840
15.7722,1788
15.7750,1748
15.7778,1737
15.7806,1715
15.7833,1706
15.7861,1684
15.7889,1664
15.7917,1650
15.7944,1636
15.7972,1628
15.8000,1620
15.8028,1627
15.8056,1625
15.8083,1630
15.8111,1617
15.8139,1627
15.8167,1633
15.8194,1642
15.8222,1641
15.8250,1623
15.8278,1610
15.8306,1605
15.8333,1602
15.8361,1613
15.8389,1614
15.8417,1620
15.8444,1598
15.8472,1567
15.8500,1529
15.8528,1473
15.8556,1433
15.8583,1421
15.8611,1442
15.8639,1503
15.8667,1618
15.8694,1801
15.8722,1990
15.8750,2212
15.8778,2482
15.8806,2795
15.8833,3041
15.8861,3194
15.8889,3222
15.8917,3097
15.8944,2788
15.8972,2334
15.9000,1844
15.9028,1467
15.9056,1261
15.9083,1225
15.9111,1290
15.9139,1391
15.9167,1504
15.9194,1575
15.9222,1603
15.9250,1605
15.9278,1582
15.9306,1565
15.9333,1573
15.9361,1561
15.9389,1574
15.9417,1596
15.9444,1598
15.9472,1592
15.9500,1578
15.9528,1582
15.9556,1583
15.9583,1605
15.9611,1624
15.9639,1627
15.9667,1627
15.9694,1616
15.9722,1617
15.9750,1624
15.9778,1648
15.9806,1661
15.9833,1673
15.9861,1670
15.9889,1650
15.9917,1645
15.9944,1642
15.9972,1654
16.0000,1662
16.0028,1668
16.0056,1686
16.0083,1685
16.0111,1684
16.0139,1690
16.0167,1695
16.0194,1694
16.0222,1719
16.0250,1722
16.0278,1723
16.0306,1714
16.0333,1713
16.0361,1714
16.0389,1716
16.0417,1722
16.0444,1715
16.0472,1713
16.0500,1717
16.0528,1722
16.0556,1743
16.0583,1760
16.0611,1762
16.0639,1747
16.0667,1749
16.0694,1751
16.0722,1747
16.0750,1757
16.0778,1760
16.0806,1765
16.0833,1768
16.0861,1775
16.0889,1788
16.0917,1791
16.0944,1654
16.0972,1657
16.1000,1673
16.1028,1676
16.1056,1676
16.1083,1664
16.1111,1665
16.1139,1664
16.1167,1673
16.1194,1689
16.1222,1691
16.1250,1692
16.1278,1693
16.1306,1697
16.1333,1695
16.1361,1700
16.1389,1704
16.1417,1704
16.1444,1703
16.1472,1697
16.1500,1705
16.1528,1709
16.1556,1722
16.1583,1734
16.1611,1744
16.1639,1737
16.1667,1736
16.1694,1714
16.1722,1713
16.1750,1712
16.1778,1717
16.1806,1718
16.1833,1722
16.1861,1725
16.1889,1722
16.1917,1720
16.1944,1738
16.1972,1738
16.2000,1735
16.2028,1720
16.2056,1709
16.2083,1716
16.2111,1721
16.2139,1730
16.2167,1741
16.2194,1763
16.2222,1770
16.2250,1794
16.2278,1800
16.2306,1805
16.2333,1815
16.2361,1822
16.2389,1838
16.2417,1857
16.2444,1871
16.2472,1877
16.2500,1886
16.2528,1908
16.2556,1926
16.2583,1930
16.2611,1931
16.2639,1929
16.2667,1900
16.2694,1866
16.2722,1835
16.2750,1805
16.2778,1769
16.2806,1739
16.2833,1704
16.2861,1703
16.2889,1696
16.2917,1689
16.2944,1670
16.2972,1660
16.3000,1653
16.3028,1644
16.3056,1633
16.3083,1624
16.3111,1620
16.3139,1606
16.3167,1616
16.3194,1631
16.3222,1630
16.3250,1630
16.3278,1631
16.3306,1627
16.3333,1630
16.3361,1638
16.3389,1634
16.3417,1635
16.3444,1623
16.3472,1619
16.3500,1606
16.3528,1577
16.3556,1541
16.3583,1499
16.3611,1454
16.3639,1422
16.3667,1432
16.3694,1446
16.3722,1530
16.3750,1677
16.3778,1863
16.3806,2083
16.3833,2345
16.3861,2653
16.3889,2945
16.3917,3163
16.3944,3280
16.3972,3253
16.4000,3051
16.4028,2651
16.4056,2163
16.4083,1713
16.4111,1405
16.4139,1267
16.4167,1256
16.4194,1332
16.4222,1430
16.4250,1513
16.4278,1578
16.4306,1597
16.4333,1602
16.4361,1580
16.4389,1556
16.4417,1551
16.4444,1559
16.4472,1568
16.4500,1573
16.4528,1582
16.4556,1577
16.4583,1574
16.4611,1575
16.4639,1587
16.4667,1594
16.4694,1604
16.4722,1619
16.4750,1609
16.4778,1601
16.4806,1610
16.4833,1612
16.4861,1632
16.4889,1652
16.4917,1654
16.4944,1662
16.4972,1647
16.5000,1637
16.5028,1648
16.5056,1653
16.5083,1666
16.5111,1667
16.5139,1658
16.5167,1654
16.5194,1653
16.5222,1663
16.5250,1679
16.5278,1707
16.5306,1717
16.5333,1716
16.5361,1714
16.5389,1710
16.5417,1708
16.5444,1703
16.5472,1710
16.5500,1714
16.5528,1725
16.5556,1733
16.5583,1745
16.5611,1747
16.5639,1752
16.5667,1768
16.5694,1771
16.5722,1772
16.5750,1769
16.5778,1763
16.5806,1764
16.5833,1765
16.5861,1756
16.5889,1753
16.5917,1766
16.5944,1765
16.5972,1773
16.6000,1781
16.6028,1697
16.6056,1692
16.6083,1697
16.6111,1688
16.6139,1685
16.6167,1668
16.6194,1666
16.6222,1668
16.6250,1683
16.6278,1697
16.6306,1702
16.6333,1695
16.6361,1696
16.6389,1685
16.6417,1700
16.6444,1708
16.6472,1717
16.6500,1707
16.6528,1700
16.6556,1703
16.6583,1703
16.6611,1712
16.6639,1730
16.6667,1736
16.6694,1730
16.6722,1728
16.6750,1728
16.6778,1720
16.6806,1727
16.6833,1723
16.6861,1738
16.6889,1738
16.6917,1736
16.6944,1745
16.6972,1746
16.7000,1756
16.7028,1755
16.7056,1756
16.7083,1762
16.7111,1771
16.7139,1788
16.7167,1797
16.7194,1801
16.7222,1830
16.7250,1839
16.7278,1855
16.7306,1867
16.7333,1873
16.7361,1875
16.7389,1892
16.7417,1907
16.7444,1928
16.7472,1933
16.7500,1945
16.7528,1949
16.7556,1949
16.7583,1929
16.7611,1896
16.7639,1863
16.7667,1822
16.7694,1787
16.7722,1767
16.7750,1751
16.7778,1729
16.7806,1712
16.7833,1696
16.7861,1682
16.7889,1666
16.7917,1671
16.7944,1666
16.7972,1654
16.8000,1660
16.8028,1671
16.8056,1663
16.8083,1668
16.8111,1664
16.8139,1657
16.8167,1656
16.8194,1651
16.8222,1658
16.8250,1663
16.8278,1658
16.8306,1657
16.8333,1658
16.8361,1643
16.8389,1652
16.8417,1657
16.8444,1634
16.8472,1574
16.8500,1501
16.8528,1441
16.8556,1429
16.8583,1432
16.8611,1472
16.8639,1562
16.8667,1736
16.8694,1939
16.8722,2152
16.8750,2417
16.8778,2746
16.8806,3020
16.8833,3227
16.8861,3322
16.8889,3253
16.8917,3008
16.8944,2573
16.8972,2066
16.9000,1633
16.9028,1351
16.9056,1246
16.9083,1275
16.9111,1368
16.9139,1480
16.9167,1574
16.9194,1632
16.9222,1647
16.9250,1636
16.9278,1603
16.9306,1591
16.9333,1584
16.9361,1587
16.9389,1592
16.9417,1612
16.9444,1614
16.9472,1617
16.9500,1607
16.9528,1608
16.9556,1615
16.9583,1627
16.9611,1632
16.9639,1631
16.9667,1625
16.9694,1633
16.9722,1636
16.9750,1639
16.9778,1644
16.9806,1665
16.9833,1673
16.9861,1679
16.9889,1661
16.9917,1650
16.9944,1652
16.9972,1659
17.0000,1667
17.0028,1685
17.0056,1688
17.0083,1681
17.0111,1682
17.0139,1691
17.0167,1708
17.0194,1701
17.0222,1707
17.0250,1711
17.0278,1715
17.0306,1709
17.0333,1723
17.0361,1725
17.0389,1719
17.0417,1724
17.0444,1722
17.0472,1716
17.0500,1734
17.0528,1745
17.0556,1766
17.0583,1768
17.0611,1766
17.0639,1767
17.0667,1767
17.0694,1762
17.0722,1760
17.0750,1768
17.0778,1773
17.0806,1786
17.0833,1790
17.0861,1783
17.0889,1776
17.0917,1777
17.0944,1687
17.0972,1692
17.1000,1693
17.1028,1689
17.1056,1685
17.1083,1683
17.1111,1675
17.1139,1676
17.1167,1687
17.1194,1689
17.1222,1695
17.1250,1699
17.1278,1702
17.1306,1704
17.1333,1714
17.1361,1719
17.1389,1722
17.1417,1721
17.1444,1723
17.1472,1714
17.1500,1707
17.1528,1720
17.1556,1732
17.1583,1741
17.1611,1740
17.1639,1740
17.1667,1740
17.1694,1732
17.1722,1721
17.1750,1718
17.1778,1721
17.1806,1720
17.1833,1725
17.1861,1716
17.1889,1724
17.1917,1722
17.1944,1728
17.1972,1744
17.2000,1759
17.2028,1772
17.2056,1789
17.2083,1811
17.2111,1834
17.2139,1844
17.2167,1846
17.2194,1843
17.2222,1847
17.2250,1860
17.2278,1872
17.2306,1898
17.2333,1919
17.2361,1933
17.2389,1944
17.2417,1950
17.2444,1948
17.2472,1945
17.2500,1918
17.2528,1894
17.2556,1854
17.2583,1832
17.2611,1790
17.2639,1747
17.2667,1721
17.2694,1703
17.2722,1683
17.2750,1674
17.2778,1652
17.2806,1627
17.2833,1611
17.2861,1585
17.2889,1589
17.2917,1583
17.2944,1594
17.2972,1600
17.3000,1596
17.3028,1587
17.3056,1579
17.3083,1570
17.3111,1567
17.3139,1574
17.3167,1586
17.3194,1588
17.3222,1593
17.3250,1582
17.3278,1567
17.3306,1560
17.3333,1550
17.3361,1535
17.3389,1501
17.3417,1449
17.3444,1398
17.3472,1353
17.3500,1345
17.3528,1344
17.3556,1391
17.3583,1525
17.3611,1724
17.3639,1938
17.3667,2173
17.3694,2465
17.3722,2784
17.3750,3046
17.3778,3190
17.3806,3173
17.3833,2971
17.3861,2625
17.3889,2154
17.3917,1676
17.3944,1335
17.3972,1185
17.4000,1192
17.4028,1278
17.4056,1395
17.4083,1505
17.4111,1563
17.4139,1574
17.4167,1549
17.4194,1519
17.4222,1508
17.4250,1503
17.4278,1507
17.4306,1515
17.4333,1536
17.4361,1534
17.4389,1525
17.4417,1523
17.4444,1512
17.4472,1517
17.4500,1522
17.4528,1526
17.4556,1540
17.4583,1555
17.4611,1551
17.4639,1558
17.4667,1559
17.4694,1574
17.4722,1585
17.4750,1587
17.4778,1586
17.4806,1597
17.4833,1584
17.4861,1591
17.4889,1592
17.4917,1603
17.4944,1607
17.4972,1605
17.5000,1606
17.5028,1605
17.5056,1599
17.5083,1614
17.5111,1621
17.5139,1625
17.5167,1637
17.5194,1631
17.5222,1633
17.5250,1643
17.5278,1650
17.5306,1657
17.5333,1669
17.5361,1669
17.5389,1666
17.5417,1674
17.5444,1676
17.5472,1682
17.5500,1691
17.5528,1695
17.5556,1695
17.5583,1694
17.5611,1688
17.5639,1681
17.5667,1690
17.5694,1704
17.5722,1719
17.5750,1722
17.5778,1722
17.5806,1725
17.5833,1727
17.5861,1621
17.5889,1622
17.5917,1625
17.5944,1619
17.5972,1625
17.6000,1625
17.6028,1620
17.6056,1627
17.6083,1640
17.6111,1642
17.6139,1653
17.6167,1652
17.6194,1643
17.6222,1642
17.6250,1657
17.6278,1665
17.6306,1672
17.6333,1664
17.6361,1674
17.6389,1652
17.6417,1664
17.6444,1673
17.6472,1685
17.6500,1697
17.6528,1680
17.6556,1688
17.6583,1683
17.6611,1684
17.6639,1689
17.6667,1682
17.6694,1679
17.6722,1680
17.6750,1680
17.6778,1694
17.6806,1702
17.6833,1721
17.6861,1744
17.6889,1772
17.6917,1804
17.6944,1815
17.6972,1818
17.7000,1817
17.7028,1817
17.7056,1835
17.7083,1846
17.7111,1866
17.7139,1884
17.7167,1900
17.7194,1896
17.7222,1902
17.7250,1920
17.7278,1930
17.7306,1931
17.7333,1899
17.7361,1860
17.7389,1812
17.7417,1764
17.7444,1729
17.7472,1698
17.7500,1683
17.7528,1661
17.7556,1634
17.7583,1621
17.7611,1609
17.7639,1590
17.7667,1588
17.7694,1581
17.7722,1569
17.7750,1576
17.7778,1576
17.7806,1577
17.7833,1571
17.7861,1572
17.7889,1565
17.7917,1564
17.7944,1561
17.7972,1545
17.8000,1550
17.8028,1564
17.8056,1581
17.8083,1581
17.8111,1579
17.8139,1557
17.8167,1523
17.8194,1458
17.8222,1408
17.8250,1347
17.8278,1311
17.8306,1304
17.8333,1324
17.8361,1381
17.8389,1500
17.8417,1684
17.8444,1882
17.8472,2108
17.8500,2406
17.8528,2713
17.8556,2965
17.8583,3119
17.8611,3130
17.8639,2939
17.8667,2607
17.8694,2144
17.8722,1678
17.8750,1341
17.8778,1187
17.8806,1188
17.8833,1286
17.8861,1408
17.8889,1515
17.8917,1583
17.8944,1592
17.8972,1558
17.9000,1524
17.9028,1500
17.9056,1489
17.9083,1501
17.9111,1510
17.9139,1530
17.9167,1533
17.9194,1546
17.9222,1544
17.9250,1540
17.9278,1556
17.9306,1560
17.9333,1584
17.9361,1582
17.9389,1571
17.9417,1570
17.9444,1572
17.9472,1578
17.9500,1582
17.9528,1599
17.9556,1600
17.9583,1592
17.9611,1593
17.9639,1606
17.9667,1607
17.9694,1613
17.9722,1621
17.9750,1626
17.9778,1621
17.9806,1614
17.9833,1624
17.9861,1628
17.9889,1638
17.9917,1658
17.9944,1660
17.9972,1670
18.0000,1672
18.0028,1670
18.0056,1670
18.0083,1673
18.0111,1674
18.0139,1687
18.0167,1686
18.0194,1691
18.0222,1695
18.0250,1695
18.0278,1700
18.0306,1720
18.0333,1721
18.0361,1724
18.0389,1718
18.0417,1716
18.0444,1719
18.0472,1717
18.0500,1729
18.0528,1736
18.0556,1735
18.0583,1726
18.0611,1733
18.0639,1738
18.0667,1643
18.0694,1641
18.0722,1647
18.0750,1646
18.0778,1644
18.0806,1650
18.0833,1651
18.0861,1652
18.0889,1668
18.0917,1685
18.0944,1688
18.0972,1689
18.1000,1678
18.1028,1682
18.1056,1676
18.1083,1685
18.1111,1699
18.1139,1715
18.1167,1707
18.1194,1709
18.1222,1705
18.1250,1706
18.1278,1708
18.1306,1711
18.1333,1709
18.1361,1713
18.1389,1715
18.1417,1714
18.1444,1705
18.1472,1710
18.1500,1714
18.1528,1726
18.1556,1730
18.1583,1734
18.1611,1726
18.1639,1728
18.1667,1728
18.1694,1744
18.1722,1762
18.1750,1782
18.1778,1800
18.1806,1829
18.1833,1843
18.1861,1846
18.1889,1859
18.1917,1866
18.1944,1887
18.1972,1892
18.2000,1906
18.2028,1917
18.2056,1921
18.2083,1937
18.2111,1946
18.2139,1958
18.2167,1965
18.2194,1942
18.2222,1918
18.2250,1865
18.2278,1811
18.2306,1769
18.2333,1738
18.2361,1725
18.2389,1708
18.2417,1691
18.2444,1671
18.2472,1647
18.2500,1635
18.2528,1621
18.2556,1620
18.2583,1601
18.2611,1596
18.2639,1591
18.2667,1599
18.2694,1602
18.2722,1599
18.2750,1595
18.2778,1588
18.2806,1596
18.2833,1588
18.2861,1587
18.2889,1600
18.2917,1606
18.2944,1595
18.2972,1588
18.3000,1578
18.3028,1559
18.3056,1547
18.3083,1491
18.3111,1440
18.3139,1388
18.3167,1368
18.3194,1362
18.3222,1382
18.3250,1464
18.3278,1613
18.3306,1812
18.3333,2028
18.3361,2299
18.3389,2614
18.3417,2890
18.3444,3102
18.3472,3185
18.3500,3112
18.3528,2861
18.3556,2452
18.3583,1961
18.3611,1530
18.3639,1268
18.3667,1211
18.3694,1276
18.3722,1388
18.3750,1504
18.3778,1594
18.3806,1623
18.3833,1608
18.3861,1580
18.3889,1554
18.3917,1537
18.3944,1543
18.3972,1560
18.4000,1562
18.4028,1571
18.4056,1572
18.4083,1565
18.4111,1567
18.4139,1572
18.4167,1583
18.4194,1598
18.4222,1603
18.4250,1610
18.4278,1603
18.4306,1586
18.4333,1591
18.4361,1590
18.4389,1606
18.4417,1624
18.4444,1615
18.4472,1612
18.4500,1617
18.4528,1630
18.4556,1630
18.4583,1624
18.4611,1629
18.4639,1631
18.4667,1630
18.4694,1639
18.4722,1645
18.4750,1656
18.4778,1669
18.4806,1669
18.4833,1665
18.4861,1672
18.4889,1684
18.4917,1682
18.4944,1686
18.4972,1693
18.5000,1706
18.5028,1709
18.5056,1708
18.5083,1693
18.5111,1693
18.5139,1695
18.5167,1702
18.5194,1701
18.5222,1719
18.5250,1716
18.5278,1730
18.5306,1732
18.5333,1734
18.5361,1735
18.5389,1737
18.5417,1746
18.5444,1743
18.5472,1742
18.5500,1740
18.5528,1751
18.5556,1666
18.5583,1671
18.5611,1679
18.5639,1667
18.5667,1666
18.5694,1666
18.5722,1663
18.5750,1670
18.5778,1671
18.5806,1671
18.5833,1679
18.5861,1684
18.5889,1687
18.5917,1682
18.5944,1688
18.5972,1698
18.6000,1708
18.6028,1704
18.6056,1703
18.6083,1698
18.6111,1707
18.6139,1713
18.6167,1720
18.6194,1736
18.6222,1727
18.6250,1723
18.6278,1715
18.6306,1716
18.6333,1708
18.6361,1716
18.6389,1722
18.6417,1730
18.6444,1730
18.6472,1714
18.6500,1712
18.6528,1717
18.6556,1729
18.6583,1745
18.6611,1763
18.6639,1781
18.6667,1802
18.6694,1813
18.6722,1816
18.6750,1829
18.6778,1841
18.6806,1851
18.6833,1864
18.6861,1880
18.6889,1905
18.6917,1923
18.6944,1924
18.6972,1935
18.7000,1954
18.7028,1957
18.7056,1955
18.7083,1940
18.7111,1910
18.7139,1871
18.7167,1822
18.7194,1779
18.7222,1749
18.7250,1723
18.7278,1708
18.7306,1688
18.7333,1666
18.7361,1654
18.7389,1622
18.7417,1616
18.7444,1600
18.7472,1597
18.7500,1599
18.7528,1601
18.7556,1602
18.7583,1610
18.7611,1606
18.7639,1600
18.7667,1602
18.7694,1603
18.7722,1604
18.7750,1607
18.7778,1597
18.7806,1599
18.7833,1605
18.7861,1611
18.7889,1596
18.7917,1574
18.7944,1557
18.7972,1503
18.8000,1445
18.8028,1391
18.8056,1355
18.8083,1350
18.8111,1373
18.8139,1458
18.8167,1620
18.8194,1808
18.8222,2030
18.8250,2288
18.8278,2589
18.8306,2887
18.8333,3083
18.8361,3166
18.8389,3097
18.8417,2850
18.8444,2437
18.8472,1958
18.8500,1525
18.8528,1254
18.8556,1189
18.8583,1242
18.8611,1350
18.8639,1460
18.8667,1544
18.8694,1569
18.8722,1576
18.8750,1555
18.8778,1520
18.8806,1515
18.8833,1504
18.8861,1515
18.8889,1533
18.8917,1529
18.8944,1535
18.8972,1529
18.9000,1530
18.9028,1548
18.9056,1561
18.9083,1557
18.9111,1549
18.9139,1556
18.9167,1559
18.9194,1567
18.9222,1582
18.9250,1582
18.9278,1587
18.9306,1579
18.9333,1578
18.9361,1586
18.9389,1599
18.9417,1600
18.9444,1612
18.9472,1622
18.9500,1630
18.9528,1635
18.9556,1634
18.9583,1624
18.9611,1632
18.9639,1639
18.9667,1643
18.9694,1643
18.9722,1658
18.9750,1650
18.9778,1644
18.9806,1653
18.9833,1660
18.9861,1659
18.9889,1670
18.9917,1678
18.9944,1687
18.9972,1689
19.0000,1686
19.0028,1684
19.0056,1702
19.0083,1706
19.0111,1709
19.0139,1704
19.0167,1704
19.0194,1698
19.0222,1692
19.0250,1695
19.0278,1706
19.0306,1710
19.0333,1719
19.0361,1730
19.0389,1723
19.0417,1734
19.0444,1630
19.0472,1635
19.0500,1633
19.0528,1641
19.0556,1635
19.0583,1641
19.0611,1642
19.0639,1651
19.0667,1640
19.0694,1646
19.0722,1659
19.0750,1654
19.0778,1670
19.0806,1673
19.0833,1674
19.0861,1694
19.0889,1697
19.0917,1696
19.0944,1694
19.0972,1697
19.1000,1687
19.1028,1694
19.1056,1703
19.1083,1703
19.1111,1702
19.1139,1695
19.1167,1695
19.1194,1689
19.1222,1693
19.1250,1701
19.1278,1715
19.1306,1722
19.1333,1730
19.1361,1733
19.1389,1738
19.1417,1742
19.1444,1761
19.1472,1779
19.1500,1794
19.1528,1808
19.1556,1823
19.1583,1833
19.1611,1837
19.1639,1855
19.1667,1883
19.1694,1915
19.1722,1916
19.1750,1921
19.1778,1923
19.1806,1930
19.1833,1952
19.1861,1937
19.1889,1920
19.1917,1880
19.1944,1832
19.1972,1780
19.2000,1743
19.2028,1713
19.2056,1716
19.2083,1701
19.2111,1681
19.2139,1650
19.2167,1618
19.2194,1600
19.2222,1589
19.2250,1592
19.2278,1608
19.2306,1611
19.2333,1617
19.2361,1621
19.2389,1610
19.2417,1592
19.2444,1592
19.2472,1599
19.2500,1596
19.2528,1601
19.2556,1596
19.2583,1585
19.2611,1579
19.2639,1579
19.2667,1581
19.2694,1587
19.2722,1580
19.2750,1535
19.2778,1484
19.2806,1429
19.2833,1383
19.2861,1371
19.2889,1389
19.2917,1435
19.2944,1536
19.2972,1711
19.3000,1909
19.3028,2132
19.3056,2411
19.3083,2723
19.3111,2990
19.3139,3157
19.3167,3214
19.3194,3107
19.3222,2781
19.3250,2323
19.3278,1837
19.3306,1453
19.3333,1247
19.3361,1204
19.3389,1261
19.3417,1363
19.3444,1464
19.3472,1548
19.3500,1582
19.3528,1579
19.3556,1568
19.3583,1556
19.3611,1546
19.3639,1547
19.3667,1556
19.3694,1564
19.3722,1578
19.3750,1575
19.3778,1569
19.3806,1564
19.3833,1568
19.3861,1578
19.3889,1593
19.3917,1593
19.3944,1583
19.3972,1580
19.4000,1584
19.4028,1590
19.4056,1603
19.4083,1612
19.4111,1624
19.4139,1615
19.4167,1620
19.4194,1626
19.4222,1625
19.4250,1625
19.4278,1643
19.4306,1644
19.4333,1646
19.4361,1653
19.4389,1660
19.4417,1648
19.4444,1645
19.4472,1662
19.4500,1671
19.4528,1679
19.4556,1676
19.4583,1665
19.4611,1669
19.4639,1688
19.4667,1691
19.4694,1694
19.4722,1693
19.4750,1685
19.4778,1680
19.4806,1686
19.4833,1690
19.4861,1708
19.4889,1717
19.4917,1718
19.4944,1712
19.4972,1725
19.5000,1714
19.5028,1710
19.5056,1713
19.5083,1723
19.5111,1725
19.5139,1726
19.5167,1737
19.5194,1742
19.5222,1666
19.5250,1673
19.5278,1678
19.5306,1688
19.5333,1688
19.5361,1695
19.5389,1682
19.5417,1688
19.5444,1696
19.5472,1699
19.5500,1708
19.5528,1718
19.5556,1716
19.5583,1709
19.5611,1701
19.5639,1712
19.5667,1724
19.5694,1749
19.5722,1752
19.5750,1758
19.5778,1747
19.5806,1751
19.5833,1758
19.5861,1758
19.5889,1752
19.5917,1747
19.5944,1750
19.5972,1743
19.6000,1741
19.6028,1744
19.6056,1763
19.6083,1765
19.6111,1764
19.6139,1771
19.6167,1785
19.6194,1798
19.6222,1823
19.6250,1839
19.6278,1845
19.6306,1859
19.6333,1861
19.6361,1867
19.6389,1894
19.6417,1917
19.6444,1952
19.6472,1954
19.6500,1971
19.6528,1970
19.6556,1964
19.6583,1960
19.6611,1967
19.6639,1964
19.6667,1944
19.6694,1907
19.6722,1851
19.6750,1809
19.6778,1773
19.6806,1768
19.6833,1759
19.6861,1733
19.6889,1716
19.6917,1687
19.6944,1667
19.6972,1654
19.7000,1659
19.7028,1660
19.7056,1649
19.7083,1656
19.7111,1647
19.7139,1635
19.7167,1636
19.7194,1637
19.7222,1637
19.7250,1641
19.7278,1648
19.7306,1645
19.7333,1639
19.7361,1639
19.7389,1628
19.7417,1628
19.7444,1619
19.7472,1620
19.7500,1601
19.7528,1553
19.7556,1489
19.7583,1426
19.7611,1399
19.7639,1403
19.7667,1424
19.7694,1502
19.7722,1652
19.7750,1846
19.7778,2064
19.7806,2324
19.7833,2631
19.7861,2921
19.7889,3160
19.7917,3287
19.7944,3250
19.7972,3031
19.8000,2630
19.8028,2125
19.8056,1684
19.8083,1385
19.8111,1261
19.8139,1271
19.8167,1352
19.8194,1459
19.8222,1546
19.8250,1594
19.8278,1610
19.8306,1605
19.8333,1586
19.8361,1567
19.8389,1557
19.8417,1571
19.8444,1588
19.8472,1591
19.8500,1589
19.8528,1582
19.8556,1583
19.8583,1589
19.8611,1603
19.8639,1629
19.8667,1638
19.8694,1645
19.8722,1628
19.8750,1619
19.8778,1619
19.8806,1626
19.8833,1630
19.8861,1646
19.8889,1646
19.8917,1638
19.8944,1636
19.8972,1641
19.9000,1646
19.9028,1649
19.9056,1664
19.9083,1670
19.9111,1681
19.9139,1671
19.9167,1672
19.9194,1675
19.9222,1692
19.9250,1696
19.9278,1698
19.9306,1698
19.9333,1689
19.9361,1696
19.9389,1686
19.9417,1692
19.9444,1708
19.9472,1712
19.9500,1715
19.9528,1711
19.9556,1708
19.9583,1707
19.9611,1722
19.9639,1727
19.9667,1726
19.9694,1721
19.9722,1722
19.9750,1725
19.9778,1728
19.9806,1740
19.9833,1744
19.9861,1749
19.9889,1755
19.9917,1763
19.9944,1767
19.9972,1774
20.0000,1698
20.0028,1714
20.0056,1715
20.0083,1713
20.0111,1715
20.0139,1708
20.0167,1697
20.0194,1704
20.0222,1711
20.0250,1716
20.0278,1703
20.0306,1701
20.0333,1697
20.0361,1707
20.0389,1726
20.0417,1739
20.0444,1743
20.0472,1749
20.0500,1747
20.0528,1735
20.0556,1738
20.0583,1736
20.0611,1742
20.0639,1743
20.0667,1740
20.0694,1736
20.0722,1735
20.0750,1739
20.0778,1748
20.0806,1745
20.0833,1752
20.0861,1756
20.0889,1752
20.0917,1756
20.0944,1781
20.0972,1807
20.1000,1836
20.1028,1852
20.1056,1866
20.1083,1869
20.1111,1875
20.1139,1861
20.1167,1876
20.1194,1889
20.1222,1923
20.1250,1942
20.1278,1965
20.1306,1975
20.1333,1967
20.1361,1966
20.1389,1963
20.1417,1955
20.1444,1936
20.1472,1905
20.1500,1872
20.1528,1840
20.1556,1817
20.1583,1784
20.1611,1760
20.1639,1734
20.1667,1720
20.1694,1695
20.1722,1667
20.1750,1648
20.1778,1621
20.1806,1610
20.1833,1628
20.1861,1648
20.1889,1642
20.1917,1637
20.1944,1632
20.1972,1617
20.2000,1611
20.2028,1616
20.2056,1615
20.2083,1626
20.2111,1626
20.2139,1616
20.2167,1611
20.2194,1613
20.2222,1607
20.2250,1600
20.2278,1575
20.2306,1527
20.2333,1463
20.2361,1412
20.2389,1376
20.2417,1365
20.2444,1383
20.2472,1443
20.2500,1572
20.2528,1754
20.2556,1968
20.2583,2210
20.2611,2511
20.2639,2832
20.2667,3078
20.2694,3224
20.2722,3205
20.2750,3004
20.2778,2644
20.2806,2177
20.2833,1700
20.2861,1354
20.2889,1212
20.2917,1220
20.2944,1313
20.2972,1434
20.3000,1540
20.3028,1596
20.3056,1600
20.3083,1585
20.3111,1557
20.3139,1526
20.3167,1517
20.3194,1530
20.3222,1532
20.3250,1552
20.3278,1549
20.3306,1538
20.3333,1531
20.3361,1526
20.3389,1542
20.3417,1560
20.3444,1570
20.3472,1575
20.3500,1565
20.3528,1566
20.3556,1572
20.3583,1576
20.3611,1573
20.3639,1573
20.3667,1578
20.3694,1587
20.3722,1597
20.3750,1606
20.3778,1610
20.3806,1609
20.3833,1603
20.3861,1595
20.3889,1589
20.3917,1592
20.3944,1584
20.3972,1592
20.4000,1602
20.4028,1616
20.4056,1622
20.4083,1631
20.4111,1611
20.4139,1610
20.4167,1618
20.4194,1624
20.4222,1628
20.4250,1641
20.4278,1647
20.4306,1645
20.4333,1642
20.4361,1635
20.4389,1642
20.4417,1648
20.4444,1659
20.4472,1662
20.4500,1658
20.4528,1647
20.4556,1640
20.4583,1646
20.4611,1659
20.4639,1670
20.4667,1679
20.4694,1670
20.4722,1673
20.4750,1676
20.4778,1579
20.4806,1588
20.4833,1580
20.4861,1576
20.4889,1575
20.4917,1564
20.4944,1565
20.4972,1565
20.5000,1573
20.5028,1573
20.5056,1589
20.5083,1593
20.5111,1605
20.5139,1595
20.5167,1605
20.5194,1610
20.5222,1621
20.5250,1616
20.5278,1611
20.5306,1605
20.5333,1609
20.5361,1609
20.5389,1611
20.5417,1613
20.5444,1619
20.5472,1623
20.5500,1619
20.5528,1614
20.5556,1602
20.5583,1615
20.5611,1617
20.5639,1627
20.5667,1622
20.5694,1621
20.5722,1611
20.5750,1606
20.5778,1621
20.5806,1623
20.5833,1651
20.5861,1674
20.5889,1692
20.5917,1707
20.5944,1724
20.5972,1731
20.6000,1739
20.6028,1748
20.6056,1748
20.6083,1755
20.6111,1768
20.6139,1796
20.6167,1813
20.6194,1826
20.6222,1836
20.6250,1835
20.6278,1833
20.6306,1834
20.6333,1817
20.6361,1792
20.6389,1747
20.6417,1707
20.6444,1658
20.6472,1616
20.6500,1597
20.6528,1584
20.6556,1563
20.6583,1536
20.6611,1509
20.6639,1502
20.6667,1492
20.6694,1490
20.6722,1493
20.6750,1492
20.6778,1493
20.6806,1493
20.6833,1487
20.6861,1478
20.6889,1451
20.6917,1444
20.6944,1447
20.6972,1446
20.7000,1475
20.7028,1474
20.7056,1472
20.7083,1482
20.7111,1472
20.7139,1454
20.7167,1434
20.7194,1404
20.7222,1348
20.7250,1274
20.7278,1237
20.7306,1214
20.7333,1221
20.7361,1274
20.7389,1403
20.7417,1589
20.7444,1799
20.7472,2015
20.7500,2287
20.7528,2597
20.7556,2854
20.7583,3021
20.7611,3057
20.7639,2892
20.7667,2578
20.7694,2127
20.7722,1651
20.7750,1276
20.7778,1089
20.7806,1085
20.7833,1166
20.7861,1287
20.7889,1399
20.7917,1456
20.7944,1466
20.7972,1440
20.8000,1414
20.8028,1384
20.8056,1382
20.8083,1389
20.8111,1397
20.8139,1405
20.8167,1427
20.8194,1437
20.8222,1438
20.8250,1443
20.8278,1448
20.8306,1452
20.8333,1451
20.8361,1460
20.8389,1448
20.8417,1442
20.8444,1453
20.8472,1475
20.8500,1485
20.8528,1490
20.8556,1489
20.8583,1485
20.8611,1478
20.8639,1488
20.8667,1491
20.8694,1494
20.8722,1508
20.8750,1520
20.8778,1518
20.8806,1531
20.8833,1518
20.8861,1529
20.8889,1528
20.8917,1533
20.8944,1541
20.8972,1548
20.9000,1554
20.9028,1554
20.9056,1567
20.9083,1566
20.9111,1562
20.9139,1574
20.9167,1576
20.9194,1582
20.9222,1584
20.9250,1593
20.9278,1586
20.9306,1593
20.9333,1608
20.9361,1617
20.9389,1627
20.9417,1630
20.9444,1625
20.9472,1630
20.9500,1634
20.9528,1628
20.9556,1629
20.9583,1629
20.9611,1639
20.9639,1642
20.9667,1570
20.9694,1574
20.9722,1582
20.9750,1574
20.9778,1559
20.9806,1564
20.9833,1560
20.9861,1565
20.9889,1567
20.9917,1579
20.9944,1582
20.9972,1581
21.0000,1573
21.0028,1572
21.0056,1587
21.0083,1595
21.0111,1599
21.0139,1610
21.0167,1603
21.0194,1599
21.0222,1597
21.0250,1604
21.0278,1610
21.0306,1622
21.0333,1627
21.0361,1635
21.0389,1639
21.0417,1623
21.0444,1631
21.0472,1622
21.0500,1625
21.0528,1636
21.0556,1629
21.0583,1632
21.0611,1632
21.0639,1632
21.0667,1637
21.0694,1638
21.0722,1634
21.0750,1637
21.0778,1634
21.0806,1624
21.0833,1625
21.0861,1613
21.0889,1626
21.0917,1638
21.0944,1631
21.0972,1626
21.1000,1622
21.1028,1620
21.1056,1608
21.1083,1607
21.1111,1619
21.1139,1616
21.1167,1634
21.1194,1643
21.1222,1647
21.1250,1660
21.1278,1680
21.1306,1722
21.1333,1744
21.1361,1767
21.1389,1770
21.1417,1771
21.1444,1781
21.1472,1785
21.1500,1807
21.1528,1835
21.1556,1844
21.1583,1848
21.1611,1856
21.1639,1870
21.1667,1882
21.1694,1881
21.1722,1855
21.1750,1817
21.1778,1778
21.1806,1731
21.1833,1697
21.1861,1662
21.1889,1655
21.1917,1645
21.1944,1625
21.1972,1603
21.2000,1582
21.2028,1571
21.2056,1574
21.2083,1570
21.2111,1562
21.2139,1567
21.2167,1570
21.2194,1563
21.2222,1566
21.2250,1568
21.2278,1554
21.2306,1556
21.2333,1546
21.2361,1546
21.2389,1549
21.2417,1557
21.2444,1557
21.2472,1556
21.2500,1558
21.2528,1552
21.2556,1523
21.2583,1467
21.2611,1419
21.2639,1385
21.2667,1380
21.2694,1407
21.2722,1449
21.2750,1562
21.2778,1734
21.2806,1929
21.2833,2137
21.2861,2385
21.2889,2691
21.2917,2944
21.2944,3114
21.2972,3162
21.3000,3038
21.3028,2759
21.3056,2333
21.3083,1871
21.3111,1469
21.3139,1252
21.3167,1190
21.3194,1261
21.3222,1368
21.3250,1479
21.3278,1558
21.3306,1598
21.3333,1585
21.3361,1564
21.3389,1540
21.3417,1532
21.3444,1528
21.3472,1542
21.3500,1560
21.3528,1570
21.3556,1575
21.3583,1578
21.3611,1580
21.3639,1581
21.3667,1584
21.3694,1595
21.3722,1605
21.3750,1604
21.3778,1600
21.3806,1603
21.3833,1605
21.3861,1612
21.3889,1630
21.3917,1648
21.3944,1634
21.3972,1629
21.4000,1627
21.4028,1618
21.4056,1631
21.4083,1647
21.4111,1662
21.4139,1664
21.4167,1666
21.4194,1667
21.4222,1665
21.4250,1671
21.4278,1683
21.4306,1690
21.4333,1691
21.4361,1692
21.4389,1693
21.4417,1692
21.4444,1711
21.4472,1713
21.4500,1726
21.4528,1726
21.4556,1723
21.4583,1719
21.4611,1716
21.4639,1726
21.4667,1734
21.4694,1750
21.4722,1773
21.4750,1767
21.4778,1785
21.4806,1780
21.4833,1778
21.4861,1773
21.4889,1780
21.4917,1786
21.4944,1791
21.4972,1790
21.5000,1796
21.5028,1704
21.5056,1705
21.5083,1722
21.5111,1729
21.5139,1728
21.5167,1709
21.5194,1696
21.5222,1701
21.5250,1708
21.5278,1709
21.5306,1704
21.5333,1713
21.5361,1711
21.5389,1716
21.5417,1725
21.5444,1727
21.5472,1732
21.5500,1730
21.5528,1733
21.5556,1748
21.5583,1751
21.5611,1756
21.5639,1758
21.5667,1768
21.5694,1759
21.5722,1763
21.5750,1762
21.5778,1762
21.5806,1765
21.5833,1761
21.5861,1771
21.5889,1783
21.5917,1775
21.5944,1771
21.5972,1772
21.6000,1758
21.6028,1760
21.6056,1765
21.6083,1772
21.6111,1771
21.6139,1768
21.6167,1764
21.6194,1753
21.6222,1755
21.6250,1750
21.6278,1754
21.6306,1754
21.6333,1744
21.6361,1750
21.6389,1757
21.6417,1760
21.6444,1769
21.6472,1767
21.6500,1774
21.6528,1781
21.6556,1793
21.6583,1803
21.6611,1818
21.6639,1842
21.6667,1868
21.6694,1892
21.6722,1887
21.6750,1885
21.6778,1889
21.6806,1912
21.6833,1933
21.6861,1967
21.6889,1987
21.6917,1986
21.6944,1986
21.6972,1991
21.7000,1984
21.7028,1969
21.7056,1945
21.7083,1912
21.7111,1878
21.7139,1837
21.7167,1789
21.7194,1773
21.7222,1754
21.7250,1753
21.7278,1739
21.7306,1725
21.7333,1697
21.7361,1679
21.7389,1670
21.7417,1665
21.7444,1670
21.7472,1674
21.7500,1674
21.7528,1683
21.7556,1679
21.7583,1677
21.7611,1678
21.7639,1673
21.7667,1672
21.7694,1664
21.7722,1675
21.7750,1671
21.7778,1669
21.7806,1679
21.7833,1678
21.7861,1662
21.7889,1623
21.7917,1572
21.7944,1523
21.7972,1476
21.8000,1474
21.8028,1484
21.8056,1523
21.8083,1638
21.8111,1818
21.8139,2029
21.8167,2256
21.8194,2518
21.8222,2817
21.8250,3062
21.8278,3238
21.8306,3290
21.8333,3193
21.8361,2884
21.8389,2423
21.8417,1927
21.8444,1533
21.8472,1316
21.8500,1253
21.8528,1311
21.8556,1415
21.8583,1520
21.8611,1601
21.8639,1636
21.8667,1646
21.8694,1624
21.8722,1609
21.8750,1598
21.8778,1606
21.8806,1601
21.8833,1596
21.8861,1617
21.8889,1624
21.8917,1615
21.8944,1614
21.8972,1607
21.9000,1628
21.9028,1639
21.9056,1645
21.9083,1629
21.9111,1636
21.9139,1633
21.9167,1642
21.9194,1655
21.9222,1665
21.9250,1656
21.9278,1655
21.9306,1646
21.9333,1659
21.9361,1667
21.9389,1687
21.9417,1698
21.9444,1702
21.9472,1714
21.9500,1700
21.9528,1696
21.9556,1697
21.9583,1699
21.9611,1707
21.9639,1710
21.9667,1720
21.9694,1716
21.9722,1722
21.9750,1734
21.9778,1748
21.9806,1750
21.9833,1755
21.9861,1769
21.9889,1769
21.9917,1765
21.9944,1758
21.9972,1760
22.0000,1770
22.0028,1786
22.0056,1786
22.0083,1793
22.0111,1790
22.0139,1800
22.0167,1796
22.0194,1787
22.0222,1796
22.0250,1799
22.0278,1797
22.0306,1804
22.0333,1808
22.0361,1715
22.0389,1722
22.0417,1728
22.0444,1741
22.0472,1744
22.0500,1732
22.0528,1726
22.0556,1723
22.0583,1716
22.0611,1730
22.0639,1738
22.0667,1737
22.0694,1733
22.0722,1733
22.0750,1742
22.0778,1739
22.0806,1750
22.0833,1759
22.0861,1759
22.0889,1758
22.0917,1757
22.0944,1765
22.0972,1773
22.1000,1778
22.1028,1774
22.1056,1780
22.1083,1782
22.1111,1776
22.1139,1768
22.1167,1792
22.1194,1790
22.1222,1799
22.1250,1796
22.1278,1790
22.1306,1788
22.1333,1778
22.1361,1786
22.1389,1799
22.1417,1818
22.1444,1843
22.1472,1846
22.1500,1857
22.1528,1871
22.1556,1878
22.1583,1882
22.1611,1896
22.1639,1916
22.1667,1928
22.1694,1952
22.1722,1973
22.1750,1985
22.1778,1992
22.1806,1990
22.1833,1990
22.1861,1999
22.1889,1990
22.1917,1979
22.1944,1955
22.1972,1924
22.2000,1891
22.2028,1849
22.2056,1823
22.2083,1801
22.2111,1784
22.2139,1772
22.2167,1740
22.2194,1719
22.2222,1693
22.2250,1671
22.2278,1670
22.2306,1664
22.2333,1670
22.2361,1673
22.2389,1674
22.2417,1673
22.2444,1669
22.2472,1663
22.2500,1665
22.2528,1664
22.2556,1653
22.2583,1654
22.2611,1642
22.2639,1652
22.2667,1647
22.2694,1646
22.2722,1647
22.2750,1642
22.2778,1615
22.2806,1563
22.2833,1501
22.2861,1456
22.2889,1421
22.2917,1438
22.2944,1486
22.2972,1571
22.3000,1744
22.3028,1946
22.3056,2170
22.3083,2437
22.3111,2754
22.3139,3034
22.3167,3218
22.3194,3302
22.3222,3233
22.3250,2951
22.3278,2493
22.3306,1983
22.3333,1560
22.3361,1311
22.3389,1247
22.3417,1287
22.3444,1396
22.3472,1503
22.3500,1588
22.3528,1624
22.3556,1626
22.3583,1612
22.3611,1598
22.3639,1586
22.3667,1587
22.3694,1586
22.3722,1612
22.3750,1623
22.3778,1625
22.3806,1614
22.3833,1607
22.3861,1615
22.3889,1614
22.3917,1621
22.3944,1636
22.3972,1641
22.4000,1644
22.4028,1640
22.4056,1637
22.4083,1635
22.4111,1651
22.4139,1657
22.4167,1663
22.4194,1676
22.4222,1681
22.4250,1676
22.4278,1689
22.4306,1692
22.4333,1699
22.4361,1698
22.4389,1704
22.4417,1698
22.4444,1707
22.4472,1711
22.4500,1710
22.4528,1711
22.4556,1713
22.4583,1726
22.4611,1731
22.4639,1738
22.4667,1743
22.4694,1744
22.4722,1739
22.4750,1747
22.4778,1749
22.4806,1751
22.4833,1750
22.4861,1758
22.4889,1759
22.4917,1770
22.4944,1777
22.4972,1777
22.5000,1773
22.5028,1773
22.5056,1782
22.5083,1785
22.5111,1788
22.5139,1792
22.5167,1792
22.5194,1789
22.5222,1787
22.5250,1720
22.5278,1724
22.5306,1731
22.5333,1729
22.5361,1725
22.5389,1716
22.5417,1719
22.5444,1722
22.5472,1722
22.5500,1720
22.5528,1723
22.5556,1725
22.5583,1719
22.5611,1722
22.5639,1734
22.5667,1747
22.5694,1759
22.5722,1761
22.5750,1761
22.5778,1752
22.5806,1760
22.5833,1758
22.5861,1765
22.5889,1781
22.5917,1785
22.5944,1782
22.5972,1782
22.6000,1780
22.6028,1781
22.6056,1786
22.6083,1793
22.6111,1778
22.6139,1772
22.6167,1773
22.6194,1767
22.6222,1771
22.6250,1781
22.6278,1788
22.6306,1802
22.6333,1816
22.6361,1845
22.6389,1884
22.6417,1903
22.6444,1907
22.6472,1909
22.6500,1899
22.6528,1904
22.6556,1914
22.6583,1921
22.6611,1938
22.6639,1959
22.6667,1984
22.6694,1995
22.6722,2003
22.6750,2014
22.6778,2009
22.6806,1986
22.6833,1951
22.6861,1912
22.6889,1867
22.6917,1832
22.6944,1786
22.6972,1767
22.7000,1752
22.7028,1744
22.7056,1718
22.7083,1704
22.7111,1699
22.7139,1675
22.7167,1665
22.7194,1652
22.7222,1643
22.7250,1642
22.7278,1649
22.7306,1656
22.7333,1654
22.7361,1643
22.7389,1653
22.7417,1646
22.7444,1654
22.7472,1648
22.7500,1639
22.7528,1633
22.7556,1626
22.7583,1624
22.7611,1621
22.7639,1601
22.7667,1584
22.7694,1530
22.7722,1477
22.7750,1417
22.7778,1399
22.7806,1398
22.7833,1447
22.7861,1558
22.7889,1735
22.7917,1941
22.7944,2153
22.7972,2417
22.8000,2732
22.8028,3011
22.8056,3193
22.8083,3253
22.8111,3124
22.8139,2830
22.8167,2397
22.8194,1902
22.8222,1492
22.8250,1272
22.8278,1230
22.8306,1288
22.8333,1400
22.8361,1505
22.8389,1588
22.8417,1620
22.8444,1613
22.8472,1585
22.8500,1567
22.8528,1564
22.8556,1567
22.8583,1563
22.8611,1565
22.8639,1575
22.8667,1578
22.8694,1579
22.8722,1592
22.8750,1590
22.8778,1604
22.8806,1601
22.8833,1600
22.8861,1610
22.8889,1612
22.8917,1614
22.8944,1613
22.8972,1628
22.9000,1638
22.9028,1646
22.9056,1643
22.9083,1638
22.9111,1635
22.9139,1647
22.9167,1655
22.9194,1671
22.9222,1669
22.9250,1666
22.9278,1666
22.9306,1653
22.9333,1666
22.9361,1665
22.9389,1680
22.9417,1687
22.9444,1693
22.9472,1689
22.9500,1675
22.9528,1684
22.9556,1705
22.9583,1711
22.9611,1727
22.9639,1732
22.9667,1733
22.9694,1722
22.9722,1718
22.9750,1730
22.9778,1736
22.9806,1738
22.9833,1751
22.9861,1761
22.9889,1765
22.9917,1767
22.9944,1772
22.9972,1770
23.0000,1775
23.0028,1779
23.0056,1777
23.0083,1781
23.0111,1777
23.0139,1693
23.0167,1692
23.0194,1694
23.0222,1695
23.0250,1683
23.0278,1686
23.0306,1679
23.0333,1689
23.0361,1694
23.0389,1706
23.0417,1707
23.0444,1696
23.0472,1701
23.0500,1701
23.0528,1711
23.0556,1717
23.0583,1723
23.0611,1725
23.0639,1738
23.0667,1727
23.0694,1725
23.0722,1726
23.0750,1736
23.0778,1752
23.0806,1761
23.0833,1762
23.0861,1762
23.0889,1752
23.0917,1752
23.0944,1751
23.0972,1753
23.1000,1756
23.1028,1756
23.1056,1759
23.1083,1765
23.1111,1781
23.1139,1793
23.1167,1813
23.1194,1828
23.1222,1845
23.1250,1857
23.1278,1863
23.1306,1863
23.1333,1867
23.1361,1872
23.1389,1899
23.1417,1914
23.1444,1930
23.1472,1951
23.1500,1964
23.1528,1967
23.1556,1977
23.1583,1978
23.1611,1971
23.1639,1968
23.1667,1937
23.1694,1889
23.1722,1850
23.1750,1813
23.1778,1774
23.1806,1745
23.1833,1728
23.1861,1701
23.1889,1692
23.1917,1674
23.1944,1670
23.1972,1659
23.2000,1649
23.2028,1628
23.2056,1617
23.2083,1613
23.2111,1619
23.2139,1630
23.2167,1631
23.2194,1637
23.2222,1623
23.2250,1624
23.2278,1615
23.2306,1602
23.2333,1599
23.2361,1600
23.2389,1601
23.2417,1598
23.2444,1602
23.2472,1583
23.2500,1552
23.2528,1482
23.2556,1428
23.2583,1381
23.2611,1361
23.2639,1374
23.2667,1411
23.2694,1524
23.2722,1703
23.2750,1903
23.2778,2125
23.2806,2410
23.2833,2733
23.2861,2987
23.2889,3152
23.2917,3179
23.2944,3041
23.2972,2727
23.3000,2282
23.3028,1820
23.3056,1435
23.3083,1249
23.3111,1219
23.3139,1298
23.3167,1412
23.3194,1513
23.3222,1578
23.3250,1586
23.3278,1575
23.3306,1533
23.3333,1519
23.3361,1519
23.3389,1528
23.3417,1548
23.3444,1565
23.3472,1564
23.3500,1567
23.3528,1570
23.3556,1571
23.3583,1568
23.3611,1582
23.3639,1595
23.3667,1596
23.3694,1596
23.3722,1594
23.3750,1594
23.3778,1598
23.3806,1604
23.3833,1620
23.3861,1627
23.3889,1624
23.3917,1620
23.3944,1623
23.3972,1626
23.4000,1628
23.4028,1643
23.4056,1646
23.4083,1634
23.4111,1637
23.4139,1625
23.4167,1632
23.4194,1645
23.4222,1656
23.4250,1669
23.4278,1675
23.4306,1679
23.4333,1682
23.4361,1687
23.4389,1696
23.4417,1704
23.4444,1718
23.4472,1713
23.4500,1721
23.4528,1711
23.4556,1706
23.4583,1714
23.4611,1724
23.4639,1723
23.4667,1727
23.4694,1740
23.4722,1740
23.4750,1737
23.4778,1744
23.4806,1743
23.4833,1758
23.4861,1760
23.4889,1764
23.4917,1767
23.4944,1762
23.4972,1661
23.5000,1662
23.5028,1667
23.5056,1668
23.5083,1677
23.5111,1676
23.5139,1688
23.5167,1688
23.5194,1689
23.5222,1687
23.5250,1686
23.5278,1700
23.5306,1691
23.5333,1690
23.5361,1681
23.5389,1683
23.5417,1693
23.5444,1704
23.5472,1705
23.5500,1704
23.5528,1708
23.5556,1722
23.5583,1723
23.5611,1730
23.5639,1733
23.5667,1714
23.5694,1724
23.5722,1719
23.5750,1731
23.5778,1735
23.5806,1751
23.5833,1753
23.5861,1764
23.5889,1775
23.5917,1792
23.5944,1817
23.5972,1839
23.6000,1854
23.6028,1868
23.6056,1879
23.6083,1879
23.6111,1896
23.6139,1908
23.6167,1932
23.6194,1953
23.6222,1959
23.6250,1962
23.6278,1966
23.6306,1967
23.6333,1964
23.6361,1945
23.6389,1914
23.6417,1875
23.6444,1839
23.6472,1808
23.6500,1766
23.6528,1751
23.6556,1726
23.6583,1706
23.6611,1682
23.6639,1649
23.6667,1637
23.6694,1624
23.6722,1624
23.6750,1624
23.6778,1619
23.6806,1617
23.6833,1617
23.6861,1604
23.6889,1602
23.6917,1596
23.6944,1588
23.6972,1595
23.7000,1600
23.7028,1597
23.7056,1601
23.7083,1606
23.7111,1605
23.7139,1606
23.7167,1596
23.7194,1583
23.7222,1549
23.7250,1496
23.7278,1439
23.7306,1389
23.7333,1356
23.7361,1355
23.7389,1385
23.7417,1482
23.7444,1640
23.7472,1832
23.7500,2051
23.7528,2308
23.7556,2618
23.7583,2885
23.7611,3080
23.7639,3165
23.7667,3062
23.7694,2795
23.7722,2383
23.7750,1906
23.7778,1501
23.7806,1279
23.7833,1220
23.7861,1281
23.7889,1385
23.7917,1491
23.7944,1577
23.7972,1610
23.8000,1594
23.8028,1559
23.8056,1539
23.8083,1535
23.8111,1542
23.8139,1555
23.8167,1566
23.8194,1583
23.8222,1578
23.8250,1578
23.8278,1579
23.8306,1576
23.8333,1561
23.8361,1586
23.8389,1588
23.8417,1594
23.8444,1595
23.8472,1594
23.8500,1597
23.8528,1602
23.8556,1615
23.8583,1623
23.8611,1623
23.8639,1620
23.8667,1605
23.8694,1611
23.8722,1612
23.8750,1633
23.8778,1642
23.8806,1642
23.8833,1643
23.8861,1631
23.8889,1646
23.8917,1658
23.8944,1663
23.8972,1690
23.9000,1690
23.9028,1682
23.9056,1675
23.9083,1681
23.9111,1676
23.9139,1689
23.9167,1696
23.9194,1710
23.9222,1719
23.9250,1725
23.9278,1723
23.9306,1713
23.9333,1712
23.9361,1721
23.9389,1728
23.9417,1722
23.9444,1720
23.9472,1722
23.9500,1721
23.9528,1735
23.9556,1738
23.9583,1750
23.9611,1755
23.9639,1758
23.9667,1758
23.9694,1668
23.9722,1677
23.9750,1663
23.9778,1684
23.9806,1682
23.9833,1673
23.9861,1663
23.9889,1661
23.9917,1658
23.9944,1669
23.9972,1679
24.0000,1682
24.0028,1696
24.0056,1702
24.0083,1705
24.0111,1704
24.0139,1709
24.0167,1724
24.0194,1728
24.0222,1721
24.0250,1718
24.0278,1712
24.0306,1723
24.0333,1734
24.0361,1744
24.0389,1738
24.0417,1737
24.0444,1744
24.0472,1750
24.0500,1756
24.0528,1771
24.0556,1774
24.0583,1791
24.0611,1821
24.0639,1841
24.0667,1852
24.0694,1861
24.0722,1868
24.0750,1880
24.0778,1903
24.0806,1913
24.0833,1927
24.0861,1937
24.0889,1953
24.0917,1953
24.0944,1968
24.0972,1978
24.1000,1980
24.1028,1965
24.1056,1933
24.1083,1886
24.1111,1835
24.1139,1799
24.1167,1761
24.1194,1737
24.1222,1712
24.1250,1696
24.1278,1676
24.1306,1653
24.1333,1630
24.1361,1625
24.1389,1621
24.1417,1600
24.1444,1602
24.1472,1595
24.1500,1587
24.1528,1589
24.1556,1596
24.1583,1603
24.1611,1609
24.1639,1607
24.1667,1604
24.1694,1596
24.1722,1602
24.1750,1589
24.1778,1590
24.1806,1583
24.1833,1584
24.1861,1552
24.1889,1537
24.1917,1493
24.1944,1443
24.1972,1399
24.2000,1361
24.2028,1367
24.2056,1395
24.2083,1480
24.2111,1630
24.2139,1828
24.2167,2036
24.2194,2292
24.2222,2606
24.2250,2864
24.2278,3073
24.2306,3153
24.2333,3051
24.2361,2781
24.2389,2359
24.2417,1889
24.2444,1483
24.2472,1261
24.2500,1207
24.2528,1265
24.2556,1387
24.2583,1498
24.2611,1564
24.2639,1594
24.2667,1582
24.2694,1556
24.2722,1530
24.2750,1515
24.2778,1521
24.2806,1545
24.2833,1552
24.2861,1553
24.2889,1549
24.2917,1546
24.2944,1543
24.2972,1555
24.3000,1566
24.3028,1589
24.3056,1594
24.3083,1594
24.3111,1589
24.3139,1601
24.3167,1609
24.3194,1601
24.3222,1613
24.3250,1618
24.3278,1623
24.3306,1626
24.3333,1608
24.3361,1618
24.3389,1629
24.3417,1636
24.3444,1641
24.3472,1652
24.3500,1639
24.3528,1634
24.3556,1646
24.3583,1648
24.3611,1656
24.3639,1663
24.3667,1681
24.3694,1675
24.3722,1667
24.3750,1669
24.3778,1673
24.3806,1683
24.3833,1694
24.3861,1699
24.3889,1701
24.3917,1694
24.3944,1694
24.3972,1699
24.4000,1704
24.4028,1711
24.4056,1713
24.4083,1725
24.4111,1716
24.4139,1706
24.4167,1714
24.4194,1717
24.4222,1713
24.4250,1724
24.4278,1726
24.4306,1734
24.4333,1738
24.4361,1671
24.4389,1677
24.4417,1675
24.4444,1677
24.4472,1670
24.4500,1666
24.4528,1662
24.4556,1665
24.4583,1667
24.4611,1683
24.4639,1683
24.4667,1682
24.4694,1677
24.4722,1667
24.4750,1670
24.4778,1680
24.4806,1685
24.4833,1698
24.4861,1705
24.4889,1708
24.4917,1707
24.4944,1704
24.4972,1707
24.5000,1721
24.5028,1718
24.5056,1720
24.5083,1724
24.5111,1727
24.5139,1724
24.5167,1733
24.5194,1730
24.5222,1763
24.5250,1771
24.5278,1803
24.5306,1826
24.5333,1840
24.5361,1860
24.5389,1864
24.5417,1869
24.5444,1897
24.5472,1901
24.5500,1915
24.5528,1921
24.5556,1945
24.5583,1964
24.5611,1963
24.5639,1963
24.5667,1956
24.5694,1936
24.5722,1913
24.5750,1877
24.5778,1839
24.5806,1796
24.5833,1760
24.5861,1729
24.5889,1715
24.5917,1694
24.5944,1664
24.5972,1640
24.6000,1615
24.6028,1602
24.6056,1594
24.6083,1597
24.6111,1589
24.6139,1590
24.6167,1591
24.6194,1578
24.6222,1579
24.6250,1570
24.6278,1572
24.6306,1569
24.6333,1576
24.6361,1570
24.6389,1573
24.6417,1579
24.6444,1580
24.6472,1584
24.6500,1562
24.6528,1551
24.6556,1534
24.6583,1489
24.6611,1439
24.6639,1394
24.6667,1350
24.6694,1333
24.6722,1345
24.6750,1394
24.6778,1511
24.6806,1693
24.6833,1885
24.6861,2113
24.6889,2398
24.6917,2698
24.6944,2941
24.6972,3096
24.7000,3112
24.7028,2926
24.7056,2597
24.7083,2127
24.7111,1670
24.7139,1346
24.7167,1199
24.7194,1201
24.7222,1294
24.7250,1414
24.7278,1517
24.7306,1576
24.7333,1583
24.7361,1569
24.7389,1541
24.7417,1522
24.7444,1519
24.7472,1519
24.7500,1526
24.7528,1525
24.7556,1531
24.7583,1528
24.7611,1538
24.7639,1538
24.7667,1549
24.7694,1557
24.7722,1570
24.7750,1564
24.7778,1571
24.7806,1570
24.7833,1566
24.7861,1559
24.7889,1570
24.7917,1588
24.7944,1595
24.7972,1596
24.8000,1603
24.8028,1607
24.8056,1612
24.8083,1610
24.8111,1611
24.8139,1596
24.8167,1613
24.8194,1612
24.8222,1617
24.8250,1634
24.8278,1647
24.8306,1648
24.8333,1660
24.8361,1650
24.8389,1647
24.8417,1652
24.8444,1654
24.8472,1653
24.8500,1668
24.8528,1663
24.8556,1673
24.8583,1675
24.8611,1673
24.8639,1669
24.8667,1680
24.8694,1685
24.8722,1683
24.8750,1684
24.8778,1685
24.8806,1684
24.8833,1676
24.8861,1685
24.8889,1699
24.8917,1705
24.8944,1713
24.8972,1707
24.9000,1699
24.9028,1686
24.9056,1643
24.9083,1652
24.9111,1648
24.9139,1643
24.9167,1647
24.9194,1632
24.9222,1638
24.9250,1639
24.9278,1641
24.9306,1653
24.9333,1653
24.9361,1656
24.9389,1652
24.9417,1657
24.9444,1666
24.9472,1671
24.9500,1678
24.9528,1684
24.9556,1685
24.9583,1698
24.9611,1691
24.9639,1697
24.9667,1692
24.9694,1698
24.9722,1691
24.9750,1703
24.9778,1708
24.9806,1722
24.9833,1739
24.9861,1757
24.9889,1789
24.9917,1809
24.9944,1824
24.9972,1821
25.0000,1827
25.0028,1843
25.0056,1859
25.0083,1883
25.0111,1903
25.0139,1920
25.0167,1934
25.0194,1930
25.0222,1932
25.0250,1939
25.0278,1933
25.0306,1933
25.0333,1901
25.0361,1871
25.0389,1821
25.0417,1788
25.0444,1744
25.0472,1722
25.0500,1707
25.0528,1688
25.0556,1657
25.0583,1634
25.0611,1610
25.0639,1601
25.0667,1591
25.0694,1593
25.0722,1600
25.0750,1591
25.0778,1593
25.0806,1584
25.0833,1580
25.0861,1574
25.0889,1571
25.0917,1567
25.0944,1569
25.0972,1576
25.1000,1583
25.1028,1581
25.1056,1573
25.1083,1575
25.1111,1566
25.1139,1562
25.1167,1542
25.1194,1512
25.1222,1457
25.1250,1389
25.1278,1337
25.1306,1330
25.1333,1342
25.1361,1392
25.1389,1515
25.1417,1689
25.1444,1886
25.1472,2111
25.1500,2392
25.1528,2691
25.1556,2934
25.1583,3074
25.1611,3085
25.1639,2925
25.1667,2595
25.1694,2141
25.1722,1689
25.1750,1346
25.1778,1214
25.1806,1213
25.1833,1321
25.1861,1428
25.1889,1521
25.1917,1579
25.1944,1594
25.1972,1573
25.2000,1548
25.2028,1523
25.2056,1519
25.2083,1535
25.2111,1547
25.2139,1554
25.2167,1559
25.2194,1549
25.2222,1542
25.2250,1546
25.2278,1562
25.2306,1574
25.2333,1584
25.2361,1583
25.2389,1583
25.2417,1597
25.2444,1599
25.2472,1602
25.2500,1608
25.2528,1613
25.2556,1616
25.2583,1614
25.2611,1602
25.2639,1602
25.2667,1623
25.2694,1629
25.2722,1642
25.2750,1655
25.2778,1657
25.2806,1656
25.2833,1648
25.2861,1648
25.2889,1649
25.2917,1656
25.2944,1666
25.2972,1668
25.3000,1665
25.3028,1665
25.3056,1670
25.3083,1692
25.3111,1706
25.3139,1716
25.3167,1714
25.3194,1715
25.3222,1713
25.3250,1716
25.3278,1724
25.3306,1722
25.3333,1729
25.3361,1723
25.3389,1719
25.3417,1718
25.3444,1714
25.3472,1729
25.3500,1749
25.3528,1748
25.3556,1760
25.3583,1751
25.3611,1746
25.3639,1756
25.3667,1697
25.3694,1710
25.3722,1699
25.3750,1697
25.3778,1689
25.3806,1694
25.3833,1687
25.3861,1690
25.3889,1690
25.3917,1704
25.3944,1714
25.3972,1717
25.4000,1711
25.4028,1722
25.4056,1728
25.4083,1727
25.4111,1743
25.4139,1746
25.4167,1745
25.4194,1747
25.4222,1744
25.4250,1751
25.4278,1746
25.4306,1762
25.4333,1781
25.4361,1788
25.4389,1775
25.4417,1766
25.4444,1772
25.4472,1776
25.4500,1790
25.4528,1820
25.4556,1833
25.4583,1838
25.4611,1860
25.4639,1873
25.4667,1892
25.4694,1907
25.4722,1914
25.4750,1948
25.4778,1969
25.4806,1989
25.4833,1995
25.4861,2003
25.4889,2002
25.4917,2004
25.4944,2001
25.4972,1982
25.5000,1954
25.5028,1923
25.5056,1886
25.5083,1847
25.5111,1803
25.5139,1780
25.5167,1750
25.5194,1739
25.5222,1712
25.5250,1682
25.5278,1663
25.5306,1653
25.5333,1652
25.5361,1651
25.5389,1644
25.5417,1633
25.5444,1637
25.5472,1623
25.5500,1624
25.5528,1628
25.5556,1637
25.5583,1622
25.5611,1618
25.5639,1617
25.5667,1621
25.5694,1635
25.5722,1648
25.5750,1648
25.5778,1628
25.5806,1600
25.5833,1566
25.5861,1528
25.5889,1475
25.5917,1421
25.5944,1383
25.5972,1371
25.6000,1383
25.6028,1456
25.6056,1596
25.6083,1801
25.6111,2021
25.6139,2262
25.6167,2569
25.6194,2857
25.6222,3065
25.6250,3176
25.6278,3126
25.6306,2903
25.6333,2508
25.6361,2028
25.6389,1594
25.6417,1319
25.6444,1229
25.6472,1275
25.6500,1379
25.6528,1506
25.6556,1604
25.6583,1630
25.6611,1619
25.6639,1590
25.6667,1558
25.6694,1543
25.6722,1544
25.6750,1565
25.6778,1576
25.6806,1579
25.6833,1584
25.6861,1586
25.6889,1593
25.6917,1608
25.6944,1617
25.6972,1625
25.7000,1624
25.7028,1628
25.7056,1613
25.7083,1614
25.7111,1613
25.7139,1629
25.7167,1627
25.7194,1634
25.7222,1641
25.7250,1643
25.7278,1634
25.7306,1637
25.7333,1651
25.7361,1659
25.7389,1660
25.7417,1663
25.7444,1664
25.7472,1661
25.7500,1672
25.7528,1678
25.7556,1683
25.7583,1691
25.7611,1680
25.7639,1675
25.7667,1677
25.7694,1682
25.7722,1698
25.7750,1698
25.7778,1714
25.7806,1727
25.7833,1731
25.7861,1722
25.7889,1722
25.7917,1717
25.7944,1722
25.7972,1724
25.8000,1725
25.8028,1724
25.8056,1716
25.8083,1714
25.8111,1724
25.8139,1729
25.8167,1735
25.8194,1748
25.8222,1753
25.8250,1764
25.8278,1761
25.8306,1762
25.8333,1682
25.8361,1686
25.8389,1689
25.8417,1686
25.8444,1674
25.8472,1679
25.8500,1676
25.8528,1686
25.8556,1705
25.8583,1708
25.8611,1715
25.8639,1710
25.8667,1719
25.8694,1725
25.8722,1723
25.8750,1724
25.8778,1725
25.8806,1732
25.8833,1723
25.8861,1729
25.8889,1744
25.8917,1751
25.8944,1766
25.8972,1771
25.9000,1781
25.9028,1788
25.9056,1796
25.9083,1815
25.9111,1838
25.9139,1863
25.9167,1886
25.9194,1896
25.9222,1904
25.9250,1918
25.9278,1934
25.9306,1950
25.9333,1971
25.9361,1991
25.9389,1995
25.9417,2017
25.9444,2017
25.9472,2020
25.9500,2001
25.9528,1993
25.9556,1969
25.9583,1932
25.9611,1903
25.9639,1866
25.9667,1829
25.9694,1810
25.9722,1795
25.9750,1767
25.9778,1744
25.9806,1715
25.9833,1698
25.9861,1688
25.9889,1694
25.9917,1697
25.9944,1696
25.9972,1698
26.0000,1695
26.0028,1679
26.0056,1674
26.0083,1673
26.0111,1674
26.0139,1663
26.0167,1675
26.0194,1676
26.0222,1685
26.0250,1683
26.0278,1685
26.0306,1667
26.0333,1645
26.0361,1620
26.0389,1593
26.0417,1554
26.0444,1499
26.0472,1455
26.0500,1429
26.0528,1437
26.0556,1468
26.0583,1572
26.0611,1735
26.0639,1929
26.0667,2142
26.0694,2401
26.0722,2689
26.0750,2945
26.0778,3135
26.0806,3229
26.0833,3130
26.0861,2869
26.0889,2440
26.0917,1963
26.0944,1564
26.0972,1355
26.1000,1293
26.1028,1336
26.1056,1434
26.1083,1538
26.1111,1613
26.1139,1659
26.1167,1650
26.1194,1630
26.1222,1614
26.1250,1610
26.1278,1609
26.1306,1623
26.1333,1629
26.1361,1630
26.1389,1615
26.1417,1614
26.1444,1620
26.1472,1625
26.1500,1636
26.1528,1655
26.1556,1657
26.1583,1665
26.1611,1657
26.1639,1647
26.1667,1651
26.1694,1652
26.1722,1667
26.1750,1679
26.1778,1689
26.1806,1682
26.1833,1682
26.1861,1686
26.1889,1683
26.1917,1686
26.1944,1701
26.1972,1708
26.2000,1711
26.2028,1712
26.2056,1704
26.2083,1699
26.2111,1710
26.2139,1721
26.2167,1725
26.2194,1731
26.2222,1733
26.2250,1734
26.2278,1742
26.2306,1746
26.2333,1746
26.2361,1746
26.2389,1752
26.2417,1744
26.2444,1745
26.2472,1754
26.2500,1770
26.2528,1772
26.2556,1780
26.2583,1776
26.2611,1775
26.2639,1761
26.2667,1763
26.2694,1770
26.2722,1780
26.2750,1781
26.2778,1781
26.2806,1784
26.2833,1776
26.2861,1712
26.2889,1715
26.2917,1714
26.2944,1731
26.2972,1729
26.3000,1728
26.3028,1718
26.3056,1719
26.3083,1727
26.3111,1739
26.3139,1751
26.3167,1756
26.3194,1756
26.3222,1747
26.3250,1740
26.3278,1740
26.3306,1744
26.3333,1763
26.3361,1763
26.3389,1769
26.3417,1765
26.3444,1774
26.3472,1783
26.3500,1787
26.3528,1786
26.3556,1773
26.3583,1777
26.3611,1769
26.3639,1774
26.3667,1782
26.3694,1806
26.3722,1835
26.3750,1858
26.3778,1891
26.3806,1904
26.3833,1909
26.3861,1910
26.3889,1905
26.3917,1899
26.3944,1922
26.3972,1949
26.4000,1969
26.4028,1983
26.4056,1995
