Tiempo(s),Valor_ADC
0.0028,2288
0.0056,2292
0.0083,2286
0.0111,2290
0.0139,2299
0.0167,2301
0.0194,2305
0.0222,2290
0.0250,2271
0.0278,2258
0.0306,2252
0.0333,2241
0.0361,2219
0.0389,2207
0.0417,2193
0.0444,2186
0.0472,2189
0.0500,2184
0.0528,2176
0.0556,2163
0.0583,2153
0.0611,2142
0.0639,2137
0.0667,2136
0.0694,2149
0.0722,2156
0.0750,2166
0.0778,2173
0.0806,2147
0.0833,2126
0.0861,2116
0.0889,2118
0.0917,2119
0.0944,2121
0.0972,2126
0.1000,2135
0.1028,2143
0.1056,2140
0.1083,2139
0.1111,2139
0.1139,2140
0.1167,2154
0.1194,2154
0.1222,2150
0.1250,2144
0.1278,2140
0.1306,2133
0.1333,2138
0.1361,2147
0.1389,2142
0.1417,2136
0.1444,2125
0.1472,2116
0.1500,2110
0.1528,2106
0.1556,2114
0.1583,2121
0.1611,2127
0.1639,2139
0.1667,2127
0.1694,2111
0.1722,2110
0.1750,2118
0.1778,2127
0.1806,2131
0.1833,2133
0.1861,2134
0.1889,2140
0.1917,2145
0.1944,2144
0.1972,2148
0.2000,2140
0.2028,2147
0.2056,2137
0.2083,2126
0.2111,2112
0.2139,2086
0.2167,2074
0.2194,2075
0.2222,2072
0.2250,2065
0.2278,2068
0.2306,2080
0.2333,2087
0.2361,2095
0.2389,2106
0.2417,2106
0.2444,2101
0.2472,2111
0.2500,2118
0.2528,2123
0.2556,2114
0.2583,2108
0.2611,2100
0.2639,2104
0.2667,2112
0.2694,2128
0.2722,2137
0.2750,2156
0.2778,2166
0.2806,2186
0.2833,2210
0.2861,2216
0.2889,2216
0.2917,2207
0.2944,2215
0.2972,2209
0.3000,2207
0.3028,2218
0.3056,2238
0.3083,2271
0.3111,2305
0.3139,2334
0.3167,2349
0.3194,2347
0.3222,2315
0.3250,2286
0.3278,2259
0.3306,2246
0.3333,2229
0.3361,2206
0.3389,2192
0.3417,2164
0.3444,2144
0.3472,2123
0.3500,2100
0.3528,2069
0.3556,2050
0.3583,2029
0.3611,1997
0.3639,1992
0.3667,1988
0.3694,1983
0.3722,1982
0.3750,1969
0.3778,1975
0.3806,1974
0.3833,1987
0.3861,1981
0.3889,1974
0.3917,1968
0.3944,1960
0.3972,1970
0.4000,1969
0.4028,1970
0.4056,1970
0.4083,1970
0.4111,1983
0.4139,1986
0.4167,1987
0.4194,1985
0.4222,1988
0.4250,1985
0.4278,1985
0.4306,1991
0.4333,1979
0.4361,1967
0.4389,1963
0.4417,1969
0.4444,1969
0.4472,1990
0.4500,2013
0.4528,2044
0.4556,2073
0.4583,2082
0.4611,2090
0.4639,2119
0.4667,2166
0.4694,2239
0.4722,2317
0.4750,2377
0.4778,2396
0.4806,2360
0.4833,2300
0.4861,2187
0.4889,2035
0.4917,1916
0.4944,1873
0.4972,1862
0.5000,1897
0.5028,1933
0.5056,1964
0.5083,1975
0.5111,1993
0.5139,2007
0.5167,2026
0.5194,2022
0.5222,2030
0.5250,2025
0.5278,2028
0.5306,2008
0.5333,2005
0.5361,1996
0.5389,1991
0.5417,1997
0.5444,1995
0.5472,2017
0.5500,2028
0.5528,2029
0.5556,2028
0.5583,2025
0.5611,2035
0.5639,2031
0.5667,2033
0.5694,2022
0.5722,2033
0.5750,2038
0.5778,2034
0.5806,2036
0.5833,2051
0.5861,2041
0.5889,2045
0.5917,2057
0.5944,2061
0.5972,2052
0.6000,2040
0.6028,2050
0.6056,2066
0.6083,2081
0.6111,2081
0.6139,2077
0.6167,2072
0.6194,2074
0.6222,2080
0.6250,2080
0.6278,2091
0.6306,2105
0.6333,2109
0.6361,2126
0.6389,2120
0.6417,2133
0.6444,2125
0.6472,2122
0.6500,2117
0.6528,2123
0.6556,2135
0.6583,2146
0.6611,2161
0.6639,2172
0.6667,2175
0.6694,2178
0.6722,2177
0.6750,2189
0.6778,2196
0.6806,2208
0.6833,2362
0.6861,2367
0.6889,2350
0.6917,2336
0.6944,2312
0.6972,2292
0.7000,2281
0.7028,2270
0.7056,2245
0.7083,2236
0.7111,2222
0.7139,2202
0.7167,2191
0.7194,2177
0.7222,2176
0.7250,2167
0.7278,2155
0.7306,2145
0.7333,2117
0.7361,2104
0.7389,2082
0.7417,2068
0.7444,2063
0.7472,2062
0.7500,2063
0.7528,2070
0.7556,2071
0.7583,2068
0.7611,2069
0.7639,2072
0.7667,2070
0.7694,2065
0.7722,2056
0.7750,2066
0.7778,2084
0.7806,2089
0.7833,2103
0.7861,2102
0.7889,2102
0.7917,2110
0.7944,2111
0.7972,2112
0.8000,2111
0.8028,2107
0.8056,2104
0.8083,2106
0.8111,2103
0.8139,2102
0.8167,2097
0.8194,2106
0.8222,2109
0.8250,2111
0.8278,2118
0.8306,2132
0.8333,2147
0.8361,2153
0.8389,2134
0.8417,2127
0.8444,2127
0.8472,2118
0.8500,2127
0.8528,2144
0.8556,2147
0.8583,2145
0.8611,2154
0.8639,2162
0.8667,2168
0.8694,2172
0.8722,2181
0.8750,2170
0.8778,2163
0.8806,2159
0.8833,2158
0.8861,2151
0.8889,2149
0.8917,2148
0.8944,2140
0.8972,2151
0.9000,2162
0.9028,2162
0.9056,2162
0.9083,2175
0.9111,2180
0.9139,2190
0.9167,2209
0.9194,2225
0.9222,2247
0.9250,2254
0.9278,2258
0.9306,2258
0.9333,2255
0.9361,2264
0.9389,2287
0.9417,2328
0.9444,2359
0.9472,2375
0.9500,2382
0.9528,2379
0.9556,2355
0.9583,2330
0.9611,2306
0.9639,2271
0.9667,2248
0.9694,2208
0.9722,2186
0.9750,2173
0.9778,2137
0.9806,2109
0.9833,2076
0.9861,2070
0.9889,2045
0.9917,2037
0.9944,2014
0.9972,1990
1.0000,1977
1.0028,1962
1.0056,1954
1.0083,1950
1.0111,1953
1.0139,1953
1.0167,1955
1.0194,1956
1.0222,1955
1.0250,1946
1.0278,1943
1.0306,1933
1.0333,1936
1.0361,1941
1.0389,1946
1.0417,1955
1.0444,1948
1.0472,1949
1.0500,1943
1.0528,1951
1.0556,1960
1.0583,1973
1.0611,1975
1.0639,1977
1.0667,1973
1.0694,1978
1.0722,1969
1.0750,1963
1.0778,1963
1.0806,1974
1.0833,1992
1.0861,2021
1.0889,2051
1.0917,2084
1.0944,2104
1.0972,2156
1.1000,2215
1.1028,2297
1.1056,2402
1.1083,2462
1.1111,2465
1.1139,2409
1.1167,2310
1.1194,2179
1.1222,2037
1.1250,1901
1.1278,1800
1.1306,1770
1.1333,1807
1.1361,1874
1.1389,1917
1.1417,1957
1.1444,1998
1.1472,2009
1.1500,2005
1.1528,1995
1.1556,1970
1.1583,1943
1.1611,1928
1.1639,1926
1.1667,1933
1.1694,1933
1.1722,1947
1.1750,1954
1.1778,1961
1.1806,1975
1.1833,1975
1.1861,1973
1.1889,1966
1.1917,1960
1.1944,1960
1.1972,1952
1.2000,1959
1.2028,1964
1.2056,1967
1.2083,1979
1.2111,1995
1.2139,1996
1.2167,1996
1.2194,1990
1.2222,1986
1.2250,1997
1.2278,1985
1.2306,1993
1.2333,1997
1.2361,2011
1.2389,2019
1.2417,2023
1.2444,2021
1.2472,2014
1.2500,2017
1.2528,2016
1.2556,2008
1.2583,2010
1.2611,2018
1.2639,2018
1.2667,2018
1.2694,2013
1.2722,2015
1.2750,2025
1.2778,2033
1.2806,2030
1.2833,2027
1.2861,2019
1.2889,2024
1.2917,2031
1.2944,2040
1.2972,2039
1.3000,2048
1.3028,2040
1.3056,2040
1.3083,2054
1.3111,2072
1.3139,2081
1.3167,2086
1.3194,2123
1.3222,2119
1.3250,2105
1.3278,2075
1.3306,2059
1.3333,2042
1.3361,2023
1.3389,2004
1.3417,1978
1.3444,1979
1.3472,1977
1.3500,1971
1.3528,1972
1.3556,1963
1.3583,1963
1.3611,1951
1.3639,1946
1.3667,1947
1.3694,1942
1.3722,1941
1.3750,1941
1.3778,1931
1.3806,1930
1.3833,1933
1.3861,1931
1.3889,1941
1.3917,1952
1.3944,1960
1.3972,1958
1.4000,1960
1.4028,1962
1.4056,1972
1.4083,1976
1.4111,1969
1.4139,1977
1.4167,1994
1.4194,1997
1.4222,1998
1.4250,2000
1.4278,1994
1.4306,1995
1.4333,1994
1.4361,2003
1.4389,2010
1.4417,2017
1.4444,2009
1.4472,2011
1.4500,2019
1.4528,2025
1.4556,2032
1.4583,2035
1.4611,2040
1.4639,2037
1.4667,2034
1.4694,2024
1.4722,2018
1.4750,2009
1.4778,2001
1.4806,2001
1.4833,2000
1.4861,1999
1.4889,2012
1.4917,2008
1.4944,2007
1.4972,2006
1.5000,2016
1.5028,2009
1.5056,1998
1.5083,1996
1.5111,1997
1.5139,1988
1.5167,1986
1.5194,1979
1.5222,1982
1.5250,1985
1.5278,1983
1.5306,1984
1.5333,1986
1.5361,1975
1.5389,1974
1.5417,1965
1.5444,1969
1.5472,1980
1.5500,1987
1.5528,2001
1.5556,2001
1.5583,1992
1.5611,1982
1.5639,1970
1.5667,1950
1.5694,1949
1.5722,1957
1.5750,1974
1.5778,1993
1.5806,2037
1.5833,2066
1.5861,2098
1.5889,2106
1.5917,2107
1.5944,2099
1.5972,2100
1.6000,2098
1.6028,2109
1.6056,2148
1.6083,2168
1.6111,2181
1.6139,2200
1.6167,2185
1.6194,2173
1.6222,2160
1.6250,2138
1.6278,2116
1.6306,2086
1.6333,2057
1.6361,2032
1.6389,2027
1.6417,2001
1.6444,1973
1.6472,1952
1.6500,1930
1.6528,1920
1.6556,1904
1.6583,1891
1.6611,1876
1.6639,1861
1.6667,1850
1.6694,1833
1.6722,1846
1.6750,1848
1.6778,1861
1.6806,1861
1.6833,1856
1.6861,1853
1.6889,1854
1.6917,1868
1.6944,1867
1.6972,1873
1.7000,1865
1.7028,1865
1.7056,1875
1.7083,1880
1.7111,1880
1.7139,1878
1.7167,1882
1.7194,1885
1.7222,1880
1.7250,1875
1.7278,1880
1.7306,1892
1.7333,1902
1.7361,1909
1.7389,1913
1.7417,1919
1.7444,1927
1.7472,1949
1.7500,1984
1.7528,2023
1.7556,2044
1.7583,2082
1.7611,2149
1.7639,2211
1.7667,2317
1.7694,2423
1.7722,2491
1.7750,2487
1.7778,2437
1.7806,2346
1.7833,2251
1.7861,2136
1.7889,1965
1.7917,1787
1.7944,1708
1.7972,1710
1.8000,1770
1.8028,1841
1.8056,1891
1.8083,1937
1.8111,1949
1.8139,1938
1.8167,1932
1.8194,1921
1.8222,1923
1.8250,1928
1.8278,1935
1.8306,1933
1.8333,1939
1.8361,1946
1.8389,1929
1.8417,1917
1.8444,1907
1.8472,1909
1.8500,1912
1.8528,1926
1.8556,1937
1.8583,1940
1.8611,1940
1.8639,1929
1.8667,1925
1.8694,1927
1.8722,1933
1.8750,1940
1.8778,1951
1.8806,1959
1.8833,1966
1.8861,1956
1.8889,1965
1.8917,1967
1.8944,1970
1.8972,1977
1.9000,1977
1.9028,1979
1.9056,1984
1.9083,1986
1.9111,1991
1.9139,1994
1.9167,2005
1.9194,1994
1.9222,1991
1.9250,1982
1.9278,1989
1.9306,1986
1.9333,1997
1.9361,2010
1.9389,2021
1.9417,2025
1.9444,2027
1.9472,2025
1.9500,2018
1.9528,2030
1.9556,2035
1.9583,2048
1.9611,2046
1.9639,2065
1.9667,2071
1.9694,2077
1.9722,2090
1.9750,2097
1.9778,2100
1.9806,2098
1.9833,2195
1.9861,2184
1.9889,2165
1.9917,2150
1.9944,2121
1.9972,2099
2.0000,2081
2.0028,2046
2.0056,2020
2.0083,2001
2.0111,1998
2.0139,2004
2.0167,2009
2.0194,2019
2.0222,2019
2.0250,2029
2.0278,2026
2.0306,2016
2.0333,2002
2.0361,1992
2.0389,1981
2.0417,1981
2.0444,1986
2.0472,1997
2.0500,2007
2.0528,2028
2.0556,2041
2.0583,2029
2.0611,2020
2.0639,2001
2.0667,1994
2.0694,2006
2.0722,2015
2.0750,2030
2.0778,2039
2.0806,2041
2.0833,2045
2.0861,2036
2.0889,2039
2.0917,2040
2.0944,2046
2.0972,2056
2.1000,2057
2.1028,2063
2.1056,2063
2.1083,2044
2.1111,2049
2.1139,2038
2.1167,2039
2.1194,2046
2.1222,2058
2.1250,2057
2.1278,2066
2.1306,2072
2.1333,2078
2.1361,2089
2.1389,2091
2.1417,2091
2.1444,2084
2.1472,2076
2.1500,2080
2.1528,2097
2.1556,2106
2.1583,2094
2.1611,2097
2.1639,2096
2.1667,2095
2.1694,2102
2.1722,2117
2.1750,2131
2.1778,2124
2.1806,2124
2.1833,2132
2.1861,2136
2.1889,2131
2.1917,2111
2.1944,2111
2.1972,2101
2.2000,2105
2.2028,2110
2.2056,2120
2.2083,2120
2.2111,2121
2.2139,2122
2.2167,2123
2.2194,2122
2.2222,2124
2.2250,2119
2.2278,2118
2.2306,2114
2.2333,2116
2.2361,2115
2.2389,2115
2.2417,2103
2.2444,2102
2.2472,2093
2.2500,2095
2.2528,2086
2.2556,2067
2.2583,2055
2.2611,2044
2.2639,2033
2.2667,2028
2.2694,2020
2.2722,2020
2.2750,2040
2.2778,2040
2.2806,2045
2.2833,2059
2.2861,2063
2.2889,2075
2.2917,2072
2.2944,2084
2.2972,2078
2.3000,2087
2.3028,2062
2.3056,2055
2.3083,2065
2.3111,2076
2.3139,2102
2.3167,2117
2.3194,2138
2.3222,2157
2.3250,2177
2.3278,2214
2.3306,2238
2.3333,2242
2.3361,2238
2.3389,2234
2.3417,2230
2.3444,2229
2.3472,2246
2.3500,2292
2.3528,2332
2.3556,2344
2.3583,2344
2.3611,2334
2.3639,2331
2.3667,2315
2.3694,2298
2.3722,2286
2.3750,2259
2.3778,2240
2.3806,2216
2.3833,2201
2.3861,2179
2.3889,2150
2.3917,2130
2.3944,2109
2.3972,2098
2.4000,2084
2.4028,2072
2.4056,2074
2.4083,2061
2.4111,2045
2.4139,2040
2.4167,2041
2.4194,2052
2.4222,2065
2.4250,2073
2.4278,2068
2.4306,2064
2.4333,2061
2.4361,2059
2.4389,2059
2.4417,2057
2.4444,2066
2.4472,2077
2.4500,2079
2.4528,2089
2.4556,2102
2.4583,2093
2.4611,2085
2.4639,2078
2.4667,2084
2.4694,2088
2.4722,2099
2.4750,2109
2.4778,2120
2.4806,2130
2.4833,2132
2.4861,2121
2.4889,2120
2.4917,2138
2.4944,2176
2.4972,2211
2.5000,2245
2.5028,2284
2.5056,2342
2.5083,2414
2.5111,2528
2.5139,2616
2.5167,2692
2.5194,2696
2.5222,2646
2.5250,2559
2.5278,2430
2.5306,2279
2.5333,2111
2.5361,1955
2.5389,1909
2.5417,1941
2.5444,2010
2.5472,2072
2.5500,2118
2.5528,2146
2.5556,2163
2.5583,2149
2.5611,2134
2.5639,2119
2.5667,2116
2.5694,2120
2.5722,2124
2.5750,2126
2.5778,2127
2.5806,2131
2.5833,2135
2.5861,2144
2.5889,2143
2.5917,2146
2.5944,2141
2.5972,2141
2.6000,2135
2.6028,2136
2.6056,2137
2.6083,2134
2.6111,2142
2.6139,2151
2.6167,2143
2.6194,2129
2.6222,2129
2.6250,2137
2.6278,2140
2.6306,2154
2.6333,2173
2.6361,2173
2.6389,2181
2.6417,2181
2.6444,2191
2.6472,2193
2.6500,2191
2.6528,2191
2.6556,2203
2.6583,2214
2.6611,2226
2.6639,2229
2.6667,2231
2.6694,2234
2.6722,2243
2.6750,2249
2.6778,2254
2.6806,2256
2.6833,2260
2.6861,2264
2.6889,2268
2.6917,2266
2.6944,2277
2.6972,2294
2.7000,2302
2.7028,2309
2.7056,2304
2.7083,2299
2.7111,2299
2.7139,2293
2.7167,2301
2.7194,2301
2.7222,2310
2.7250,2317
2.7278,2366
2.7306,2371
2.7333,2342
2.7361,2321
2.7389,2289
2.7417,2271
2.7444,2247
2.7472,2232
2.7500,2222
2.7528,2212
2.7556,2198
2.7583,2184
2.7611,2173
2.7639,2148
2.7667,2127
2.7694,2123
2.7722,2111
2.7750,2105
2.7778,2099
2.7806,2085
2.7833,2081
2.7861,2074
2.7889,2054
2.7917,2049
2.7944,2049
2.7972,2055
2.8000,2061
2.8028,2052
2.8056,2053
2.8083,2048
2.8111,2040
2.8139,2039
2.8167,2042
2.8194,2030
2.8222,2026
2.8250,2018
2.8278,2012
2.8306,1998
2.8333,1989
2.8361,1994
2.8389,1991
2.8417,1990
2.8444,1990
2.8472,2004
2.8500,1998
2.8528,1990
2.8556,1982
2.8583,1973
2.8611,1968
2.8639,1975
2.8667,1977
2.8694,1974
2.8722,1966
2.8750,1963
2.8778,1950
2.8806,1942
2.8833,1932
2.8861,1922
2.8889,1929
2.8917,1926
2.8944,1928
2.8972,1931
2.9000,1928
2.9028,1927
2.9056,1925
2.9083,1921
2.9111,1918
2.9139,1922
2.9167,1928
2.9194,1929
2.9222,1922
2.9250,1904
2.9278,1896
2.9306,1890
2.9333,1881
2.9361,1881
2.9389,1888
2.9417,1896
2.9444,1886
2.9472,1879
2.9500,1860
2.9528,1854
2.9556,1849
2.9583,1860
2.9611,1863
2.9639,1862
2.9667,1859
2.9694,1852
2.9722,1861
2.9750,1863
2.9778,1862
2.9806,1864
2.9833,1856
2.9861,1851
2.9889,1852
2.9917,1851
2.9944,1841
2.9972,1836
3.0000,1849
3.0028,1855
3.0056,1859
3.0083,1868
3.0111,1862
3.0139,1868
3.0167,1870
3.0194,1873
3.0222,1872
3.0250,1863
3.0278,1874
3.0306,1890
3.0333,1901
3.0361,1902
3.0389,1902
3.0417,1912
3.0444,1923
3.0472,1925
3.0500,1926
3.0528,1921
3.0556,1934
3.0583,1939
3.0611,1965
3.0639,2000
3.0667,2017
3.0694,2039
3.0722,2021
3.0750,2013
3.0778,2014
3.0806,2037
3.0833,2065
3.0861,2095
3.0889,2104
3.0917,2108
3.0944,2092
3.0972,2072
3.1000,2060
3.1028,2037
3.1056,2022
3.1083,2004
3.1111,1994
3.1139,1982
3.1167,1958
3.1194,1951
3.1222,1915
3.1250,1909
3.1278,1904
3.1306,1876
3.1333,1865
3.1361,1856
3.1389,1847
3.1417,1852
3.1444,1857
3.1472,1878
3.1500,1883
3.1528,1888
3.1556,1887
3.1583,1888
3.1611,1882
3.1639,1889
3.1667,1878
3.1694,1871
3.1722,1877
3.1750,1887
3.1778,1905
3.1806,1917
3.1833,1915
3.1861,1892
3.1889,1888
3.1917,1899
3.1944,1904
3.1972,1913
3.2000,1907
3.2028,1899
3.2056,1894
3.2083,1891
3.2111,1896
3.2139,1904
3.2167,1932
3.2194,1951
3.2222,1970
3.2250,1989
3.2278,2014
3.2306,2038
3.2333,2050
3.2361,2077
3.2389,2119
3.2417,2182
3.2444,2258
3.2472,2330
3.2500,2345
3.2528,2331
3.2556,2250
3.2583,2153
3.2611,2017
3.2639,1905
3.2667,1842
3.2694,1836
3.2722,1872
3.2750,1898
3.2778,1941
3.2806,1965
3.2833,1965
3.2861,1960
3.2889,1949
3.2917,1928
3.2944,1912
3.2972,1905
3.3000,1918
3.3028,1913
3.3056,1909
3.3083,1898
3.3111,1885
3.3139,1880
3.3167,1890
3.3194,1891
3.3222,1898
3.3250,1894
3.3278,1894
3.3306,1892
3.3333,1903
3.3361,1914
3.3389,1910
3.3417,1910
3.3444,1904
3.3472,1904
3.3500,1909
3.3528,1911
3.3556,1918
3.3583,1911
3.3611,1905
3.3639,1901
3.3667,1907
3.3694,1926
3.3722,1918
3.3750,1913
3.3778,1908
3.3806,1906
3.3833,1893
3.3861,1904
3.3889,1905
3.3917,1918
3.3944,1918
3.3972,1915
3.4000,1900
3.4028,1894
3.4056,1876
3.4083,1871
3.4111,1873
3.4139,1891
3.4167,1905
3.4194,1911
3.4222,1921
3.4250,1926
3.4278,1930
3.4306,1926
3.4333,1919
3.4361,1914
3.4389,1922
3.4417,1938
3.4444,1937
3.4472,1965
3.4500,1973
3.4528,1979
3.4556,2037
3.4583,2040
3.4611,2041
3.4639,2024
3.4667,2006
3.4694,1971
3.4722,1937
3.4750,1924
3.4778,1905
3.4806,1902
3.4833,1893
3.4861,1881
3.4889,1877
3.4917,1857
3.4944,1844
3.4972,1838
3.5000,1831
3.5028,1827
3.5056,1828
3.5083,1829
3.5111,1833
3.5139,1835
3.5167,1837
3.5194,1834
3.5222,1826
3.5250,1820
3.5278,1823
3.5306,1830
3.5333,1826
3.5361,1839
3.5389,1839
3.5417,1839
3.5444,1835
3.5472,1827
3.5500,1819
3.5528,1812
3.5556,1817
3.5583,1833
3.5611,1838
3.5639,1844
3.5667,1857
3.5694,1849
3.5722,1849
3.5750,1842
3.5778,1859
3.5806,1854
3.5833,1845
3.5861,1837
3.5889,1840
3.5917,1838
3.5944,1837
3.5972,1829
3.6000,1822
3.6028,1826
3.6056,1828
3.6083,1827
3.6111,1818
3.6139,1816
3.6167,1813
3.6194,1821
3.6222,1842
3.6250,1856
3.6278,1855
3.6306,1859
3.6333,1852
3.6361,1853
3.6389,1848
3.6417,1833
3.6444,1831
3.6472,1838
3.6500,1846
3.6528,1868
3.6556,1879
3.6583,1884
3.6611,1882
3.6639,1877
3.6667,1882
3.6694,1880
3.6722,1869
3.6750,1861
3.6778,1861
3.6806,1855
3.6833,1850
3.6861,1841
3.6889,1841
3.6917,1835
3.6944,1844
3.6972,1856
3.7000,1866
3.7028,1883
3.7056,1905
3.7083,1924
3.7111,1924
3.7139,1922
3.7167,1946
3.7194,1979
3.7222,2015
3.7250,2045
3.7278,2059
3.7306,2044
3.7333,2022
3.7361,2016
3.7389,2026
3.7417,2063
3.7444,2129
3.7472,2171
3.7500,2188
3.7528,2183
3.7556,2150
3.7583,2126
3.7611,2109
3.7639,2103
3.7667,2095
3.7694,2088
3.7722,2059
3.7750,2023
3.7778,1998
3.7806,1971
3.7833,1954
3.7861,1944
3.7889,1933
3.7917,1923
3.7944,1916
3.7972,1895
3.8000,1901
3.8028,1902
3.8056,1898
3.8083,1900
3.8111,1897
3.8139,1897
3.8167,1893
3.8194,1893
3.8222,1881
3.8250,1875
3.8278,1882
3.8306,1897
3.8333,1896
3.8361,1891
3.8389,1893
3.8417,1875
3.8444,1877
3.8472,1884
3.8500,1889
3.8528,1889
3.8556,1893
3.8583,1898
3.8611,1918
3.8639,1924
3.8667,1930
3.8694,1926
3.8722,1931
3.8750,1935
3.8778,1950
3.8806,1953
3.8833,1954
3.8861,1971
3.8889,2006
3.8917,2029
3.8944,2044
3.8972,2054
3.9000,2071
3.9028,2111
3.9056,2172
3.9083,2265
3.9111,2355
3.9139,2406
3.9167,2383
3.9194,2318
3.9222,2218
3.9250,2081
3.9278,1947
3.9306,1876
3.9333,1842
3.9361,1857
3.9389,1884
3.9417,1930
3.9444,1952
3.9472,1971
3.9500,1975
3.9528,1979
3.9556,1964
3.9583,1956
3.9611,1955
3.9639,1946
3.9667,1944
3.9694,1946
3.9722,1945
3.9750,1946
3.9778,1958
3.9806,1963
3.9833,1969
3.9861,1969
3.9889,1968
3.9917,1967
3.9944,1962
3.9972,1976
4.0000,1983
4.0028,1976
4.0056,1972
4.0083,1962
4.0111,1948
4.0139,1939
4.0167,1943
4.0194,1954
4.0222,1984
4.0250,1996
4.0278,1993
4.0306,1980
4.0333,1964
4.0361,1954
4.0389,1950
4.0417,1938
4.0444,1936
4.0472,1938
4.0500,1941
4.0528,1956
4.0556,1967
4.0583,1953
4.0611,1950
4.0639,1946
4.0667,1950
4.0694,1968
4.0722,1980
4.0750,1999
4.0778,1994
4.0806,1975
4.0833,1968
4.0861,1954
4.0889,1942
4.0917,1943
4.0944,1941
4.0972,1935
4.1000,1951
4.1028,1955
4.1056,1967
4.1083,1978
4.1111,1981
4.1139,1984
4.1167,1974
4.1194,1998
4.1222,2050
4.1250,2049
4.1278,2046
4.1306,2038
4.1333,2025
4.1361,1998
4.1389,1980
4.1417,1933
4.1444,1896
4.1472,1867
4.1500,1852
4.1528,1836
4.1556,1839
4.1583,1843
4.1611,1842
4.1639,1857
4.1667,1872
4.1694,1882
4.1722,1883
4.1750,1882
4.1778,1873
4.1806,1886
4.1833,1880
4.1861,1880
4.1889,1879
4.1917,1881
4.1944,1879
4.1972,1880
4.2000,1886
4.2028,1903
4.2056,1902
4.2083,1899
4.2111,1908
4.2139,1920
4.2167,1935
4.2194,1943
4.2222,1936
4.2250,1932
4.2278,1929
4.2306,1938
4.2333,1965
4.2361,1985
4.2389,1988
4.2417,1995
4.2444,1989
4.2472,1991
4.2500,1978
4.2528,1976
4.2556,1975
4.2583,1989
4.2611,1995
4.2639,2016
4.2667,2023
4.2694,2020
4.2722,2031
4.2750,2045
4.2778,2063
4.2806,2071
4.2833,2070
4.2861,2067
4.2889,2067
4.2917,2071
4.2944,2062
4.2972,2078
4.3000,2080
4.3028,2100
4.3056,2102
4.3083,2097
4.3111,2090
4.3139,2080
4.3167,2077
4.3194,2081
4.3222,2081
4.3250,2081
4.3278,2091
4.3306,2101
4.3333,2095
4.3361,2097
4.3389,2098
4.3417,2097
4.3444,2116
4.3472,2149
4.3500,2185
4.3528,2232
4.3556,2255
4.3583,2257
4.3611,2260
4.3639,2257
4.3667,2257
4.3694,2261
4.3722,2284
4.3750,2316
4.3778,2343
4.3806,2356
4.3833,2378
4.3861,2370
4.3889,2363
4.3917,2350
4.3944,2331
4.3972,2323
4.4000,2318
4.4028,2287
4.4056,2277
4.4083,2256
4.4111,2233
4.4139,2223
4.4167,2213
4.4194,2206
4.4222,2198
4.4250,2190
4.4278,2170
4.4306,2136
4.4333,2120
4.4361,2117
4.4389,2138
4.4417,2159
4.4444,2169
4.4472,2153
4.4500,2143
4.4528,2138
4.4556,2140
4.4583,2135
4.4611,2127
4.4639,2124
4.4667,2120
4.4694,2127
4.4722,2128
4.4750,2113
4.4778,2121
4.4806,2118
4.4833,2105
4.4861,2115
4.4889,2129
4.4917,2148
4.4944,2169
4.4972,2175
4.5000,2159
4.5028,2143
4.5056,2136
4.5083,2122
4.5111,2116
4.5139,2115
4.5167,2136
4.5194,2169
4.5222,2201
4.5250,2227
4.5278,2246
4.5306,2274
4.5333,2314
4.5361,2370
4.5389,2451
4.5417,2538
4.5444,2598
4.5472,2589
4.5500,2530
4.5528,2436
4.5556,2309
4.5583,2156
4.5611,2032
4.5639,1942
4.5667,1916
4.5694,1965
4.5722,1997
4.5750,2041
4.5778,2076
4.5806,2099
4.5833,2100
4.5861,2087
4.5889,2065
4.5917,2059
4.5944,2055
4.5972,2064
4.6000,2065
4.6028,2054
4.6056,2045
4.6083,2044
4.6111,2048
4.6139,2045
4.6167,2053
4.6194,2045
4.6222,2044
4.6250,2036
4.6278,2020
4.6306,2010
4.6333,2007
4.6361,2000
4.6389,1999
4.6417,1993
4.6444,1996
4.6472,1994
4.6500,1999
4.6528,2008
4.6556,1996
4.6583,1990
4.6611,1994
4.6639,1992
4.6667,1988
4.6694,1992
4.6722,1986
4.6750,1996
4.6778,1983
4.6806,1977
4.6833,1978
4.6861,1978
4.6889,1999
4.6917,2003
4.6944,2016
4.6972,2019
4.7000,2020
4.7028,2023
4.7056,2029
4.7083,2022
4.7111,2013
4.7139,2014
4.7167,2015
4.7194,2019
4.7222,2023
4.7250,2033
4.7278,2036
4.7306,2047
4.7333,2045
4.7361,2060
4.7389,2067
4.7417,2075
4.7444,2067
4.7472,2066
4.7500,2073
4.7528,2182
4.7556,2178
4.7583,2151
4.7611,2122
4.7639,2098
4.7667,2084
4.7694,2082
4.7722,2067
4.7750,2048
4.7778,2036
4.7806,2025
4.7833,2016
4.7861,2016
4.7889,2011
4.7917,2002
4.7944,1988
4.7972,1987
4.8000,1990
4.8028,1993
4.8056,1993
4.8083,1985
4.8111,1980
4.8139,1973
4.8167,1978
4.8194,1982
4.8222,1975
4.8250,1968
4.8278,1967
4.8306,1974
4.8333,1966
4.8361,1962
4.8389,1968
4.8417,1978
4.8444,1972
4.8472,1963
4.8500,1960
4.8528,1957
4.8556,1952
4.8583,1963
4.8611,1963
4.8639,1968
4.8667,1976
4.8694,1977
4.8722,1977
4.8750,1976
4.8778,1966
4.8806,1957
4.8833,1954
4.8861,1959
4.8889,1959
4.8917,1960
4.8944,1957
4.8972,1953
4.9000,1954
4.9028,1955
4.9056,1961
4.9083,1962
4.9111,1956
4.9139,1947
4.9167,1935
4.9194,1937
4.9222,1928
4.9250,1938
4.9278,1952
4.9306,1953
4.9333,1950
4.9361,1948
4.9389,1949
4.9417,1940
4.9444,1939
4.9472,1927
4.9500,1931
4.9528,1921
4.9556,1925
4.9583,1927
4.9611,1932
4.9639,1931
4.9667,1927
4.9694,1914
4.9722,1907
4.9750,1895
4.9778,1900
4.9806,1895
4.9833,1907
4.9861,1915
4.9889,1920
4.9917,1916
4.9944,1916
4.9972,1909
5.0000,1895
5.0028,1905
5.0056,1904
5.0083,1905
5.0111,1918
5.0139,1929
5.0167,1954
5.0194,1978
5.0222,1999
5.0250,2037
5.0278,2046
5.0306,2054
5.0333,2063
5.0361,2062
5.0389,2065
5.0417,2080
5.0444,2108
5.0472,2141
5.0500,2170
5.0528,2174
5.0556,2176
5.0583,2167
5.0611,2155
5.0639,2145
5.0667,2152
5.0694,2149
5.0722,2129
5.0750,2102
5.0778,2089
5.0806,2060
5.0833,2018
5.0861,2000
5.0889,1983
5.0917,1959
5.0944,1933
5.0972,1925
5.1000,1916
5.1028,1912
5.1056,1914
5.1083,1912
5.1111,1899
5.1139,1903
5.1167,1900
5.1194,1904
5.1222,1901
5.1250,1906
5.1278,1909
5.1306,1906
5.1333,1900
5.1361,1903
5.1389,1914
5.1417,1914
5.1444,1922
5.1472,1917
5.1500,1928
5.1528,1927
5.1556,1933
5.1583,1946
5.1611,1945
5.1639,1944
5.1667,1928
5.1694,1920
5.1722,1922
5.1750,1910
5.1778,1915
5.1806,1921
5.1833,1928
5.1861,1942
5.1889,1976
5.1917,2015
5.1944,2041
5.1972,2087
5.2000,2126
5.2028,2175
5.2056,2245
5.2083,2339
5.2111,2439
5.2139,2483
5.2167,2478
5.2194,2421
5.2222,2342
5.2250,2241
5.2278,2115
5.2306,1952
5.2333,1795
5.2361,1722
5.2389,1719
5.2417,1769
5.2444,1824
5.2472,1880
5.2500,1937
5.2528,1967
5.2556,1984
5.2583,1977
5.2611,1973
5.2639,1957
5.2667,1950
5.2694,1944
5.2722,1939
5.2750,1941
5.2778,1949
5.2806,1953
5.2833,1958
5.2861,1966
5.2889,1959
5.2917,1954
5.2944,1950
5.2972,1947
5.3000,1953
5.3028,1959
5.3056,1967
5.3083,1971
5.3111,1980
5.3139,1974
5.3167,1980
5.3194,1983
5.3222,1981
5.3250,1980
5.3278,1970
5.3306,1982
5.3333,1991
5.3361,2006
5.3389,2025
5.3417,2027
5.3444,2038
5.3472,2045
5.3500,2042
5.3528,2045
5.3556,2049
5.3583,2048
5.3611,2042
5.3639,2039
5.3667,2036
5.3694,2040
5.3722,2052
5.3750,2056
5.3778,2057
5.3806,2077
5.3833,2085
5.3861,2086
5.3889,2088
5.3917,2095
5.3944,2105
5.3972,2102
5.4000,2108
5.4028,2110
5.4056,2114
5.4083,2126
5.4111,2142
5.4139,2149
5.4167,2168
5.4194,2171
5.4222,2192
5.4250,2274
5.4278,2262
5.4306,2237
5.4333,2223
5.4361,2223
5.4389,2212
5.4417,2196
5.4444,2174
5.4472,2154
5.4500,2141
5.4528,2129
5.4556,2133
5.4583,2140
5.4611,2139
5.4639,2131
5.4667,2116
5.4694,2096
5.4722,2100
5.4750,2095
5.4778,2105
5.4806,2095
5.4833,2097
5.4861,2091
5.4889,2098
5.4917,2098
5.4944,2099
5.4972,2108
5.5000,2109
5.5028,2122
5.5056,2140
5.5083,2146
5.5111,2157
5.5139,2158
5.5167,2162
5.5194,2168
5.5222,2167
5.5250,2167
5.5278,2174
5.5306,2179
5.5333,2195
5.5361,2201
5.5389,2199
5.5417,2200
5.5444,2209
5.5472,2205
5.5500,2203
5.5528,2191
5.5556,2183
5.5583,2174
5.5611,2162
5.5639,2159
5.5667,2162
5.5694,2163
5.5722,2174
5.5750,2170
5.5778,2180
5.5806,2178
5.5833,2177
5.5861,2166
5.5889,2167
5.5917,2168
5.5944,2163
5.5972,2168
5.6000,2169
5.6028,2160
5.6056,2168
5.6083,2171
5.6111,2156
5.6139,2165
5.6167,2171
5.6194,2171
5.6222,2167
5.6250,2149
5.6278,2138
5.6306,2136
5.6333,2135
5.6361,2121
5.6389,2123
5.6417,2121
5.6444,2117
5.6472,2120
5.6500,2107
5.6528,2099
5.6556,2108
5.6583,2106
5.6611,2104
5.6639,2090
5.6667,2084
5.6694,2075
5.6722,2080
5.6750,2081
5.6778,2072
5.6806,2061
5.6833,2050
5.6861,2029
5.6889,2034
5.6917,2034
5.6944,2039
5.6972,2040
5.7000,2029
5.7028,2033
5.7056,2024
5.7083,2023
5.7111,2027
5.7139,2011
5.7167,2002
5.7194,1986
5.7222,1986
5.7250,1981
5.7278,1967
5.7306,1955
5.7333,1926
5.7361,1919
5.7389,1913
5.7417,1911
5.7444,1919
5.7472,1925
5.7500,1931
5.7528,1943
5.7556,1954
5.7583,1954
5.7611,1963
5.7639,1959
5.7667,1963
5.7694,1967
5.7722,1976
5.7750,1968
5.7778,1959
5.7806,1955
5.7833,1941
5.7861,1925
5.7889,1933
5.7917,1942
5.7944,1957
5.7972,1969
5.8000,1992
5.8028,2017
5.8056,2046
5.8083,2084
5.8111,2098
5.8139,2102
5.8167,2091
5.8194,2075
5.8222,2074
5.8250,2094
5.8278,2122
5.8306,2145
5.8333,2145
5.8361,2144
5.8389,2148
5.8417,2156
5.8444,2129
5.8472,2105
5.8500,2084
5.8528,2062
5.8556,2048
5.8583,2040
5.8611,2014
5.8639,1992
5.8667,1967
5.8694,1940
5.8722,1919
5.8750,1904
5.8778,1895
5.8806,1873
5.8833,1854
5.8861,1847
5.8889,1837
5.8917,1818
5.8944,1807
5.8972,1799
5.9000,1795
5.9028,1792
5.9056,1793
5.9083,1793
5.9111,1787
5.9139,1779
5.9167,1779
5.9194,1780
5.9222,1771
5.9250,1752
5.9278,1737
5.9306,1730
5.9333,1739
5.9361,1752
5.9389,1762
5.9417,1772
5.9444,1764
5.9472,1766
5.9500,1774
5.9528,1765
5.9556,1778
5.9583,1793
5.9611,1804
5.9639,1808
5.9667,1825
5.9694,1864
5.9722,1900
5.9750,1938
5.9778,1957
5.9806,1988
5.9833,2036
5.9861,2118
5.9889,2215
5.9917,2332
5.9944,2395
5.9972,2423
6.0000,2380
6.0028,2303
6.0056,2214
6.0083,2096
6.0111,1917
6.0139,1730
6.0167,1627
6.0194,1618
6.0222,1649
6.0250,1713
6.0278,1767
6.0306,1832
6.0333,1875
6.0361,1885
6.0389,1872
6.0417,1851
6.0444,1831
6.0472,1827
6.0500,1815
6.0528,1810
6.0556,1807
6.0583,1812
6.0611,1807
6.0639,1803
6.0667,1804
6.0694,1807
6.0722,1817
6.0750,1816
6.0778,1815
6.0806,1813
6.0833,1821
6.0861,1815
6.0889,1816
6.0917,1815
6.0944,1833
6.0972,1848
6.1000,1856
6.1028,1851
6.1056,1851
6.1083,1841
6.1111,1852
6.1139,1856
6.1167,1868
6.1194,1883
6.1222,1893
6.1250,1887
6.1278,1896
6.1306,1896
6.1333,1898
6.1361,1912
6.1389,1920
6.1417,1921
6.1444,1921
6.1472,1918
6.1500,1927
6.1528,1931
6.1556,1936
6.1583,1947
6.1611,1959
6.1639,1967
6.1667,1976
6.1694,1981
6.1722,1994
6.1750,2002
6.1778,2009
6.1806,2027
6.1833,2033
6.1861,2040
6.1889,2040
6.1917,2059
6.1944,2075
6.1972,2086
6.2000,2098
6.2028,2111
6.2056,2122
6.2083,2245
6.2111,2241
6.2139,2230
6.2167,2221
6.2194,2214
6.2222,2202
6.2250,2186
6.2278,2155
6.2306,2139
6.2333,2124
6.2361,2115
6.2389,2109
6.2417,2105
6.2444,2094
6.2472,2090
6.2500,2083
6.2528,2078
6.2556,2066
6.2583,2081
6.2611,2086
6.2639,2099
6.2667,2087
6.2694,2093
6.2722,2098
6.2750,2092
6.2778,2099
6.2806,2093
6.2833,2099
6.2861,2098
6.2889,2091
6.2917,2098
6.2944,2107
6.2972,2114
6.3000,2121
6.3028,2114
6.3056,2105
6.3083,2109
6.3111,2103
6.3139,2119
6.3167,2128
6.3194,2129
6.3222,2135
6.3250,2127
6.3278,2133
6.3306,2128
6.3333,2119
6.3361,2120
6.3389,2111
6.3417,2111
6.3444,2114
6.3472,2123
6.3500,2121
6.3528,2133
6.3556,2142
6.3583,2152
6.3611,2165
6.3639,2154
6.3667,2145
6.3694,2140
6.3722,2130
6.3750,2129
6.3778,2134
6.3806,2125
6.3833,2121
6.3861,2110
6.3889,2107
6.3917,2112
6.3944,2124
6.3972,2138
6.4000,2142
6.4028,2141
6.4056,2135
6.4083,2129
6.4111,2125
6.4139,2132
6.4167,2144
6.4194,2141
6.4222,2148
6.4250,2133
6.4278,2135
6.4306,2149
6.4333,2151
6.4361,2150
6.4389,2142
6.4417,2128
6.4444,2115
6.4472,2104
6.4500,2109
6.4528,2108
6.4556,2109
6.4583,2110
6.4611,2122
6.4639,2146
6.4667,2136
6.4694,2130
6.4722,2124
6.4750,2126
6.4778,2108
6.4806,2125
6.4833,2139
6.4861,2137
6.4889,2137
6.4917,2125
6.4944,2115
6.4972,2104
6.5000,2091
6.5028,2092
6.5056,2095
6.5083,2106
6.5111,2101
6.5139,2110
6.5167,2116
6.5194,2098
6.5222,2097
6.5250,2090
6.5278,2076
6.5306,2079
6.5333,2071
6.5361,2079
6.5389,2074
6.5417,2081
6.5444,2079
6.5472,2075
6.5500,2078
6.5528,2078
6.5556,2069
6.5583,2065
6.5611,2069
6.5639,2072
6.5667,2057
6.5694,2044
6.5722,2032
6.5750,2029
6.5778,2037
6.5806,2041
6.5833,2040
6.5861,2035
6.5889,2036
6.5917,2044
6.5944,2050
6.5972,2056
6.6000,2082
6.6028,2102
6.6056,2125
6.6083,2151
6.6111,2160
6.6139,2155
6.6167,2132
6.6194,2127
6.6222,2114
6.6250,2131
6.6278,2167
6.6306,2194
6.6333,2192
6.6361,2199
6.6389,2200
6.6417,2197
6.6444,2189
6.6472,2181
6.6500,2175
6.6528,2167
6.6556,2151
6.6583,2127
6.6611,2102
6.6639,2068
6.6667,2020
6.6694,1979
6.6722,1964
6.6750,1937
6.6778,1929
6.6806,1924
6.6833,1911
6.6861,1904
6.6889,1895
6.6917,1895
6.6944,1891
6.6972,1902
6.7000,1890
6.7028,1899
6.7056,1902
6.7083,1913
6.7111,1917
6.7139,1929
6.7167,1937
6.7194,1940
6.7222,1931
6.7250,1929
6.7278,1921
6.7306,1918
6.7333,1922
6.7361,1928
6.7389,1929
6.7417,1926
6.7444,1930
6.7472,1928
6.7500,1933
6.7528,1938
6.7556,1925
6.7583,1915
6.7611,1908
6.7639,1914
6.7667,1935
6.7694,1981
6.7722,2010
6.7750,2033
6.7778,2052
6.7806,2104
6.7833,2162
6.7861,2257
6.7889,2361
6.7917,2420
6.7944,2436
6.7972,2406
6.8000,2336
6.8028,2213
6.8056,2062
6.8083,1908
6.8111,1764
6.8139,1693
6.8167,1699
6.8194,1758
6.8222,1807
6.8250,1860
6.8278,1906
6.8306,1937
6.8333,1947
6.8361,1943
6.8389,1928
6.8417,1918
6.8444,1915
6.8472,1918
6.8500,1921
6.8528,1929
6.8556,1936
6.8583,1944
6.8611,1943
6.8639,1951
6.8667,1953
6.8694,1957
6.8722,1954
6.8750,1964
6.8778,1978
6.8806,1988
6.8833,1982
6.8861,1972
6.8889,1973
6.8917,1981
6.8944,1977
6.8972,1988
6.9000,2005
6.9028,2007
6.9056,1996
6.9083,1995
6.9111,1992
6.9139,2010
6.9167,2023
6.9194,2036
6.9222,2040
6.9250,2040
6.9278,2051
6.9306,2044
6.9333,2037
6.9361,2020
6.9389,2026
6.9417,2023
6.9444,2019
6.9472,2031
6.9500,2028
6.9528,2035
6.9556,2062
6.9583,2063
6.9611,2049
6.9639,2069
6.9667,2057
6.9694,2070
6.9722,2064
6.9750,2069
6.9778,2094
6.9806,2101
6.9833,2097
6.9861,2098
6.9889,2104
6.9917,2106
6.9944,2113
6.9972,2117
7.0000,2112
7.0028,2192
7.0056,2193
7.0083,2190
7.0111,2166
7.0139,2137
7.0167,2115
7.0194,2103
7.0222,2090
7.0250,2059
7.0278,2025
7.0306,2008
7.0333,1986
7.0361,1974
7.0389,1970
7.0417,1964
7.0444,1964
7.0472,1965
7.0500,1969
7.0528,1957
7.0556,1938
7.0583,1918
7.0611,1915
7.0639,1907
7.0667,1921
7.0694,1918
7.0722,1909
7.0750,1912
7.0778,1915
7.0806,1917
7.0833,1919
7.0861,1920
7.0889,1929
7.0917,1932
7.0944,1925
7.0972,1929
7.1000,1932
7.1028,1931
7.1056,1926
7.1083,1930
7.1111,1936
7.1139,1942
7.1167,1954
7.1194,1953
7.1222,1958
7.1250,1951
7.1278,1946
7.1306,1947
7.1333,1946
7.1361,1961
7.1389,1961
7.1417,1970
7.1444,1966
7.1472,1965
7.1500,1955
7.1528,1952
7.1556,1953
7.1583,1954
7.1611,1960
7.1639,1946
7.1667,1939
7.1694,1941
7.1722,1942
7.1750,1956
7.1778,1966
7.1806,1965
7.1833,1978
7.1861,1975
7.1889,1969
7.1917,1972
7.1944,1984
7.1972,1983
7.2000,1993
7.2028,1994
7.2056,1994
7.2083,2011
7.2111,2017
7.2139,2014
7.2167,2008
7.2194,1998
7.2222,2002
7.2250,2017
7.2278,2020
7.2306,2032
7.2333,2047
7.2361,2040
7.2389,2042
7.2417,2039
7.2444,2022
7.2472,2012
7.2500,2002
7.2528,2017
7.2556,2022
7.2583,2032
7.2611,2043
7.2639,2035
7.2667,2035
7.2694,2027
7.2722,2028
7.2750,2031
7.2778,2031
7.2806,2036
7.2833,2046
7.2861,2044
7.2889,2053
7.2917,2069
7.2944,2073
7.2972,2070
7.3000,2077
7.3028,2086
7.3056,2095
7.3083,2124
7.3111,2131
7.3139,2138
7.3167,2146
7.3194,2139
7.3222,2126
7.3250,2119
7.3278,2126
7.3306,2144
7.3333,2182
7.3361,2204
7.3389,2229
7.3417,2217
7.3444,2211
7.3472,2193
7.3500,2167
7.3528,2161
7.3556,2150
7.3583,2134
7.3611,2109
7.3639,2077
7.3667,2054
7.3694,2026
7.3722,2001
7.3750,1957
7.3778,1923
7.3806,1887
7.3833,1873
7.3861,1874
7.3889,1877
7.3917,1885
7.3944,1874
7.3972,1856
7.4000,1835
7.4028,1836
7.4056,1842
7.4083,1857
7.4111,1862
7.4139,1870
7.4167,1878
7.4194,1879
7.4222,1877
7.4250,1867
7.4278,1869
7.4306,1862
7.4333,1859
7.4361,1872
7.4389,1881
7.4417,1894
7.4444,1903
7.4472,1904
7.4500,1902
7.4528,1902
7.4556,1896
7.4583,1904
7.4611,1901
7.4639,1912
7.4667,1912
7.4694,1923
7.4722,1942
7.4750,1976
7.4778,1990
7.4806,2007
7.4833,2029
7.4861,2044
7.4889,2074
7.4917,2142
7.4944,2239
7.4972,2337
7.5000,2376
7.5028,2358
7.5056,2292
7.5083,2214
7.5111,2075
7.5139,1948
7.5167,1862
7.5194,1838
7.5222,1841
7.5250,1876
7.5278,1918
7.5306,1944
7.5333,1970
7.5361,1964
7.5389,1970
7.5417,1967
7.5444,1949
7.5472,1932
7.5500,1917
7.5528,1917
7.5556,1923
7.5583,1928
7.5611,1937
7.5639,1948
7.5667,1954
7.5694,1958
7.5722,1962
7.5750,1961
7.5778,1967
7.5806,1969
7.5833,1965
7.5861,1971
7.5889,1969
7.5917,1963
7.5944,1944
7.5972,1941
7.6000,1941
7.6028,1948
7.6056,1963
7.6083,1987
7.6111,1987
7.6139,1993
7.6167,1987
7.6194,1982
7.6222,1967
7.6250,1955
7.6278,1953
7.6306,1951
7.6333,1965
7.6361,1977
7.6389,1983
7.6417,1970
7.6444,1971
7.6472,1970
7.6500,1965
7.6528,1958
7.6556,1954
7.6583,1959
7.6611,1978
7.6639,2002
7.6667,2027
7.6694,2032
7.6722,2027
7.6750,2027
7.6778,2032
7.6806,2048
7.6833,2051
7.6861,2043
7.6889,2029
7.6917,2033
7.6944,2043
7.6972,2047
7.7000,2065
7.7028,2068
7.7056,2070
7.7083,2119
7.7111,2124
7.7139,2098
7.7167,2082
7.7194,2080
7.7222,2061
7.7250,2044
7.7278,2029
7.7306,2022
7.7333,1997
7.7361,1964
7.7389,1956
7.7417,1935
7.7444,1925
7.7472,1917
7.7500,1909
7.7528,1911
7.7556,1902
7.7583,1909
7.7611,1891
7.7639,1884
7.7667,1865
7.7694,1856
7.7722,1840
7.7750,1840
7.7778,1846
7.7806,1839
7.7833,1847
7.7861,1847
7.7889,1847
7.7917,1857
7.7944,1858
7.7972,1864
7.8000,1871
7.8028,1858
7.8056,1854
7.8083,1858
7.8111,1867
7.8139,1883
7.8167,1883
7.8194,1884
7.8222,1887
7.8250,1880
7.8278,1890
7.8306,1883
7.8333,1886
7.8361,1884
7.8389,1881
7.8417,1873
7.8444,1855
7.8472,1872
7.8500,1897
7.8528,1899
7.8556,1900
7.8583,1896
7.8611,1875
7.8639,1853
7.8667,1858
7.8694,1865
7.8722,1870
7.8750,1893
7.8778,1883
7.8806,1884
7.8833,1896
7.8861,1902
7.8889,1895
7.8917,1888
7.8944,1872
7.8972,1865
7.9000,1861
7.9028,1855
7.9056,1858
7.9083,1859
7.9111,1857
7.9139,1853
7.9167,1855
7.9194,1864
7.9222,1870
7.9250,1858
7.9278,1856
7.9306,1860
7.9333,1861
7.9361,1866
7.9389,1863
7.9417,1862
7.9444,1868
7.9472,1889
7.9500,1904
7.9528,1927
7.9556,1940
7.9583,1950
7.9611,1946
7.9639,1946
7.9667,1941
7.9694,1952
7.9722,1973
7.9750,2014
7.9778,2042
7.9806,2066
7.9833,2075
7.9861,2080
7.9889,2056
7.9917,2057
7.9944,2036
7.9972,2014
8.0000,1995
8.0028,1962
8.0056,1938
8.0083,1917
8.0111,1897
8.0139,1877
8.0167,1870
8.0194,1856
8.0222,1852
8.0250,1836
8.0278,1835
8.0306,1836
8.0333,1831
8.0361,1826
8.0389,1823
8.0417,1814
8.0444,1802
8.0472,1803
8.0500,1797
8.0528,1806
8.0556,1802
8.0583,1805
8.0611,1810
8.0639,1809
8.0667,1810
8.0694,1793
8.0722,1773
8.0750,1758
8.0778,1766
8.0806,1792
8.0833,1812
8.0861,1824
8.0889,1821
8.0917,1809
8.0944,1788
8.0972,1773
8.1000,1759
8.1028,1758
8.1056,1773
8.1083,1796
8.1111,1817
8.1139,1845
8.1167,1880
8.1194,1914
8.1222,1936
8.1250,1951
8.1278,1966
8.1306,1979
8.1333,2019
8.1361,2104
8.1389,2198
8.1417,2264
8.1444,2300
8.1472,2282
8.1500,2233
8.1528,2122
8.1556,1977
8.1583,1853
8.1611,1783
8.1639,1783
8.1667,1817
8.1694,1867
8.1722,1897
8.1750,1907
8.1778,1918
8.1806,1934
8.1833,1928
8.1861,1913
8.1889,1905
8.1917,1898
8.1944,1896
8.1972,1879
8.2000,1874
8.2028,1878
8.2056,1885
8.2083,1899
8.2111,1925
8.2139,1937
8.2167,1945
8.2194,1950
8.2222,1953
8.2250,1936
8.2278,1934
8.2306,1930
8.2333,1950
8.2361,1966
8.2389,1977
8.2417,1966
8.2444,1964
8.2472,1954
8.2500,1974
8.2528,1985
8.2556,2001
8.2583,2005
8.2611,2007
8.2639,1999
8.2667,2005
8.2694,2021
8.2722,2031
8.2750,2031
8.2778,2034
8.2806,2038
8.2833,2056
8.2861,2070
8.2889,2089
8.2917,2086
8.2944,2082
8.2972,2076
8.3000,2082
8.3028,2080
8.3056,2080
8.3083,2100
8.3111,2102
8.3139,2108
8.3167,2117
8.3194,2131
8.3222,2141
8.3250,2158
8.3278,2168
8.3306,2185
8.3333,2196
8.3361,2197
8.3389,2209
8.3417,2212
8.3444,2221
8.3472,2217
8.3500,2234
8.3528,2345
8.3556,2339
8.3583,2336
8.3611,2310
8.3639,2297
8.3667,2272
8.3694,2257
8.3722,2258
8.3750,2261
8.3778,2260
8.3806,2262
8.3833,2274
8.3861,2267
8.3889,2264
8.3917,2269
8.3944,2253
8.3972,2233
8.4000,2236
8.4028,2241
8.4056,2246
8.4083,2254
8.4111,2263
8.4139,2271
8.4167,2288
8.4194,2290
8.4222,2286
8.4250,2280
8.4278,2265
8.4306,2253
8.4333,2245
8.4361,2243
8.4389,2263
8.4417,2266
8.4444,2267
8.4472,2270
8.4500,2262
8.4528,2268
8.4556,2265
8.4583,2280
8.4611,2285
8.4639,2282
8.4667,2272
8.4694,2267
8.4722,2253
8.4750,2240
8.4778,2239
8.4806,2243
8.4833,2252
8.4861,2255
8.4889,2246
8.4917,2238
8.4944,2244
8.4972,2244
8.5000,2240
8.5028,2240
8.5056,2242
8.5083,2239
8.5111,2226
8.5139,2219
8.5167,2208
8.5194,2203
8.5222,2212
8.5250,2212
8.5278,2224
8.5306,2219
8.5333,2210
8.5361,2188
8.5389,2176
8.5417,2168
8.5444,2161
8.5472,2164
8.5500,2161
8.5528,2157
8.5556,2153
8.5583,2150
8.5611,2144
8.5639,2138
8.5667,2152
8.5694,2167
8.5722,2182
8.5750,2217
8.5778,2222
8.5806,2219
8.5833,2229
8.5861,2202
8.5889,2198
8.5917,2218
8.5944,2253
8.5972,2294
8.6000,2312
8.6028,2308
8.6056,2298
8.6083,2284
8.6111,2259
8.6139,2230
8.6167,2215
8.6194,2178
8.6222,2161
8.6250,2131
8.6278,2115
8.6306,2093
8.6333,2064
8.6361,2039
8.6389,2018
8.6417,1988
8.6444,1957
8.6472,1936
8.6500,1910
8.6528,1902
8.6556,1899
8.6583,1901
8.6611,1900
8.6639,1901
8.6667,1898
8.6694,1887
8.6722,1879
8.6750,1857
8.6778,1845
8.6806,1840
8.6833,1846
8.6861,1860
8.6889,1856
8.6917,1864
8.6944,1868
8.6972,1870
8.7000,1860
8.7028,1858
8.7056,1850
8.7083,1841
8.7111,1842
8.7139,1840
8.7167,1833
8.7194,1835
8.7222,1833
8.7250,1842
8.7278,1836
8.7306,1847
8.7333,1854
8.7361,1858
8.7389,1885
8.7417,1919
8.7444,1940
8.7472,1962
8.7500,1987
8.7528,2038
8.7556,2089
8.7583,2183
8.7611,2282
8.7639,2331
8.7667,2328
8.7694,2278
8.7722,2193
8.7750,2068
8.7778,1937
8.7806,1800
8.7833,1689
8.7861,1649
8.7889,1676
8.7917,1728
8.7944,1777
8.7972,1820
8.8000,1854
8.8028,1869
8.8056,1864
8.8083,1852
8.8111,1832
8.8139,1816
8.8167,1808
8.8194,1809
8.8222,1819
8.8250,1820
8.8278,1830
8.8306,1828
8.8333,1821
8.8361,1805
8.8389,1797
8.8417,1795
8.8444,1805
8.8472,1816
8.8500,1819
8.8528,1833
8.8556,1832
8.8583,1823
8.8611,1815
8.8639,1817
8.8667,1822
8.8694,1830
8.8722,1822
8.8750,1818
8.8778,1818
8.8806,1816
8.8833,1823
8.8861,1842
8.8889,1852
8.8917,1868
8.8944,1887
8.8972,1883
8.9000,1877
8.9028,1877
8.9056,1875
8.9083,1881
8.9111,1884
8.9139,1906
8.9167,1922
8.9194,1928
8.9222,1930
8.9250,1933
8.9278,1927
8.9306,1924
8.9333,1921
8.9361,1920
8.9389,1936
8.9417,1938
8.9444,1944
8.9472,1940
8.9500,1939
8.9528,1948
8.9556,1949
8.9583,1964
8.9611,1980
8.9639,1988
8.9667,1995
8.9694,1991
8.9722,2002
8.9750,2027
8.9778,2021
8.9806,2005
8.9833,1986
8.9861,1972
8.9889,1956
8.9917,1944
8.9944,1918
8.9972,1901
9.0000,1864
9.0028,1850
9.0056,1845
9.0083,1847
9.0111,1851
9.0139,1856
9.0167,1849
9.0194,1847
9.0222,1854
9.0250,1857
9.0278,1856
9.0306,1855
9.0333,1856
9.0361,1860
9.0389,1851
9.0417,1848
9.0444,1849
9.0472,1850
9.0500,1853
9.0528,1838
9.0556,1830
9.0583,1835
9.0611,1833
9.0639,1822
9.0667,1824
9.0694,1834
9.0722,1836
9.0750,1843
9.0778,1844
9.0806,1846
9.0833,1851
9.0861,1847
9.0889,1839
9.0917,1837
9.0944,1827
9.0972,1837
9.1000,1842
9.1028,1858
9.1056,1852
9.1083,1844
9.1111,1841
9.1139,1835
9.1167,1838
9.1194,1830
9.1222,1839
9.1250,1844
9.1278,1844
9.1306,1847
9.1333,1844
9.1361,1845
9.1389,1847
9.1417,1844
9.1444,1848
9.1472,1840
9.1500,1823
9.1528,1822
9.1556,1817
9.1583,1816
9.1611,1824
9.1639,1826
9.1667,1826
9.1694,1824
9.1722,1821
9.1750,1825
9.1778,1826
9.1806,1817
9.1833,1827
9.1861,1813
9.1889,1805
9.1917,1811
9.1944,1809
9.1972,1813
9.2000,1823
9.2028,1828
9.2056,1827
9.2083,1832
9.2111,1836
9.2139,1847
9.2167,1852
9.2194,1876
9.2222,1897
9.2250,1929
9.2278,1959
9.2306,1975
9.2333,1978
9.2361,1971
9.2389,1967
9.2417,1960
9.2444,1972
9.2472,2002
9.2500,2044
9.2528,2086
9.2556,2100
9.2583,2119
9.2611,2123
9.2639,2118
9.2667,2112
9.2694,2102
9.2722,2091
9.2750,2070
9.2778,2049
9.2806,2033
9.2833,2011
9.2861,1997
9.2889,1980
9.2917,1957
9.2944,1945
9.2972,1924
9.3000,1909
9.3028,1891
9.3056,1887
9.3083,1885
9.3111,1893
9.3139,1879
9.3167,1880
9.3194,1881
9.3222,1881
9.3250,1889
9.3278,1895
9.3306,1897
9.3333,1895
9.3361,1880
9.3389,1895
9.3417,1900
9.3444,1909
9.3472,1915
9.3500,1911
9.3528,1913
9.3556,1913
9.3583,1914
9.3611,1921
9.3639,1922
9.3667,1935
9.3694,1936
9.3722,1936
9.3750,1940
9.3778,1961
9.3806,1968
9.3833,1976
9.3861,1983
9.3889,1982
9.3917,2007
9.3944,2048
9.3972,2109
9.4000,2142
9.4028,2200
9.4056,2248
9.4083,2290
9.4111,2362
9.4139,2475
9.4167,2593
9.4194,2648
9.4222,2643
9.4250,2572
9.4278,2476
9.4306,2379
9.4333,2251
9.4361,2078
9.4389,1919
9.4417,1872
9.4444,1911
9.4472,1975
9.4500,2030
9.4528,2069
9.4556,2103
9.4583,2126
9.4611,2131
9.4639,2113
9.4667,2106
9.4694,2097
9.4722,2095
9.4750,2097
9.4778,2105
9.4806,2115
9.4833,2116
9.4861,2112
9.4889,2120
9.4917,2112
9.4944,2128
9.4972,2124
9.5000,2133
9.5028,2136
9.5056,2149
9.5083,2143
9.5111,2152
9.5139,2148
9.5167,2148
9.5194,2144
9.5222,2154
9.5250,2155
9.5278,2150
9.5306,2158
9.5333,2143
9.5361,2154
9.5389,2174
9.5417,2183
9.5444,2185
9.5472,2188
9.5500,2189
9.5528,2193
9.5556,2185
9.5583,2166
9.5611,2177
9.5639,2178
9.5667,2160
9.5694,2160
9.5722,2172
9.5750,2171
9.5778,2172
9.5806,2177
9.5833,2183
9.5861,2188
9.5889,2198
9.5917,2197
9.5944,2204
9.5972,2208
9.6000,2221
9.6028,2220
9.6056,2237
9.6083,2245
9.6111,2242
9.6139,2243
9.6167,2245
9.6194,2258
9.6222,2261
9.6250,2271
9.6278,2275
9.6306,2225
9.6333,2226
9.6361,2199
9.6389,2174
9.6417,2156
9.6444,2143
9.6472,2115
9.6500,2094
9.6528,2086
9.6556,2069
9.6583,2064
9.6611,2052
9.6639,2050
9.6667,2035
9.6694,2034
9.6722,2034
9.6750,2021
9.6778,2023
9.6806,2015
9.6833,1998
9.6861,1985
9.6889,1975
9.6917,1975
9.6944,1964
9.6972,1966
9.7000,1975
9.7028,1972
9.7056,1981
9.7083,1975
9.7111,1978
9.7139,1982
9.7167,1991
9.7194,2000
9.7222,2009
9.7250,2009
9.7278,2008
9.7306,2008
9.7333,2011
9.7361,2009
9.7389,2004
9.7417,1997
9.7444,2009
9.7472,1999
9.7500,2002
9.7528,1996
9.7556,2014
9.7583,2022
9.7611,2031
9.7639,2039
9.7667,2030
9.7694,2031
9.7722,2023
9.7750,2019
9.7778,2009
9.7806,2018
9.7833,2032
9.7861,2034
9.7889,2040
9.7917,2032
9.7944,2028
9.7972,2032
9.8000,2026
9.8028,2023
9.8056,2023
9.8083,2022
9.8111,2033
9.8139,2034
9.8167,2044
9.8194,2035
9.8222,2043
9.8250,2053
9.8278,2055
9.8306,2066
9.8333,2058
9.8361,2064
9.8389,2067
9.8417,2055
9.8444,2043
9.8472,2050
9.8500,2052
9.8528,2054
9.8556,2067
9.8583,2067
9.8611,2062
9.8639,2043
9.8667,2044
9.8694,2051
9.8722,2052
9.8750,2060
9.8778,2067
9.8806,2077
9.8833,2090
9.8861,2091
9.8889,2085
9.8917,2083
9.8944,2083
9.8972,2079
9.9000,2084
9.9028,2080
9.9056,2084
9.9083,2073
9.9111,2073
9.9139,2068
9.9167,2074
9.9194,2083
9.9222,2074
9.9250,2071
9.9278,2075
9.9306,2079
9.9333,2082
9.9361,2077
9.9389,2090
9.9417,2079
9.9444,2090
9.9472,2084
9.9500,2078
9.9528,2069
9.9556,2062
9.9583,2068
9.9611,2070
9.9639,2077
9.9667,2087
9.9694,2084
9.9722,2103
9.9750,2086
9.9778,2083
9.9806,2069
9.9833,2063
9.9861,2065
9.9889,2067
9.9917,2084
9.9944,2102
9.9972,2150
10.0000,2183
10.0028,2209
10.0056,2214
10.0083,2201
10.0111,2182
10.0139,2164
10.0167,2155
10.0194,2179
10.0222,2214
10.0250,2242
10.0278,2261
10.0306,2268
10.0333,2258
10.0361,2245
10.0389,2231
10.0417,2213
10.0444,2200
10.0472,2175
10.0500,2152
10.0528,2127
10.0556,2113
10.0583,2091
10.0611,2072
10.0639,2043
10.0667,2023
10.0694,2006
10.0722,1988
10.0750,1964
10.0778,1955
10.0806,1956
10.0833,1952
10.0861,1963
10.0889,1971
10.0917,1980
10.0944,1966
10.0972,1967
10.1000,1960
10.1028,1961
10.1056,1959
10.1083,1963
10.1111,1965
10.1139,1969
10.1167,1955
10.1194,1943
10.1222,1938
10.1250,1941
10.1278,1954
10.1306,1974
10.1333,1979
10.1361,1991
10.1389,1989
10.1417,1988
10.1444,1981
10.1472,1976
10.1500,1969
10.1528,1975
10.1556,1983
10.1583,1985
10.1611,2008
10.1639,2041
10.1667,2078
10.1694,2101
10.1722,2130
10.1750,2171
10.1778,2224
10.1806,2302
10.1833,2390
10.1861,2487
10.1889,2536
10.1917,2545
10.1944,2487
10.1972,2386
10.2000,2283
10.2028,2143
10.2056,1956
10.2083,1798
10.2111,1744
10.2139,1771
10.2167,1822
10.2194,1885
10.2222,1933
10.2250,1968
10.2278,1970
10.2306,1960
10.2333,1940
10.2361,1919
10.2389,1912
10.2417,1915
10.2444,1912
10.2472,1917
10.2500,1913
10.2528,1926
10.2556,1925
10.2583,1927
10.2611,1934
10.2639,1933
10.2667,1938
10.2694,1929
10.2722,1934
10.2750,1929
10.2778,1922
10.2806,1922
10.2833,1914
10.2861,1917
10.2889,1923
10.2917,1934
10.2944,1946
10.2972,1947
10.3000,1944
10.3028,1940
10.3056,1944
10.3083,1934
10.3111,1947
10.3139,1952
10.3167,1952
10.3194,1959
10.3222,1938
10.3250,1942
10.3278,1947
10.3306,1952
10.3333,1962
10.3361,1948
10.3389,1937
10.3417,1938
10.3444,1945
10.3472,1956
10.3500,1960
10.3528,1955
10.3556,1943
10.3583,1953
10.3611,1948
10.3639,1950
10.3667,1957
10.3694,1968
10.3722,1971
10.3750,1979
10.3778,1990
10.3806,1994
10.3833,1995
10.3861,1983
10.3889,1984
10.3917,1994
10.3944,2019
10.3972,2015
10.4000,2114
10.4028,2119
10.4056,2100
10.4083,2083
10.4111,2067
10.4139,2051
10.4167,2032
10.4194,2003
10.4222,1980
10.4250,1968
10.4278,1969
10.4306,1968
10.4333,1962
10.4361,1971
10.4389,1958
10.4417,1949
10.4444,1941
10.4472,1929
10.4500,1928
10.4528,1919
10.4556,1911
10.4583,1909
10.4611,1894
10.4639,1892
10.4667,1895
10.4694,1901
10.4722,1900
10.4750,1901
10.4778,1905
10.4806,1900
10.4833,1901
10.4861,1915
10.4889,1935
10.4917,1942
10.4944,1946
10.4972,1953
10.5000,1952
10.5028,1950
10.5056,1944
10.5083,1935
10.5111,1933
10.5139,1929
10.5167,1916
10.5194,1925
10.5222,1927
10.5250,1948
10.5278,1952
10.5306,1952
10.5333,1941
10.5361,1950
10.5389,1954
10.5417,1961
10.5444,1976
10.5472,1986
10.5500,1996
10.5528,1986
10.5556,1967
10.5583,1964
10.5611,1966
10.5639,1968
10.5667,1980
10.5694,1990
10.5722,1995
10.5750,2001
10.5778,1993
10.5806,2000
10.5833,2000
10.5861,1994
10.5889,2005
10.5917,2016
10.5944,2017
10.5972,2003
10.6000,2005
10.6028,2005
10.6056,2004
10.6083,2022
10.6111,2026
10.6139,2025
10.6167,2022
10.6194,2025
10.6222,2025
10.6250,2018
10.6278,2021
10.6306,2019
10.6333,2020
10.6361,2027
10.6389,2021
10.6417,2023
10.6444,2013
10.6472,2016
10.6500,2019
10.6528,2024
10.6556,2022
10.6583,2016
10.6611,2021
10.6639,2026
10.6667,2031
10.6694,2032
10.6722,2041
10.6750,2039
10.6778,2032
10.6806,2021
10.6833,2012
10.6861,2013
10.6889,2011
10.6917,2009
10.6944,2007
10.6972,2010
10.7000,1988
10.7028,1990
10.7056,1991
10.7083,1987
10.7111,2000
10.7139,2002
10.7167,2000
10.7194,2000
10.7222,1996
10.7250,1988
10.7278,1982
10.7306,1986
10.7333,1982
10.7361,1972
10.7389,1959
10.7417,1952
10.7444,1950
10.7472,1946
10.7500,1954
10.7528,1954
10.7556,1950
10.7583,1970
10.7611,1974
10.7639,1976
10.7667,1976
10.7694,1973
10.7722,1968
10.7750,1956
10.7778,1954
10.7806,1945
10.7833,1935
10.7861,1943
10.7889,1946
10.7917,1955
10.7944,1968
10.7972,1986
10.8000,1998
10.8028,2028
10.8056,2045
10.8083,2062
10.8111,2065
10.8139,2060
10.8167,2048
10.8194,2034
10.8222,2030
10.8250,2030
10.8278,2051
10.8306,2066
10.8333,2084
10.8361,2107
10.8389,2118
10.8417,2107
10.8444,2088
10.8472,2073
10.8500,2066
10.8528,2044
10.8556,2047
10.8583,2025
10.8611,2004
10.8639,1969
10.8667,1947
10.8694,1903
10.8722,1887
10.8750,1861
10.8778,1846
10.8806,1849
10.8833,1846
10.8861,1848
10.8889,1832
10.8917,1829
10.8944,1822
10.8972,1816
10.9000,1820
10.9028,1825
10.9056,1831
10.9083,1837
10.9111,1848
10.9139,1839
10.9167,1827
10.9194,1829
10.9222,1834
10.9250,1840
10.9278,1842
10.9306,1845
10.9333,1844
10.9361,1845
10.9389,1852
10.9417,1843
10.9444,1847
10.9472,1843
10.9500,1833
10.9528,1843
10.9556,1861
10.9583,1861
10.9611,1869
10.9639,1864
10.9667,1878
10.9694,1902
10.9722,1929
10.9750,1948
10.9778,1970
10.9806,1992
10.9833,2039
10.9861,2113
10.9889,2204
10.9917,2309
10.9944,2372
10.9972,2372
11.0000,2321
11.0028,2226
11.0056,2099
11.0083,1952
11.0111,1793
11.0139,1671
11.0167,1623
11.0194,1653
11.0222,1711
11.0250,1769
11.0278,1811
11.0306,1858
11.0333,1885
11.0361,1885
11.0389,1879
11.0417,1862
11.0444,1840
11.0472,1833
11.0500,1837
11.0528,1835
11.0556,1850
11.0583,1849
11.0611,1857
11.0639,1857
11.0667,1856
11.0694,1862
11.0722,1856
11.0750,1851
11.0778,1849
11.0806,1850
11.0833,1853
11.0861,1858
11.0889,1870
11.0917,1877
11.0944,1865
11.0972,1872
11.1000,1860
11.1028,1868
11.1056,1871
11.1083,1877
11.1111,1860
11.1139,1845
11.1167,1836
11.1194,1833
11.1222,1835
11.1250,1843
11.1278,1851
11.1306,1862
11.1333,1874
11.1361,1893
11.1389,1898
11.1417,1896
11.1444,1895
11.1472,1894
11.1500,1883
11.1528,1881
11.1556,1892
11.1583,1910
11.1611,1940
11.1639,1939
11.1667,1943
11.1694,1926
11.1722,1912
11.1750,1900
11.1778,1905
11.1806,1927
11.1833,1947
11.1861,1965
11.1889,1963
11.1917,1973
11.1944,1991
11.1972,1992
11.2000,2004
11.2028,2017
11.2056,2105
11.2083,2100
11.2111,2071
11.2139,2052
11.2167,2053
11.2194,2060
11.2222,2032
11.2250,2027
11.2278,2005
11.2306,1984
11.2333,1972
11.2361,1964
11.2389,1956
11.2417,1936
11.2444,1934
11.2472,1927
11.2500,1922
11.2528,1920
11.2556,1926
11.2583,1933
11.2611,1928
11.2639,1919
11.2667,1913
11.2694,1912
11.2722,1902
11.2750,1907
11.2778,1907
11.2806,1911
11.2833,1926
11.2861,1922
11.2889,1927
11.2917,1935
11.2944,1938
11.2972,1944
11.3000,1941
11.3028,1939
11.3056,1940
11.3083,1934
11.3111,1936
11.3139,1934
11.3167,1936
11.3194,1937
11.3222,1953
11.3250,1955
11.3278,1947
11.3306,1944
11.3333,1933
11.3361,1943
11.3389,1941
11.3417,1953
11.3444,1967
11.3472,1961
11.3500,1970
11.3528,1975
11.3556,1980
11.3583,1980
11.3611,1972
11.3639,1959
11.3667,1963
11.3694,1951
11.3722,1947
11.3750,1941
11.3778,1940
11.3806,1938
11.3833,1942
11.3861,1951
11.3889,1953
11.3917,1958
11.3944,1951
11.3972,1955
11.4000,1938
11.4028,1924
11.4056,1914
11.4083,1914
11.4111,1914
11.4139,1919
11.4167,1916
11.4194,1910
11.4222,1904
11.4250,1895
11.4278,1889
11.4306,1887
11.4333,1896
11.4361,1909
11.4389,1921
11.4417,1918
11.4444,1918
11.4472,1924
11.4500,1925
11.4528,1939
11.4556,1934
11.4583,1931
11.4611,1915
11.4639,1905
11.4667,1908
11.4694,1905
11.4722,1904
11.4750,1911
11.4778,1909
11.4806,1927
11.4833,1927
11.4861,1923
11.4889,1931
11.4917,1937
11.4944,1925
11.4972,1922
11.5000,1917
11.5028,1906
11.5056,1913
11.5083,1910
11.5111,1920
11.5139,1920
11.5167,1927
11.5194,1930
11.5222,1935
11.5250,1927
11.5278,1941
11.5306,1939
11.5333,1948
11.5361,1946
11.5389,1963
11.5417,1983
11.5444,2007
11.5472,2015
11.5500,2014
11.5528,2025
11.5556,2034
11.5583,2032
11.5611,2034
11.5639,2062
11.5667,2091
11.5694,2110
11.5722,2123
11.5750,2129
11.5778,2112
11.5806,2093
11.5833,2072
11.5861,2053
11.5889,2046
11.5917,2023
11.5944,2012
11.5972,1999
11.6000,1976
11.6028,1953
11.6056,1919
11.6083,1884
11.6111,1864
11.6139,1852
11.6167,1860
11.6194,1868
11.6222,1853
11.6250,1849
11.6278,1851
11.6306,1841
11.6333,1841
11.6361,1825
11.6389,1834
11.6417,1842
11.6444,1841
11.6472,1834
11.6500,1835
11.6528,1829
11.6556,1837
11.6583,1840
11.6611,1842
11.6639,1848
11.6667,1856
11.6694,1852
11.6722,1847
11.6750,1859
11.6778,1868
11.6806,1874
11.6833,1881
11.6861,1874
11.6889,1875
11.6917,1874
11.6944,1884
11.6972,1898
11.7000,1891
11.7028,1895
11.7056,1916
11.7083,1938
11.7111,1967
11.7139,1977
11.7167,1994
11.7194,2016
11.7222,2074
11.7250,2156
11.7278,2250
11.7306,2307
11.7333,2310
11.7361,2253
11.7389,2171
11.7417,2029
11.7444,1883
11.7472,1768
11.7500,1736
11.7528,1748
11.7556,1787
11.7583,1840
11.7611,1872
11.7639,1888
11.7667,1887
11.7694,1888
11.7722,1879
11.7750,1858
11.7778,1850
11.7806,1847
11.7833,1857
11.7861,1846
11.7889,1851
11.7917,1837
11.7944,1832
11.7972,1829
11.8000,1834
11.8028,1842
11.8056,1841
11.8083,1842
11.8111,1833
11.8139,1827
11.8167,1809
11.8194,1816
11.8222,1829
11.8250,1839
11.8278,1858
11.8306,1862
11.8333,1863
11.8361,1863
11.8389,1860
11.8417,1860
11.8444,1858
11.8472,1855
11.8500,1848
11.8528,1852
11.8556,1865
11.8583,1896
11.8611,1895
11.8639,1897
11.8667,1888
11.8694,1879
11.8722,1896
11.8750,1895
11.8778,1912
11.8806,1928
11.8833,1935
11.8861,1959
11.8889,1972
11.8917,1982
11.8944,1980
11.8972,1971
11.9000,1962
11.9028,1952
11.9056,1948
11.9083,1976
11.9111,1991
11.9139,2004
11.9167,1997
11.9194,1983
11.9222,1984
11.9250,2002
11.9278,2007
11.9306,2012
11.9333,2019
11.9361,2033
11.9389,2140
11.9417,2140
11.9444,2108
11.9472,2082
11.9500,2048
11.9528,2039
11.9556,2021
11.9583,2000
11.9611,2004
11.9639,2008
11.9667,1998
11.9694,1971
11.9722,1947
11.9750,1931
11.9778,1914
11.9806,1913
11.9833,1910
11.9861,1906
11.9889,1892
11.9917,1889
11.9944,1894
11.9972,1889
12.0000,1892
12.0028,1881
12.0056,1889
12.0083,1884
12.0111,1884
12.0139,1873
12.0167,1881
12.0194,1887
12.0222,1895
12.0250,1890
12.0278,1892
12.0306,1891
12.0333,1887
12.0361,1890
12.0389,1872
12.0417,1870
12.0444,1882
12.0472,1902
12.0500,1917
12.0528,1932
12.0556,1932
12.0583,1913
12.0611,1890
12.0639,1886
12.0667,1880
12.0694,1880
12.0722,1890
12.0750,1908
12.0778,1910
12.0806,1911
12.0833,1906
12.0861,1894
12.0889,1890
12.0917,1888
12.0944,1881
12.0972,1877
12.1000,1871
12.1028,1858
12.1056,1873
12.1083,1877
12.1111,1885
12.1139,1887
12.1167,1877
12.1194,1865
12.1222,1842
12.1250,1834
12.1278,1839
12.1306,1851
12.1333,1870
12.1361,1877
12.1389,1882
12.1417,1876
12.1444,1879
12.1472,1881
12.1500,1874
12.1528,1870
12.1556,1878
12.1583,1874
12.1611,1871
12.1639,1869
12.1667,1873
12.1694,1861
12.1722,1856
12.1750,1864
12.1778,1878
12.1806,1866
12.1833,1866
12.1861,1873
12.1889,1872
12.1917,1873
12.1944,1862
12.1972,1862
12.2000,1867
12.2028,1891
12.2056,1913
12.2083,1933
12.2111,1941
12.2139,1944
12.2167,1951
12.2194,1933
12.2222,1930
12.2250,1946
12.2278,1979
12.2306,2013
12.2333,2034
12.2361,2041
12.2389,2045
12.2417,2032
12.2444,2022
12.2472,2012
12.2500,2002
12.2528,1994
12.2556,1973
12.2583,1954
12.2611,1932
12.2639,1913
12.2667,1890
12.2694,1855
12.2722,1815
12.2750,1775
12.2778,1755
12.2806,1729
12.2833,1731
12.2861,1719
12.2889,1710
12.2917,1706
12.2944,1692
12.2972,1696
12.3000,1706
12.3028,1716
12.3056,1718
12.3083,1723
12.3111,1722
12.3139,1707
12.3167,1704
12.3194,1691
12.3222,1699
12.3250,1701
12.3278,1689
12.3306,1691
12.3333,1682
12.3361,1694
12.3389,1713
12.3417,1713
12.3444,1709
12.3472,1719
12.3500,1717
12.3528,1723
12.3556,1737
12.3583,1714
12.3611,1712
12.3639,1710
12.3667,1715
12.3694,1734
12.3722,1778
12.3750,1806
12.3778,1830
12.3806,1843
12.3833,1861
12.3861,1883
12.3889,1941
12.3917,2018
12.3944,2121
12.3972,2180
12.4000,2185
12.4028,2131
12.4056,2052
12.4083,1938
12.4111,1810
12.4139,1701
12.4167,1642
12.4194,1656
12.4222,1698
12.4250,1746
12.4278,1765
12.4306,1769
12.4333,1781
12.4361,1778
12.4389,1770
12.4417,1758
12.4444,1753
12.4472,1757
12.4500,1757
12.4528,1764
12.4556,1754
12.4583,1750
12.4611,1756
12.4639,1765
12.4667,1770
12.4694,1757
12.4722,1749
12.4750,1736
12.4778,1737
12.4806,1729
12.4833,1739
12.4861,1754
12.4889,1763
12.4917,1771
12.4944,1768
12.4972,1767
12.5000,1755
12.5028,1755
12.5056,1754
12.5083,1746
12.5111,1750
12.5139,1761
12.5167,1771
12.5194,1779
12.5222,1801
12.5250,1806
12.5278,1796
12.5306,1783
12.5333,1767
12.5361,1776
12.5389,1774
12.5417,1776
12.5444,1777
12.5472,1776
12.5500,1774
12.5528,1779
12.5556,1786
12.5583,1800
12.5611,1786
12.5639,1792
12.5667,1800
12.5694,1813
12.5722,1824
12.5750,1824
12.5778,1825
12.5806,1831
12.5833,1816
12.5861,1802
12.5889,1784
12.5917,1790
12.5944,1793
12.5972,1814
12.6000,1825
12.6028,1841
12.6056,1876
12.6083,1871
12.6111,1872
12.6139,1859
12.6167,1848
12.6194,1838
12.6222,1826
12.6250,1805
12.6278,1786
12.6306,1754
12.6333,1737
12.6361,1719
12.6389,1704
12.6417,1699
12.6444,1699
12.6472,1693
12.6500,1686
12.6528,1684
12.6556,1674
12.6583,1663
12.6611,1646
12.6639,1655
12.6667,1651
12.6694,1643
12.6722,1644
12.6750,1641
12.6778,1642
12.6806,1645
12.6833,1646
12.6861,1647
12.6889,1649
12.6917,1656
12.6944,1665
12.6972,1662
12.7000,1654
12.7028,1654
12.7056,1667
12.7083,1676
12.7111,1669
12.7139,1668
12.7167,1661
12.7194,1655
12.7222,1662
12.7250,1672
12.7278,1679
12.7306,1689
12.7333,1709
12.7361,1715
12.7389,1719
12.7417,1724
12.7444,1733
12.7472,1747
12.7500,1742
12.7528,1744
12.7556,1744
12.7583,1736
12.7611,1750
12.7639,1756
12.7667,1776
12.7694,1788
12.7722,1803
12.7750,1791
12.7778,1793
12.7806,1793
12.7833,1786
12.7861,1792
12.7889,1801
12.7917,1801
12.7944,1806
12.7972,1813
12.8000,1809
12.8028,1811
12.8056,1812
12.8083,1804
12.8111,1807
12.8139,1795
12.8167,1800
12.8194,1802
12.8222,1804
12.8250,1807
12.8278,1827
12.8306,1845
12.8333,1859
12.8361,1873
12.8389,1907
12.8417,1927
12.8444,1951
12.8472,1963
12.8500,1960
12.8528,1951
12.8556,1941
12.8583,1961
12.8611,1993
12.8639,2036
12.8667,2062
12.8694,2077
12.8722,2074
12.8750,2068
12.8778,2071
12.8806,2067
12.8833,2051
12.8861,2046
12.8889,2022
12.8917,1996
12.8944,1975
12.8972,1943
12.9000,1911
12.9028,1893
12.9056,1877
12.9083,1871
12.9111,1857
12.9139,1854
12.9167,1857
12.9194,1845
12.9222,1834
12.9250,1823
12.9278,1826
12.9306,1841
12.9333,1854
12.9361,1873
12.9389,1881
12.9417,1884
12.9444,1880
12.9472,1867
12.9500,1885
12.9528,1883
12.9556,1890
12.9583,1893
12.9611,1897
12.9639,1876
12.9667,1879
12.9694,1887
12.9722,1900
12.9750,1911
12.9778,1930
12.9806,1924
12.9833,1926
12.9861,1932
12.9889,1930
12.9917,1917
12.9944,1932
12.9972,1950
13.0000,1961
13.0028,1996
13.0056,2020
13.0083,2061
13.0111,2084
13.0139,2104
13.0167,2141
13.0194,2172
13.0222,2241
13.0250,2319
13.0278,2418
13.0306,2462
13.0333,2453
13.0361,2405
13.0389,2306
13.0417,2195
13.0444,2076
13.0472,1936
13.0500,1815
13.0528,1779
13.0556,1806
13.0583,1855
13.0611,1919
13.0639,1948
13.0667,1983
13.0694,2004
13.0722,2003
13.0750,1985
13.0778,1985
13.0806,1978
13.0833,1972
13.0861,1971
13.0889,1983
13.0917,1990
13.0944,1984
13.0972,1984
13.1000,1980
13.1028,1993
13.1056,2005
13.1083,2009
13.1111,2017
13.1139,2020
13.1167,2022
13.1194,2029
13.1222,2035
13.1250,2032
13.1278,2040
13.1306,2045
13.1333,2040
13.1361,2041
13.1389,2048
13.1417,2058
13.1444,2077
13.1472,2071
13.1500,2065
13.1528,2069
13.1556,2077
13.1583,2072
13.1611,2074
13.1639,2065
13.1667,2067
13.1694,2076
13.1722,2088
13.1750,2086
13.1778,2091
13.1806,2081
13.1833,2075
13.1861,2077
13.1889,2088
13.1917,2109
13.1944,2133
13.1972,2148
13.2000,2143
13.2028,2142
13.2056,2146
13.2083,2140
13.2111,2158
13.2139,2157
13.2167,2165
13.2194,2162
13.2222,2177
13.2250,2179
13.2278,2197
13.2306,2200
13.2333,2203
13.2361,2209
13.2389,2227
13.2417,2270
13.2444,2277
13.2472,2257
13.2500,2236
13.2528,2219
13.2556,2213
13.2583,2186
13.2611,2169
13.2639,2160
13.2667,2137
13.2694,2117
13.2722,2111
13.2750,2097
13.2778,2093
13.2806,2093
13.2833,2080
13.2861,2083
13.2889,2085
13.2917,2091
13.2944,2093
13.2972,2098
13.3000,2100
13.3028,2093
13.3056,2099
13.3083,2099
13.3111,2099
13.3139,2094
13.3167,2106
13.3194,2111
13.3222,2103
13.3250,2088
13.3278,2079
13.3306,2075
13.3333,2073
13.3361,2090
13.3389,2093
13.3417,2096
13.3444,2103
13.3472,2109
13.3500,2113
13.3528,2125
13.3556,2130
13.3583,2134
13.3611,2136
13.3639,2133
13.3667,2124
13.3694,2132
13.3722,2127
13.3750,2127
13.3778,2126
13.3806,2131
13.3833,2133
13.3861,2126
13.3889,2117
13.3917,2118
13.3944,2138
13.3972,2128
13.4000,2137
13.4028,2134
13.4056,2132
13.4083,2133
13.4111,2127
13.4139,2121
13.4167,2118
13.4194,2107
13.4222,2112
13.4250,2099
13.4278,2095
13.4306,2099
13.4333,2100
13.4361,2105
13.4389,2094
13.4417,2085
13.4444,2080
13.4472,2081
13.4500,2089
13.4528,2079
13.4556,2069
13.4583,2066
13.4611,2055
13.4639,2045
13.4667,2042
13.4694,2052
13.4722,2045
13.4750,2044
13.4778,2039
13.4806,2042
13.4833,2049
13.4861,2045
13.4889,2035
13.4917,2023
13.4944,2030
13.4972,2020
13.5000,2028
13.5028,2035
13.5056,2068
13.5083,2108
13.5111,2132
13.5139,2154
13.5167,2150
13.5194,2144
13.5222,2140
13.5250,2135
13.5278,2137
13.5306,2175
13.5333,2209
13.5361,2237
13.5389,2245
13.5417,2237
13.5444,2231
13.5472,2200
13.5500,2180
13.5528,2166
13.5556,2150
13.5583,2133
13.5611,2113
13.5639,2078
13.5667,2049
13.5694,2016
13.5722,1981
13.5750,1960
13.5778,1940
13.5806,1918
13.5833,1910
13.5861,1899
13.5889,1895
13.5917,1894
13.5944,1884
13.5972,1879
13.6000,1871
13.6028,1874
13.6056,1878
13.6083,1866
13.6111,1859
13.6139,1851
13.6167,1850
13.6194,1852
13.6222,1850
13.6250,1858
13.6278,1871
13.6306,1864
13.6333,1847
13.6361,1842
13.6389,1835
13.6417,1831
13.6444,1841
13.6472,1851
13.6500,1865
13.6528,1875
13.6556,1880
13.6583,1876
13.6611,1880
13.6639,1882
13.6667,1887
13.6694,1895
13.6722,1908
13.6750,1940
13.6778,1991
13.6806,2024
13.6833,2058
13.6861,2106
13.6889,2158
13.6917,2232
13.6944,2340
13.6972,2455
13.7000,2497
13.7028,2477
13.7056,2416
13.7083,2330
13.7111,2222
13.7139,2071
13.7167,1883
13.7194,1720
13.7222,1676
13.7250,1703
13.7278,1777
13.7306,1841
13.7333,1888
13.7361,1918
13.7389,1928
13.7417,1912
13.7444,1904
13.7472,1886
13.7500,1881
13.7528,1885
13.7556,1896
13.7583,1911
13.7611,1909
13.7639,1913
13.7667,1906
13.7694,1897
13.7722,1891
13.7750,1902
13.7778,1900
13.7806,1914
13.7833,1912
13.7861,1914
13.7889,1910
13.7917,1904
13.7944,1905
13.7972,1907
13.8000,1913
13.8028,1916
13.8056,1911
13.8083,1925
13.8111,1921
13.8139,1916
13.8167,1918
13.8194,1928
13.8222,1926
13.8250,1918
13.8278,1924
13.8306,1907
13.8333,1901
13.8361,1891
13.8389,1904
13.8417,1917
13.8444,1923
13.8472,1928
13.8500,1924
13.8528,1927
13.8556,1929
13.8583,1936
13.8611,1928
13.8639,1926
13.8667,1934
13.8694,1937
13.8722,1932
13.8750,1922
13.8778,1932
13.8806,1938
13.8833,1942
13.8861,1945
13.8889,1949
13.8917,1946
13.8944,1962
13.8972,1972
13.9000,1979
13.9028,1984
13.9056,1992
13.9083,1990
13.9111,2021
13.9139,2022
13.9167,2015
13.9194,1994
13.9222,1978
13.9250,1958
13.9278,1937
13.9306,1912
13.9333,1897
13.9361,1890
13.9389,1881
13.9417,1874
13.9444,1862
13.9472,1854
13.9500,1836
13.9528,1838
13.9556,1827
13.9583,1821
13.9611,1833
13.9639,1831
13.9667,1825
13.9694,1824
13.9722,1822
13.9750,1809
13.9778,1815
13.9806,1810
13.9833,1804
13.9861,1808
13.9889,1808
13.9917,1802
13.9944,1802
13.9972,1798
14.0000,1808
14.0028,1802
14.0056,1814
14.0083,1827
14.0111,1832
14.0139,1837
14.0167,1825
14.0194,1829
14.0222,1819
14.0250,1823
14.0278,1836
14.0306,1843
14.0333,1855
14.0361,1863
14.0389,1863
14.0417,1862
14.0444,1851
14.0472,1861
14.0500,1859
14.0528,1864
14.0556,1871
14.0583,1889
14.0611,1897
14.0639,1908
14.0667,1911
14.0694,1913
14.0722,1913
14.0750,1913
14.0778,1919
14.0806,1930
14.0833,1944
14.0861,1952
14.0889,1955
14.0917,1963
14.0944,1968
14.0972,1956
14.1000,1963
14.1028,1973
14.1056,1972
14.1083,1991
14.1111,1997
14.1139,1999
14.1167,2007
14.1194,2008
14.1222,2018
14.1250,2015
14.1278,2007
14.1306,2005
14.1333,2017
14.1361,2021
14.1389,2033
14.1417,2042
14.1444,2052
14.1472,2047
14.1500,2043
14.1528,2041
14.1556,2043
14.1583,2053
14.1611,2063
14.1639,2076
14.1667,2083
14.1694,2078
14.1722,2081
14.1750,2092
14.1778,2098
14.1806,2103
14.1833,2107
14.1861,2104
14.1889,2111
14.1917,2097
14.1944,2096
14.1972,2088
14.2000,2099
14.2028,2102
14.2056,2112
14.2083,2122
14.2111,2125
14.2139,2137
14.2167,2124
14.2194,2135
14.2222,2132
14.2250,2134
14.2278,2121
14.2306,2121
14.2333,2111
14.2361,2124
14.2389,2138
14.2417,2153
14.2444,2190
14.2472,2229
14.2500,2261
14.2528,2274
14.2556,2274
14.2583,2253
14.2611,2236
14.2639,2232
14.2667,2249
14.2694,2292
14.2722,2314
14.2750,2342
14.2778,2348
14.2806,2348
14.2833,2333
14.2861,2325
14.2889,2306
14.2917,2299
14.2944,2285
14.2972,2268
14.3000,2247
14.3028,2226
14.3056,2191
14.3083,2160
14.3111,2128
14.3139,2103
14.3167,2079
14.3194,2064
14.3222,2042
14.3250,2025
14.3278,2011
14.3306,2000
14.3333,1997
14.3361,1991
14.3389,1986
14.3417,1988
14.3444,1975
14.3472,1966
14.3500,1961
14.3528,1967
14.3556,1972
14.3583,1979
14.3611,1975
14.3639,1973
14.3667,1966
14.3694,1968
14.3722,1976
14.3750,1972
14.3778,1980
14.3806,1979
14.3833,1978
14.3861,1980
14.3889,1983
14.3917,1990
14.3944,1993
14.3972,1986
14.4000,1992
14.4028,1998
14.4056,1992
14.4083,1999
14.4111,2020
14.4139,2054
14.4167,2085
14.4194,2122
14.4222,2161
14.4250,2219
14.4278,2295
14.4306,2397
14.4333,2502
14.4361,2553
14.4389,2552
14.4417,2509
14.4444,2418
14.4472,2319
14.4500,2192
14.4528,2016
14.4556,1827
14.4583,1745
14.4611,1755
14.4639,1815
14.4667,1881
14.4694,1949
14.4722,1988
14.4750,2012
14.4778,1999
14.4806,1989
14.4833,1969
14.4861,1954
14.4889,1923
14.4917,1910
14.4944,1913
14.4972,1917
14.5000,1923
14.5028,1936
14.5056,1938
14.5083,1935
14.5111,1935
14.5139,1947
14.5167,1948
14.5194,1961
14.5222,1963
14.5250,1953
14.5278,1957
14.5306,1947
14.5333,1947
14.5361,1953
14.5389,1963
14.5417,1959
14.5444,1962
14.5472,1952
14.5500,1948
14.5528,1946
14.5556,1949
14.5583,1952
14.5611,1954
14.5639,1940
14.5667,1930
14.5694,1926
14.5722,1916
14.5750,1905
14.5778,1895
14.5806,1909
14.5833,1914
14.5861,1920
14.5889,1920
14.5917,1921
14.5944,1931
14.5972,1917
14.6000,1920
14.6028,1929
14.6056,1929
14.6083,1929
14.6111,1924
14.6139,1915
14.6167,1919
14.6194,1922
14.6222,1922
14.6250,1928
14.6278,1925
14.6306,1924
14.6333,1924
14.6361,1932
14.6389,1942
14.6417,1949
14.6444,1955
14.6472,2005
14.6500,1997
14.6528,1985
14.6556,1966
14.6583,1948
14.6611,1929
14.6639,1901
14.6667,1873
14.6694,1838
14.6722,1823
14.6750,1815
14.6778,1810
14.6806,1802
14.6833,1790
14.6861,1776
14.6889,1755
14.6917,1743
14.6944,1732
14.6972,1728
14.7000,1727
14.7028,1729
14.7056,1735
14.7083,1741
14.7111,1732
14.7139,1724
14.7167,1722
14.7194,1716
14.7222,1707
14.7250,1700
14.7278,1700
14.7306,1690
14.7333,1701
14.7361,1710
14.7389,1723
14.7417,1718
14.7444,1711
14.7472,1705
14.7500,1710
14.7528,1718
14.7556,1738
14.7583,1756
14.7611,1771
14.7639,1758
14.7667,1746
14.7694,1736
14.7722,1732
14.7750,1738
14.7778,1750
14.7806,1755
14.7833,1765
14.7861,1774
14.7889,1773
14.7917,1766
14.7944,1775
14.7972,1764
14.8000,1776
14.8028,1776
14.8056,1776
14.8083,1787
14.8111,1799
14.8139,1819
14.8167,1832
14.8194,1830
14.8222,1832
14.8250,1831
14.8278,1836
14.8306,1842
14.8333,1844
14.8361,1858
14.8389,1869
14.8417,1866
14.8444,1884
14.8472,1891
14.8500,1889
14.8528,1893
14.8556,1890
14.8583,1892
14.8611,1901
14.8639,1911
14.8667,1918
14.8694,1934
14.8722,1934
14.8750,1951
14.8778,1972
14.8806,1978
14.8833,1977
14.8861,1966
14.8889,1964
14.8917,1969
14.8944,1979
14.8972,1988
14.9000,1977
14.9028,1972
14.9056,1955
14.9083,1960
14.9111,1956
14.9139,1971
14.9167,1985
14.9194,1995
14.9222,1987
14.9250,1998
14.9278,1990
14.9306,1999
14.9333,1990
14.9361,1982
14.9389,1988
14.9417,1982
14.9444,1987
14.9472,1984
14.9500,1982
14.9528,1994
14.9556,1991
14.9583,1982
14.9611,1967
14.9639,1961
14.9667,1971
14.9694,1968
14.9722,1978
14.9750,1981
14.9778,1975
14.9806,1971
14.9833,1963
14.9861,1964
14.9889,1970
14.9917,1962
14.9944,1960
14.9972,1963
15.0000,1968
15.0028,1983
15.0056,2009
15.0083,2046
15.0111,2071
15.0139,2078
15.0167,2072
15.0194,2075
15.0222,2055
15.0250,2055
15.0278,2070
15.0306,2087
15.0333,2111
15.0361,2123
15.0389,2144
15.0417,2147
15.0444,2142
15.0472,2130
15.0500,2110
15.0528,2094
15.0556,2079
15.0583,2050
15.0611,2037
15.0639,2029
15.0667,2010
15.0694,1979
15.0722,1953
15.0750,1935
15.0778,1926
15.0806,1909
15.0833,1881
15.0861,1877
15.0889,1870
15.0917,1882
15.0944,1892
15.0972,1911
15.1000,1904
15.1028,1896
15.1056,1883
15.1083,1861
15.1111,1848
15.1139,1849
15.1167,1844
15.1194,1856
15.1222,1862
15.1250,1876
15.1278,1878
15.1306,1879
15.1333,1874
15.1361,1867
15.1389,1865
15.1417,1864
15.1444,1866
15.1472,1865
15.1500,1866
15.1528,1880
15.1556,1876
15.1583,1882
15.1611,1888
15.1639,1887
15.1667,1908
15.1694,1935
15.1722,1980
15.1750,2000
15.1778,2025
15.1806,2038
15.1833,2084
15.1861,2139
15.1889,2234
15.1917,2313
15.1944,2377
15.1972,2375
15.2000,2305
15.2028,2223
15.2056,2092
15.2083,1939
15.2111,1810
15.2139,1744
15.2167,1739
15.2194,1777
15.2222,1837
15.2250,1877
15.2278,1906
15.2306,1930
15.2333,1946
15.2361,1929
15.2389,1915
15.2417,1899
15.2444,1890
15.2472,1894
15.2500,1888
15.2528,1893
15.2556,1914
15.2583,1911
15.2611,1912
15.2639,1916
15.2667,1921
15.2694,1905
15.2722,1898
15.2750,1893
15.2778,1883
15.2806,1907
15.2833,1911
15.2861,1915
15.2889,1902
15.2917,1901
15.2944,1903
15.2972,1908
15.3000,1917
15.3028,1919
15.3056,1925
15.3083,1926
15.3111,1922
15.3139,1923
15.3167,1910
15.3194,1906
15.3222,1910
15.3250,1924
15.3278,1922
15.3306,1939
15.3333,1945
15.3361,1941
15.3389,1945
15.3417,1938
15.3444,1935
15.3472,1937
15.3500,1939
15.3528,1933
15.3556,1947
15.3583,1947
15.3611,1950
15.3639,1962
15.3667,1976
15.3694,1969
15.3722,1975
15.3750,1985
15.3778,1992
15.3806,1997
15.3833,2009
15.3861,2008
15.3889,2018
15.3917,2014
15.3944,2009
15.3972,2012
15.4000,2018
15.4028,2079
15.4056,2073
15.4083,2056
15.4111,2039
15.4139,2022
15.4167,2012
15.4194,1992
15.4222,1976
15.4250,1963
15.4278,1953
15.4306,1931
15.4333,1907
15.4361,1893
15.4389,1871
15.4417,1847
15.4444,1853
15.4472,1848
15.4500,1850
15.4528,1856
15.4556,1839
15.4583,1830
15.4611,1817
15.4639,1816
15.4667,1817
15.4694,1828
15.4722,1820
15.4750,1820
15.4778,1826
15.4806,1838
15.4833,1840
15.4861,1848
15.4889,1845
15.4917,1839
15.4944,1841
15.4972,1850
15.5000,1870
15.5028,1870
15.5056,1873
15.5083,1859
15.5111,1847
15.5139,1842
15.5167,1838
15.5194,1854
15.5222,1863
15.5250,1870
15.5278,1873
15.5306,1867
15.5333,1865
15.5361,1855
15.5389,1847
15.5417,1854
15.5444,1860
15.5472,1863
15.5500,1859
15.5528,1843
15.5556,1843
15.5583,1841
15.5611,1838
15.5639,1846
15.5667,1844
15.5694,1832
15.5722,1833
15.5750,1837
15.5778,1830
15.5806,1816
15.5833,1802
15.5861,1789
15.5889,1791
15.5917,1786
15.5944,1786
15.5972,1778
15.6000,1778
15.6028,1773
15.6056,1763
15.6083,1748
15.6111,1736
15.6139,1739
15.6167,1732
15.6194,1728
15.6222,1727
15.6250,1721
15.6278,1714
15.6306,1707
15.6333,1706
15.6361,1699
15.6389,1685
15.6417,1683
15.6444,1673
15.6472,1663
15.6500,1665
15.6528,1671
15.6556,1669
15.6583,1645
15.6611,1621
15.6639,1615
15.6667,1614
15.6694,1613
15.6722,1601
15.6750,1597
15.6778,1591
15.6806,1595
15.6833,1593
15.6861,1599
15.6889,1610
15.6917,1624
15.6944,1642
15.6972,1663
15.7000,1642
15.7028,1630
15.7056,1617
15.7083,1616
15.7111,1639
15.7139,1670
15.7167,1700
15.7194,1720
15.7222,1743
15.7250,1735
15.7278,1700
15.7306,1675
15.7333,1649
15.7361,1639
15.7389,1623
15.7417,1592
15.7444,1570
15.7472,1550
15.7500,1514
15.7528,1488
15.7556,1459
15.7583,1446
15.7611,1420
15.7639,1415
15.7667,1392
15.7694,1370
15.7722,1360
15.7750,1344
15.7778,1333
15.7806,1325
15.7833,1320
15.7861,1333
15.7889,1316
15.7917,1306
15.7944,1287
15.7972,1276
15.8000,1274
15.8028,1270
15.8056,1272
15.8083,1267
15.8111,1270
15.8139,1262
15.8167,1256
15.8194,1255
15.8222,1246
15.8250,1251
15.8278,1264
15.8306,1274
15.8333,1266
15.8361,1258
15.8389,1241
15.8417,1222
15.8444,1219
15.8472,1222
15.8500,1215
15.8528,1231
15.8556,1254
15.8583,1268
15.8611,1275
15.8639,1270
15.8667,1275
15.8694,1280
15.8722,1309
15.8750,1372
15.8778,1412
15.8806,1430
15.8833,1410
15.8861,1356
15.8889,1266
15.8917,1126
15.8944,976
15.8972,856
15.9000,790
15.9028,781
15.9056,801
15.9083,846
15.9111,854
15.9139,862
15.9167,861
15.9194,861
15.9222,853
15.9250,841
15.9278,819
15.9306,811
15.9333,806
15.9361,798
15.9389,778
15.9417,765
15.9444,755
15.9472,757
15.9500,768
15.9528,782
15.9556,780
15.9583,778
15.9611,763
15.9639,750
15.9667,747
15.9694,743
15.9722,751
15.9750,768
15.9778,776
15.9806,790
15.9833,814
15.9861,810
15.9889,805
15.9917,804
15.9944,810
15.9972,816
16.0000,817
16.0028,819
16.0056,813
16.0083,807
16.0111,814
16.0139,829
16.0167,835
16.0194,846
16.0222,855
16.0250,872
16.0278,880
16.0306,883
16.0333,880
16.0361,878
16.0389,882
16.0417,898
16.0444,916
16.0472,925
16.0500,939
16.0528,940
16.0556,949
16.0583,954
16.0611,957
16.0639,952
16.0667,971
16.0694,990
16.0722,1015
16.0750,1029
16.0778,1048
16.0806,1063
16.0833,1076
16.0861,1065
16.0889,1346
16.0917,1343
16.0944,1341
16.0972,1347
16.1000,1345
16.1028,1343
16.1056,1333
16.1083,1325
16.1111,1321
16.1139,1328
16.1167,1323
16.1194,1315
16.1222,1320
16.1250,1310
16.1278,1319
16.1306,1314
16.1333,1319
16.1361,1341
16.1389,1356
16.1417,1367
16.1444,1370
16.1472,1367
16.1500,1364
16.1528,1375
16.1556,1391
16.1583,1414
16.1611,1432
16.1639,1460
16.1667,1475
16.1694,1464
16.1722,1459
16.1750,1468
16.1778,1480
16.1806,1491
16.1833,1504
16.1861,1521
16.1889,1537
16.1917,1552
16.1944,1557
16.1972,1570
16.2000,1583
16.2028,1588
16.2056,1594
16.2083,1585
16.2111,1597
16.2139,1606
16.2167,1638
16.2194,1674
16.2222,1692
16.2250,1697
16.2278,1694
16.2306,1679
16.2333,1661
16.2361,1671
16.2389,1682
16.2417,1695
16.2444,1709
16.2472,1722
16.2500,1737
16.2528,1746
16.2556,1756
16.2583,1781
16.2611,1791
16.2639,1811
16.2667,1812
16.2694,1806
16.2722,1805
16.2750,1803
16.2778,1817
16.2806,1820
16.2833,1839
16.2861,1854
16.2889,1869
16.2917,1872
16.2944,1884
16.2972,1874
16.3000,1872
16.3028,1890
16.3056,1886
16.3083,1891
16.3111,1919
16.3139,1932
16.3167,1947
16.3194,1966
16.3222,1984
16.3250,2002
16.3278,2029
16.3306,2045
16.3333,2077
16.3361,2098
16.3389,2101
16.3417,2104
16.3444,2097
16.3472,2107
16.3500,2141
16.3528,2167
16.3556,2214
16.3583,2238
16.3611,2255
16.3639,2248
16.3667,2226
16.3694,2208
16.3722,2206
16.3750,2204
16.3778,2191
16.3806,2164
16.3833,2142
16.3861,2137
16.3889,2111
16.3917,2091
16.3944,2074
16.3972,2048
16.4000,2034
16.4028,2028
16.4056,2035
16.4083,2040
16.4111,2056
16.4139,2067
16.4167,2063
16.4194,2057
16.4222,2062
16.4250,2068
16.4278,2080
16.4306,2084
16.4333,2103
16.4361,2100
16.4389,2111
16.4417,2126
16.4444,2128
16.4472,2137
16.4500,2137
16.4528,2151
16.4556,2158
16.4583,2179
16.4611,2197
16.4639,2216
16.4667,2229
16.4694,2235
16.4722,2222
16.4750,2223
16.4778,2223
16.4806,2231
16.4833,2240
16.4861,2253
16.4889,2263
16.4917,2297
16.4944,2326
16.4972,2363
16.5000,2389
16.5028,2416
16.5056,2431
16.5083,2468
16.5111,2526
16.5139,2613
16.5167,2704
16.5194,2785
16.5222,2804
16.5250,2776
16.5278,2696
16.5306,2567
16.5333,2426
16.5361,2300
16.5389,2211
16.5417,2207
16.5444,2246
16.5472,2314
16.5500,2363
16.5528,2399
16.5556,2432
16.5583,2441
16.5611,2430
16.5639,2414
16.5667,2401
16.5694,2394
16.5722,2400
16.5750,2401
16.5778,2383
16.5806,2389
16.5833,2403
16.5861,2404
16.5889,2413
16.5917,2421
16.5944,2423
16.5972,2429
16.6000,2434
16.6028,2431
16.6056,2422
16.6083,2423
16.6111,2424
16.6139,2427
16.6167,2437
16.6194,2447
16.6222,2451
16.6250,2453
16.6278,2458
16.6306,2464
16.6333,2477
16.6361,2464
16.6389,2467
16.6417,2470
16.6444,2478
16.6472,2473
16.6500,2472
16.6528,2473
16.6556,2470
16.6583,2473
16.6611,2471
16.6639,2482
16.6667,2482
16.6694,2475
16.6722,2493
16.6750,2490
16.6778,2499
16.6806,2506
16.6833,2522
16.6861,2519
16.6889,2515
16.6917,2502
16.6944,2508
16.6972,2504
16.7000,2507
16.7028,2517
16.7056,2523
16.7083,2526
16.7111,2547
16.7139,2546
16.7167,2534
16.7194,2535
16.7222,2542
16.7250,2555
16.7278,2573
16.7306,2587
16.7333,2585
16.7361,2568
16.7389,2521
16.7417,2487
16.7444,2463
16.7472,2455
16.7500,2455
16.7528,2458
16.7556,2451
16.7583,2435
16.7611,2426
16.7639,2397
16.7667,2383
16.7694,2390
16.7722,2398
16.7750,2390
16.7778,2401
16.7806,2388
16.7833,2389
16.7861,2386
16.7889,2382
16.7917,2384
16.7944,2376
16.7972,2377
16.8000,2375
16.8028,2382
16.8056,2379
16.8083,2377
16.8111,2364
16.8139,2361
16.8167,2359
16.8194,2368
16.8222,2381
16.8250,2384
16.8278,2376
16.8306,2363
16.8333,2359
16.8361,2357
16.8389,2362
16.8417,2367
16.8444,2372
16.8472,2388
16.8500,2383
16.8528,2376
16.8556,2364
16.8583,2364
16.8611,2357
16.8639,2359
16.8667,2370
16.8694,2370
16.8722,2365
16.8750,2370
16.8778,2372
16.8806,2369
16.8833,2367
16.8861,2366
16.8889,2356
16.8917,2364
16.8944,2372
16.8972,2374
16.9000,2381
16.9028,2367
16.9056,2355
16.9083,2346
16.9111,2339
16.9139,2337
16.9167,2355
16.9194,2351
16.9222,2339
16.9250,2335
16.9278,2322
16.9306,2320
16.9333,2328
16.9361,2321
16.9389,2328
16.9417,2318
16.9444,2318
16.9472,2316
16.9500,2312
16.9528,2318
16.9556,2323
16.9583,2331
16.9611,2321
16.9639,2307
16.9667,2301
16.9694,2287
16.9722,2285
16.9750,2291
16.9778,2305
16.9806,2310
16.9833,2337
16.9861,2363
16.9889,2386
16.9917,2395
16.9944,2408
16.9972,2399
17.0000,2401
17.0028,2395
17.0056,2401
17.0083,2427
17.0111,2462
17.0139,2482
17.0167,2486
17.0194,2475
17.0222,2474
17.0250,2457
17.0278,2433
17.0306,2412
17.0333,2391
17.0361,2369
17.0389,2331
17.0417,2303
17.0444,2263
17.0472,2244
17.0500,2219
17.0528,2199
17.0556,2177
17.0583,2167
17.0611,2152
17.0639,2124
17.0667,2118
17.0694,2111
17.0722,2106
17.0750,2109
17.0778,2101
17.0806,2117
17.0833,2120
17.0861,2108
17.0889,2102
17.0917,2097
17.0944,2090
17.0972,2094
17.1000,2094
17.1028,2085
17.1056,2078
17.1083,2089
17.1111,2088
17.1139,2092
17.1167,2106
17.1194,2105
17.1222,2107
17.1250,2121
17.1278,2125
17.1306,2111
17.1333,2109
17.1361,2108
17.1389,2116
17.1417,2118
17.1444,2124
17.1472,2121
17.1500,2124
17.1528,2126
17.1556,2154
17.1583,2185
17.1611,2219
17.1639,2278
17.1667,2332
17.1694,2412
17.1722,2501
17.1750,2616
17.1778,2686
17.1806,2698
17.1833,2640
17.1861,2542
17.1889,2440
17.1917,2297
17.1944,2105
17.1972,1936
17.2000,1863
17.2028,1886
17.2056,1940
17.2083,2002
17.2111,2059
17.2139,2094
17.2167,2125
17.2194,2125
17.2222,2117
17.2250,2102
17.2278,2092
17.2306,2101
17.2333,2090
17.2361,2083
17.2389,2079
17.2417,2068
17.2444,2066
17.2472,2067
17.2500,2072
17.2528,2075
17.2556,2089
17.2583,2092
17.2611,2103
17.2639,2091
17.2667,2070
17.2694,2063
17.2722,2060
17.2750,2061
17.2778,2069
17.2806,2085
17.2833,2083
17.2861,2071
17.2889,2066
17.2917,2071
17.2944,2079
17.2972,2079
17.3000,2090
17.3028,2081
17.3056,2073
17.3083,2074
17.3111,2077
17.3139,2076
17.3167,2082
17.3194,2083
17.3222,2073
17.3250,2069
17.3278,2075
17.3306,2081
17.3333,2081
17.3361,2087
17.3389,2085
17.3417,2083
17.3444,2085
17.3472,2089
17.3500,2096
17.3528,2091
17.3556,2103
17.3583,2096
17.3611,2091
17.3639,2098
17.3667,2116
17.3694,2124
17.3722,2129
17.3750,2117
17.3778,2104
17.3806,2100
17.3833,2095
17.3861,2106
17.3889,2163
17.3917,2156
17.3944,2122
17.3972,2105
17.4000,2089
17.4028,2086
17.4056,2073
17.4083,2050
17.4111,2034
17.4139,2026
17.4167,2007
17.4194,2003
17.4222,1982
17.4250,1960
17.4278,1946
17.4306,1939
17.4333,1923
17.4361,1913
17.4389,1924
17.4417,1930
17.4444,1927
17.4472,1932
17.4500,1933
17.4528,1928
17.4556,1925
17.4583,1920
17.4611,1918
17.4639,1909
17.4667,1907
17.4694,1892
17.4722,1889
17.4750,1891
17.4778,1906
17.4806,1910
17.4833,1907
17.4861,1913
17.4889,1919
17.4917,1900
17.4944,1911
17.4972,1904
17.5000,1888
17.5028,1884
17.5056,1882
17.5083,1882
17.5111,1891
17.5139,1896
17.5167,1905
17.5194,1911
17.5222,1908
17.5250,1898
17.5278,1892
17.5306,1878
17.5333,1876
17.5361,1890
17.5389,1901
17.5417,1930
17.5444,1931
17.5472,1936
17.5500,1938
17.5528,1934
17.5556,1920
17.5583,1923
17.5611,1925
17.5639,1922
17.5667,1910
17.5694,1902
17.5722,1901
17.5750,1915
17.5778,1927
17.5806,1928
17.5833,1933
17.5861,1920
17.5889,1922
17.5917,1920
17.5944,1920
17.5972,1925
17.6000,1927
17.6028,1909
17.6056,1915
17.6083,1903
17.6111,1905
17.6139,1906
17.6167,1902
17.6194,1905
17.6222,1897
17.6250,1901
17.6278,1897
17.6306,1902
17.6333,1896
17.6361,1905
17.6389,1897
17.6417,1895
17.6444,1910
17.6472,1911
17.6500,1909
17.6528,1920
17.6556,1921
17.6583,1929
17.6611,1931
17.6639,1933
17.6667,1929
17.6694,1931
17.6722,1927
17.6750,1921
17.6778,1918
17.6806,1928
17.6833,1927
17.6861,1916
17.6889,1920
17.6917,1923
17.6944,1917
17.6972,1911
17.7000,1910
17.7028,1916
17.7056,1921
17.7083,1928
17.7111,1927
17.7139,1922
17.7167,1933
17.7194,1942
17.7222,1948
17.7250,1948
17.7278,1952
17.7306,1960
17.7333,1968
17.7361,1994
17.7389,2022
17.7417,2046
17.7444,2050
17.7472,2038
17.7500,2032
17.7528,2023
17.7556,2034
17.7583,2068
17.7611,2110
17.7639,2138
17.7667,2152
17.7694,2152
17.7722,2148
17.7750,2131
17.7778,2111
17.7806,2108
17.7833,2088
17.7861,2077
17.7889,2064
17.7917,2037
17.7944,2006
17.7972,1985
17.8000,1959
17.8028,1937
17.8056,1905
17.8083,1886
17.8111,1888
17.8139,1880
17.8167,1869
17.8194,1854
17.8222,1857
17.8250,1856
17.8278,1846
17.8306,1851
17.8333,1844
17.8361,1835
17.8389,1839
17.8417,1838
17.8444,1833
17.8472,1841
17.8500,1853
17.8528,1867
17.8556,1872
17.8583,1859
17.8611,1850
17.8639,1854
17.8667,1859
17.8694,1874
17.8722,1883
17.8750,1885
17.8778,1882
17.8806,1892
17.8833,1892
17.8861,1891
17.8889,1886
17.8917,1887
17.8944,1892
17.8972,1891
17.9000,1910
17.9028,1952
17.9056,1994
17.9083,2032
17.9111,2056
17.9139,2094
17.9167,2144
17.9194,2217
17.9222,2319
17.9250,2435
17.9278,2498
17.9306,2488
17.9333,2442
17.9361,2377
17.9389,2295
17.9417,2149
17.9444,1974
17.9472,1783
17.9500,1714
17.9528,1725
17.9556,1781
17.9583,1848
17.9611,1897
17.9639,1947
17.9667,1957
17.9694,1962
17.9722,1942
17.9750,1932
17.9778,1921
17.9806,1914
17.9833,1917
17.9861,1914
17.9889,1917
17.9917,1925
17.9944,1940
17.9972,1941
18.0000,1946
18.0028,1945
18.0056,1947
18.0083,1946
18.0111,1951
18.0139,1943
18.0167,1944
18.0194,1944
18.0222,1941
18.0250,1960
18.0278,1967
18.0306,1975
18.0333,1978
18.0361,1987
18.0389,1989
18.0417,1996
18.0444,1988
18.0472,1995
18.0500,1995
18.0528,1995
18.0556,1996
18.0583,2004
18.0611,2016
18.0639,2025
18.0667,2011
18.0694,2012
18.0722,2004
18.0750,2016
18.0778,2015
18.0806,2010
18.0833,2015
18.0861,2022
18.0889,2025
18.0917,2028
18.0944,2025
18.0972,2026
18.1000,2015
18.1028,2019
18.1056,2020
18.1083,2015
18.1111,2027
18.1139,2032
18.1167,2031
18.1194,2036
18.1222,2047
18.1250,2039
18.1278,2051
18.1306,2071
18.1333,2075
18.1361,2065
18.1389,2169
18.1417,2159
18.1444,2148
18.1472,2135
18.1500,2121
18.1528,2112
18.1556,2100
18.1583,2069
18.1611,2058
18.1639,2047
18.1667,2037
18.1694,2043
18.1722,2044
18.1750,2023
18.1778,2012
18.1806,2012
18.1833,2011
18.1861,2001
18.1889,2004
18.1917,2017
18.1944,2017
18.1972,2028
18.2000,2027
18.2028,2035
18.2056,2046
18.2083,2056
18.2111,2069
18.2139,2064
18.2167,2056
18.2194,2051
18.2222,2038
18.2250,2041
18.2278,2058
18.2306,2066
18.2333,2071
18.2361,2083
18.2389,2074
18.2417,2087
18.2444,2092
18.2472,2099
18.2500,2097
18.2528,2108
18.2556,2114
18.2583,2102
18.2611,2098
18.2639,2111
18.2667,2126
18.2694,2121
18.2722,2131
18.2750,2127
18.2778,2124
18.2806,2128
18.2833,2129
18.2861,2143
18.2889,2167
18.2917,2184
18.2944,2190
18.2972,2195
18.3000,2201
18.3028,2204
18.3056,2209
18.3083,2207
18.3111,2228
18.3139,2227
18.3167,2228
18.3194,2238
18.3222,2243
18.3250,2256
18.3278,2264
18.3306,2278
18.3333,2280
18.3361,2283
18.3389,2282
18.3417,2268
18.3444,2278
18.3472,2274
18.3500,2273
18.3528,2277
18.3556,2282
18.3583,2279
18.3611,2277
18.3639,2289
18.3667,2299
18.3694,2314
18.3722,2306
18.3750,2307
18.3778,2293
18.3806,2299
18.3833,2293
18.3861,2293
18.3889,2311
18.3917,2332
18.3944,2348
18.3972,2355
18.4000,2345
18.4028,2351
18.4056,2342
18.4083,2343
18.4111,2340
18.4139,2349
18.4167,2362
18.4194,2372
18.4222,2377
18.4250,2376
18.4278,2369
18.4306,2362
18.4333,2364
18.4361,2367
18.4389,2377
18.4417,2380
18.4444,2375
18.4472,2372
18.4500,2361
18.4528,2359
18.4556,2368
18.4583,2365
18.4611,2371
18.4639,2369
18.4667,2370
18.4694,2370
18.4722,2370
18.4750,2374
18.4778,2381
18.4806,2385
18.4833,2378
18.4861,2373
18.4889,2368
18.4917,2371
18.4944,2380
18.4972,2374
18.5000,2376
18.5028,2367
18.5056,2365
18.5083,2367
18.5111,2383
18.5139,2384
18.5167,2386
18.5194,2397
18.5222,2410
18.5250,2410
18.5278,2399
18.5306,2375
18.5333,2333
18.5361,2308
18.5389,2272
18.5417,2255
18.5444,2249
18.5472,2279
18.5500,2292
18.5528,2299
18.5556,2287
18.5583,2275
18.5611,2249
18.5639,2207
18.5667,2180
18.5694,2158
18.5722,2134
18.5750,2110
18.5778,2072
18.5806,2063
18.5833,2025
18.5861,1991
18.5889,1938
18.5917,1890
18.5944,1850
18.5972,1824
18.6000,1813
18.6028,1802
18.6056,1798
18.6083,1785
18.6111,1782
18.6139,1761
18.6167,1752
18.6194,1731
18.6222,1725
18.6250,1714
18.6278,1710
18.6306,1707
18.6333,1703
18.6361,1707
18.6389,1695
18.6417,1685
18.6444,1683
18.6472,1678
18.6500,1682
18.6528,1672
18.6556,1688
18.6583,1687
18.6611,1684
18.6639,1674
18.6667,1679
18.6694,1677
18.6722,1669
18.6750,1660
18.6778,1650
18.6806,1642
18.6833,1664
18.6861,1691
18.6889,1730
18.6917,1763
18.6944,1782
18.6972,1799
18.7000,1808
18.7028,1839
18.7056,1886
18.7083,1972
18.7111,2042
18.7139,2083
18.7167,2072
18.7194,2018
18.7222,1941
18.7250,1811
18.7278,1665
18.7306,1560
18.7333,1496
18.7361,1484
18.7389,1520
18.7417,1570
18.7444,1603
18.7472,1623
18.7500,1637
18.7528,1654
18.7556,1649
18.7583,1638
18.7611,1634
18.7639,1629
18.7667,1629
18.7694,1628
18.7722,1626
18.7750,1632
18.7778,1627
18.7806,1621
18.7833,1629
18.7861,1635
18.7889,1631
18.7917,1636
18.7944,1642
18.7972,1644
18.8000,1656
18.8028,1667
18.8056,1671
18.8083,1679
18.8111,1671
18.8139,1663
18.8167,1682
18.8194,1683
18.8222,1685
18.8250,1703
18.8278,1707
18.8306,1699
18.8333,1697
18.8361,1692
18.8389,1696
18.8417,1697
18.8444,1692
18.8472,1693
18.8500,1705
18.8528,1721
18.8556,1731
18.8583,1734
18.8611,1744
18.8639,1737
18.8667,1738
18.8694,1735
18.8722,1729
18.8750,1724
18.8778,1731
18.8806,1734
18.8833,1730
18.8861,1733
18.8889,1732
18.8917,1742
18.8944,1764
18.8972,1779
18.9000,1797
18.9028,1811
18.9056,1821
18.9083,1814
18.9111,1825
18.9139,1823
18.9167,1818
18.9194,1830
18.9222,1948
18.9250,1937
18.9278,1923
18.9306,1913
18.9333,1898
18.9361,1890
18.9389,1860
18.9417,1833
18.9444,1797
18.9472,1783
18.9500,1779
18.9528,1781
18.9556,1783
18.9583,1778
18.9611,1755
18.9639,1745
18.9667,1754
18.9694,1739
18.9722,1744
18.9750,1745
18.9778,1749
18.9806,1744
18.9833,1749
18.9861,1739
18.9889,1739
18.9917,1732
18.9944,1725
18.9972,1726
19.0000,1725
19.0028,1739
19.0056,1751
19.0083,1777
19.0111,1782
19.0139,1781
19.0167,1790
19.0194,1789
19.0222,1797
19.0250,1801
19.0278,1796
19.0306,1795
19.0333,1790
19.0361,1799
19.0389,1789
19.0417,1804
19.0444,1794
19.0472,1796
19.0500,1780
19.0528,1769
19.0556,1773
19.0583,1771
19.0611,1773
19.0639,1784
19.0667,1777
19.0694,1780
19.0722,1780
19.0750,1777
19.0778,1767
19.0806,1764
19.0833,1763
19.0861,1762
19.0889,1758
19.0917,1750
19.0944,1761
19.0972,1763
19.1000,1774
19.1028,1774
19.1056,1772
19.1083,1774
19.1111,1763
19.1139,1751
19.1167,1750
19.1194,1744
19.1222,1737
19.1250,1737
19.1278,1742
19.1306,1743
19.1333,1739
19.1361,1749
19.1389,1750
19.1417,1728
19.1444,1715
19.1472,1719
19.1500,1727
19.1528,1729
19.1556,1735
19.1583,1735
19.1611,1730
19.1639,1723
19.1667,1725
19.1694,1717
19.1722,1731
19.1750,1728
19.1778,1726
19.1806,1728
19.1833,1732
19.1861,1734
19.1889,1741
19.1917,1747
19.1944,1762
19.1972,1762
19.2000,1767
19.2028,1775
19.2056,1775
19.2083,1770
19.2111,1783
19.2139,1790
19.2167,1806
19.2194,1814
19.2222,1830
19.2250,1856
19.2278,1872
19.2306,1890
19.2333,1920
19.2361,1944
19.2389,1955
19.2417,1949
19.2444,1950
19.2472,1953
19.2500,1966
19.2528,1991
19.2556,2034
19.2583,2059
19.2611,2072
19.2639,2094
19.2667,2097
19.2694,2086
19.2722,2084
19.2750,2072
19.2778,2063
19.2806,2030
19.2833,1995
19.2861,1967
19.2889,1924
19.2917,1901
19.2944,1875
19.2972,1857
19.3000,1844
19.3028,1828
19.3056,1816
19.3083,1819
19.3111,1811
19.3139,1809
19.3167,1809
19.3194,1789
19.3222,1792
19.3250,1794
19.3278,1794
19.3306,1809
19.3333,1822
19.3361,1825
19.3389,1824
19.3417,1823
19.3444,1814
19.3472,1814
19.3500,1817
19.3528,1816
19.3556,1813
19.3583,1824
19.3611,1833
19.3639,1841
19.3667,1860
19.3694,1865
19.3722,1871
19.3750,1862
19.3778,1870
19.3806,1875
19.3833,1889
19.3861,1906
19.3889,1918
19.3917,1932
19.3944,1944
19.3972,1955
19.4000,1980
19.4028,1992
19.4056,2007
19.4083,2033
19.4111,2080
19.4139,2139
19.4167,2234
19.4194,2334
19.4222,2393
19.4250,2382
19.4278,2327
19.4306,2238
19.4333,2089
19.4361,1959
19.4389,1855
19.4417,1810
19.4444,1833
19.4472,1885
19.4500,1941
19.4528,1963
19.4556,1987
19.4583,2001
19.4611,2005
19.4639,1991
19.4667,1972
19.4694,1960
19.4722,1964
19.4750,1969
19.4778,1968
19.4806,1975
19.4833,1994
19.4861,2017
19.4889,2030
19.4917,2043
19.4944,2034
19.4972,2039
19.5000,2036
19.5028,2042
19.5056,2044
19.5083,2051
19.5111,2059
19.5139,2065
19.5167,2064
19.5194,2068
19.5222,2060
19.5250,2054
19.5278,2060
19.5306,2075
19.5333,2083
19.5361,2074
19.5389,2078
19.5417,2079
19.5444,2084
19.5472,2090
19.5500,2098
19.5528,2098
19.5556,2098
19.5583,2096
19.5611,2096
19.5639,2106
19.5667,2118
19.5694,2128
19.5722,2126
19.5750,2127
19.5778,2128
19.5806,2138
19.5833,2124
19.5861,2141
19.5889,2156
19.5917,2163
19.5944,2171
19.5972,2178
19.6000,2176
19.6028,2173
19.6056,2178
19.6083,2186
19.6111,2192
19.6139,2219
19.6167,2223
19.6194,2225
19.6222,2226
19.6250,2228
19.6278,2230
19.6306,2307
19.6333,2310
19.6361,2291
19.6389,2282
19.6417,2268
19.6444,2241
19.6472,2212
19.6500,2184
19.6528,2161
19.6556,2144
19.6583,2131
19.6611,2131
19.6639,2127
19.6667,2131
19.6694,2133
19.6722,2128
19.6750,2105
19.6778,2097
19.6806,2076
19.6833,2076
19.6861,2064
19.6889,2069
19.6917,2076
19.6944,2068
19.6972,2067
19.7000,2075
19.7028,2069
19.7056,2070
19.7083,2065
19.7111,2066
19.7139,2068
19.7167,2064
19.7194,2054
19.7222,2056
19.7250,2051
19.7278,2049
19.7306,2049
19.7333,2055
19.7361,2055
19.7389,2084
19.7417,2079
19.7444,2089
19.7472,2087
19.7500,2078
19.7528,2080
19.7556,2078
19.7583,2098
19.7611,2114
19.7639,2116
19.7667,2113
19.7694,2098
19.7722,2097
19.7750,2102
19.7778,2102
19.7806,2109
19.7833,2120
19.7861,2133
19.7889,2145
19.7917,2157
19.7944,2148
19.7972,2142
19.8000,2135
19.8028,2142
19.8056,2132
19.8083,2135
19.8111,2127
19.8139,2127
19.8167,2131
19.8194,2138
19.8222,2142
19.8250,2137
19.8278,2134
19.8306,2120
19.8333,2112
19.8361,2120
19.8389,2126
19.8417,2121
19.8444,2125
19.8472,2118
19.8500,2119
19.8528,2125
19.8556,2117
19.8583,2121
19.8611,2119
19.8639,2122
19.8667,2118
19.8694,2112
19.8722,2116
19.8750,2107
19.8778,2102
19.8806,2094
19.8833,2088
19.8861,2082
19.8889,2076
19.8917,2064
19.8944,2082
19.8972,2093
19.9000,2089
19.9028,2080
19.9056,2091
19.9083,2090
19.9111,2075
19.9139,2061
19.9167,2072
19.9194,2078
19.9222,2076
19.9250,2076
19.9278,2068
19.9306,2069
19.9333,2082
19.9361,2087
19.9389,2100
19.9417,2118
19.9444,2148
19.9472,2173
19.9500,2189
19.9528,2186
19.9556,2171
19.9583,2166
19.9611,2160
19.9639,2168
19.9667,2198
19.9694,2194
19.9722,2201
19.9750,2201
19.9778,2200
19.9806,2182
19.9833,2168
19.9861,2153
19.9889,2148
19.9917,2137
19.9944,2114
19.9972,2088
20.0000,2063
20.0028,2031
20.0056,1978
20.0083,1948
20.0111,1913
20.0139,1893
20.0167,1889
20.0194,1873
20.0222,1871
20.0250,1870
20.0278,1865
20.0306,1865
20.0333,1859
20.0361,1856
20.0389,1869
20.0417,1872
20.0444,1872
20.0472,1876
20.0500,1875
20.0528,1881
20.0556,1884
20.0583,1892
20.0611,1898
20.0639,1903
20.0667,1910
20.0694,1908
20.0722,1916
20.0750,1914
20.0778,1903
20.0806,1911
20.0833,1925
20.0861,1934
20.0889,1944
20.0917,1951
20.0944,1951
20.0972,1956
20.1000,1949
20.1028,1949
20.1056,1971
20.1083,2003
20.1111,2053
20.1139,2079
20.1167,2108
20.1194,2135
20.1222,2166
20.1250,2238
20.1278,2338
20.1306,2460
20.1333,2516
20.1361,2513
20.1389,2462
20.1417,2357
20.1444,2248
20.1472,2112
20.1500,1932
20.1528,1777
20.1556,1721
20.1583,1735
20.1611,1793
20.1639,1845
20.1667,1891
20.1694,1920
20.1722,1931
20.1750,1938
20.1778,1928
20.1806,1911
20.1833,1890
20.1861,1883
20.1889,1873
20.1917,1882
20.1944,1887
20.1972,1905
20.2000,1898
20.2028,1892
20.2056,1902
20.2083,1893
20.2111,1900
20.2139,1904
20.2167,1902
20.2194,1904
20.2222,1907
20.2250,1902
20.2278,1904
20.2306,1909
20.2333,1911
20.2361,1911
20.2389,1906
20.2417,1904
20.2444,1903
20.2472,1902
20.2500,1896
20.2528,1898
20.2556,1896
20.2583,1885
20.2611,1887
20.2639,1889
20.2667,1890
20.2694,1891
20.2722,1901
20.2750,1905
20.2778,1897
20.2806,1889
20.2833,1887
20.2861,1895
20.2889,1885
20.2917,1896
20.2944,1899
20.2972,1906
20.3000,1907
20.3028,1902
20.3056,1895
20.3083,1900
20.3111,1892
20.3139,1903
20.3167,1903
20.3194,1910
20.3222,1913
20.3250,1913
20.3278,1920
20.3306,1920
20.3333,1923
20.3361,1932
20.3389,1945
20.3417,1954
20.3444,2023
20.3472,2020
20.3500,1998
20.3528,1984
20.3556,1953
20.3583,1942
20.3611,1920
20.3639,1904
20.3667,1890
20.3694,1865
20.3722,1847
20.3750,1837
20.3778,1834
20.3806,1813
20.3833,1811
20.3861,1803
20.3889,1795
20.3917,1790
20.3944,1786
20.3972,1788
20.4000,1778
20.4028,1766
20.4056,1766
20.4083,1742
20.4111,1735
20.4139,1736
20.4167,1752
20.4194,1756
20.4222,1758
20.4250,1756
20.4278,1752
20.4306,1757
20.4333,1750
20.4361,1748
20.4389,1741
20.4417,1736
20.4444,1741
20.4472,1741
20.4500,1743
20.4528,1745
20.4556,1739
20.4583,1738
20.4611,1727
20.4639,1731
20.4667,1726
20.4694,1725
20.4722,1734
20.4750,1736
20.4778,1734
20.4806,1728
20.4833,1721
20.4861,1709
20.4889,1718
20.4917,1723
20.4944,1726
20.4972,1733
20.5000,1729
20.5028,1721
20.5056,1719
20.5083,1709
20.5111,1711
20.5139,1712
20.5167,1723
20.5194,1719
20.5222,1722
20.5250,1725
20.5278,1718
20.5306,1714
20.5333,1711
20.5361,1701
20.5389,1706
20.5417,1700
20.5444,1706
20.5472,1702
20.5500,1713
20.5528,1719
20.5556,1726
20.5583,1726
20.5611,1725
20.5639,1730
20.5667,1733
20.5694,1723
20.5722,1724
20.5750,1723
20.5778,1732
20.5806,1728
20.5833,1729
20.5861,1731
20.5889,1744
20.5917,1759
20.5944,1759
20.5972,1749
20.6000,1762
20.6028,1748
20.6056,1749
20.6083,1759
20.6111,1765
20.6139,1778
20.6167,1785
20.6194,1792
20.6222,1799
20.6250,1792
20.6278,1780
20.6306,1784
20.6333,1792
20.6361,1794
20.6389,1802
20.6417,1810
20.6444,1805
20.6472,1800
20.6500,1796
20.6528,1809
20.6556,1820
20.6583,1833
20.6611,1819
20.6639,1825
20.6667,1823
20.6694,1828
20.6722,1839
20.6750,1854
20.6778,1873
20.6806,1883
20.6833,1909
20.6861,1938
20.6889,1945
20.6917,1942
20.6944,1934
20.6972,1925
20.7000,1934
20.7028,1961
20.7056,2000
20.7083,2034
20.7111,2044
20.7139,2047
20.7167,2045
20.7194,2031
20.7222,2018
20.7250,1995
20.7278,1985
20.7306,1979
20.7333,1962
20.7361,1933
20.7389,1896
20.7417,1863
20.7444,1842
20.7472,1814
20.7500,1790
20.7528,1782
20.7556,1771
20.7583,1754
20.7611,1736
20.7639,1734
20.7667,1736
20.7694,1735
20.7722,1728
20.7750,1731
20.7778,1745
20.7806,1744
20.7833,1736
20.7861,1737
20.7889,1734
20.7917,1742
20.7944,1749
20.7972,1761
20.8000,1760
20.8028,1755
20.8056,1751
20.8083,1752
20.8111,1756
20.8139,1760
20.8167,1774
20.8194,1768
20.8222,1756
20.8250,1757
20.8278,1753
20.8306,1739
20.8333,1745
20.8361,1747
20.8389,1747
20.8417,1766
20.8444,1788
20.8472,1823
20.8500,1861
20.8528,1892
20.8556,1919
20.8583,1952
20.8611,2006
20.8639,2082
20.8667,2187
20.8694,2280
20.8722,2326
20.8750,2316
20.8778,2259
20.8806,2169
20.8833,2073
20.8861,1924
20.8889,1716
20.8917,1571
20.8944,1539
20.8972,1580
20.9000,1662
20.9028,1731
20.9056,1784
20.9083,1823
20.9111,1849
20.9139,1833
20.9167,1813
20.9194,1804
20.9222,1792
20.9250,1799
20.9278,1803
20.9306,1807
20.9333,1820
20.9361,1833
20.9389,1838
20.9417,1837
20.9444,1853
20.9472,1862
20.9500,1870
20.9528,1886
20.9556,1888
20.9583,1875
20.9611,1880
20.9639,1870
20.9667,1871
20.9694,1892
20.9722,1906
20.9750,1917
20.9778,1919
20.9806,1933
20.9833,1935
20.9861,1934
20.9889,1933
20.9917,1928
20.9944,1919
20.9972,1929
21.0000,1932
21.0028,1941
21.0056,1952
21.0083,1961
21.0111,1965
21.0139,1970
21.0167,1952
21.0194,1968
21.0222,1972
21.0250,1979
21.0278,1985
21.0306,1989
21.0333,2005
21.0361,2029
21.0389,2040
21.0417,2036
21.0444,2033
21.0472,2029
21.0500,2039
21.0528,2043
21.0556,2048
21.0583,2064
21.0611,2079
21.0639,2089
21.0667,2103
21.0694,2084
21.0722,2073
21.0750,2066
21.0778,2072
21.0806,2076
21.0833,2140
21.0861,2135
21.0889,2110
21.0917,2082
21.0944,2068
21.0972,2035
21.1000,2012
21.1028,1997
21.1056,1981
21.1083,1971
21.1111,1951
21.1139,1945
21.1167,1927
21.1194,1908
21.1222,1870
21.1250,1869
21.1278,1853
21.1306,1865
21.1333,1860
21.1361,1854
21.1389,1845
21.1417,1848
21.1444,1839
21.1472,1841
21.1500,1843
21.1528,1836
21.1556,1845
21.1583,1837
21.1611,1830
21.1639,1827
21.1667,1819
21.1694,1813
21.1722,1819
21.1750,1823
21.1778,1821
21.1806,1811
21.1833,1822
21.1861,1820
21.1889,1822
21.1917,1837
21.1944,1850
21.1972,1863
21.2000,1866
21.2028,1878
21.2056,1877
21.2083,1873
21.2111,1880
21.2139,1883
21.2167,1895
21.2194,1902
21.2222,1897
21.2250,1900
21.2278,1893
21.2306,1895
21.2333,1899
21.2361,1900
21.2389,1896
21.2417,1891
21.2444,1887
21.2472,1885
21.2500,1899
21.2528,1903
21.2556,1912
21.2583,1914
21.2611,1919
21.2639,1918
21.2667,1916
21.2694,1912
21.2722,1912
21.2750,1917
21.2778,1928
21.2806,1929
21.2833,1925
21.2861,1930
21.2889,1935
21.2917,1934
21.2944,1926
21.2972,1918
21.3000,1905
21.3028,1885
21.3056,1881
21.3083,1888
21.3111,1896
21.3139,1899
21.3167,1903
21.3194,1911
21.3222,1913
21.3250,1909
21.3278,1911
21.3306,1903
21.3333,1900
21.3361,1902
21.3389,1895
21.3417,1891
21.3444,1893
21.3472,1911
21.3500,1919
21.3528,1918
21.3556,1911
21.3583,1899
21.3611,1892
21.3639,1887
21.3667,1884
21.3694,1887
21.3722,1890
21.3750,1890
21.3778,1892
21.3806,1875
21.3833,1878
21.3861,1879
21.3889,1872
21.3917,1877
21.3944,1888
21.3972,1886
21.4000,1892
21.4028,1899
21.4056,1890
21.4083,1887
21.4111,1897
21.4139,1903
21.4167,1911
21.4194,1911
21.4222,1931
21.4250,1949
21.4278,1978
21.4306,1996
21.4333,2003
21.4361,1998
21.4389,1993
21.4417,1983
21.4444,1996
21.4472,2026
21.4500,2057
21.4528,2077
21.4556,2098
21.4583,2116
21.4611,2113
21.4639,2100
21.4667,2083
21.4694,2064
21.4722,2040
21.4750,2031
21.4778,2007
21.4806,1996
21.4833,1978
21.4861,1953
21.4889,1922
21.4917,1905
21.4944,1881
21.4972,1871
21.5000,1859
21.5028,1849
21.5056,1851
21.5083,1854
21.5111,1867
21.5139,1870
21.5167,1873
21.5194,1878
21.5222,1870
21.5250,1867
21.5278,1857
21.5306,1858
21.5333,1876
21.5361,1892
21.5389,1902
21.5417,1903
21.5444,1908
21.5472,1899
21.5500,1915
21.5528,1925
21.5556,1933
21.5583,1939
21.5611,1944
21.5639,1961
21.5667,1959
21.5694,1968
21.5722,1977
21.5750,1982
21.5778,1977
21.5806,1969
21.5833,1972
21.5861,1994
21.5889,2037
21.5917,2072
21.5944,2109
21.5972,2154
21.6000,2211
21.6028,2269
21.6056,2358
21.6083,2455
21.6111,2523
21.6139,2536
21.6167,2509
21.6194,2417
21.6222,2296
21.6250,2145
21.6278,1991
21.6306,1867
21.6333,1829
21.6361,1864
21.6389,1924
21.6417,1977
21.6444,2027
21.6472,2077
21.6500,2098
21.6528,2111
21.6556,2096
21.6583,2088
21.6611,2095
21.6639,2085
21.6667,2090
21.6694,2086
21.6722,2078
21.6750,2067
21.6778,2062
21.6806,2067
21.6833,2076
21.6861,2091
21.6889,2106
21.6917,2105
21.6944,2109
21.6972,2101
21.7000,2112
21.7028,2113
21.7056,2114
21.7083,2121
21.7111,2122
21.7139,2136
21.7167,2141
21.7194,2127
21.7222,2125
21.7250,2121
21.7278,2116
21.7306,2111
21.7333,2110
21.7361,2115
21.7389,2126
21.7417,2116
21.7444,2115
21.7472,2111
21.7500,2101
21.7528,2100
21.7556,2105
21.7583,2114
21.7611,2141
21.7639,2161
21.7667,2157
21.7694,2161
21.7722,2158
21.7750,2164
21.7778,2173
21.7806,2178
21.7833,2192
21.7861,2202
21.7889,2202
21.7917,2211
21.7944,2229
21.7972,2239
21.8000,2244
21.8028,2261
21.8056,2268
21.8083,2281
21.8111,2294
21.8139,2318
21.8167,2339
21.8194,2351
21.8222,2435
21.8250,2427
21.8278,2409
21.8306,2383
21.8333,2366
21.8361,2352
21.8389,2321
21.8417,2302
21.8444,2284
21.8472,2280
21.8500,2294
21.8528,2276
21.8556,2252
21.8583,2241
21.8611,2221
21.8639,2206
21.8667,2192
21.8694,2176
21.8722,2177
21.8750,2156
21.8778,2158
21.8806,2152
21.8833,2151
21.8861,2141
21.8889,2127
21.8917,2121
21.8944,2115
21.8972,2103
21.9000,2112
21.9028,2109
21.9056,2120
21.9083,2122
21.9111,2116
21.9139,2106
21.9167,2107
21.9194,2110
21.9222,2107
21.9250,2107
21.9278,2109
21.9306,2106
21.9333,2103
21.9361,2107
21.9389,2103
21.9417,2095
21.9444,2107
21.9472,2105
21.9500,2117
21.9528,2125
21.9556,2113
21.9583,2117
21.9611,2124
21.9639,2129
21.9667,2139
21.9694,2130
21.9722,2124
21.9750,2104
21.9778,2085
21.9806,2081
21.9833,2070
21.9861,2060
21.9889,2063
21.9917,2060
21.9944,2064
21.9972,2071
22.0000,2072
22.0028,2060
22.0056,2061
22.0083,2058
22.0111,2053
22.0139,2064
22.0167,2055
22.0194,2055
22.0222,2050
22.0250,2052
22.0278,2053
22.0306,2049
22.0333,2031
22.0361,2029
22.0389,2027
22.0417,2023
22.0444,2022
22.0472,2014
22.0500,1999
22.0528,2003
22.0556,1994
22.0583,1994
22.0611,1990
22.0639,1989
22.0667,1997
22.0694,2008
22.0722,2020
22.0750,2007
22.0778,2005
22.0806,1996
22.0833,1983
22.0861,1978
22.0889,1979
22.0917,1982
22.0944,1989
22.0972,1987
22.1000,1980
22.1028,1991
22.1056,2004
22.1083,2025
22.1111,2030
22.1139,2022
22.1167,2004
22.1194,1993
22.1222,1987
22.1250,1991
22.1278,2018
22.1306,2057
22.1333,2085
22.1361,2099
22.1389,2105
22.1417,2110
22.1444,2085
22.1472,2053
22.1500,2018
22.1528,2004
22.1556,1981
22.1583,1962
22.1611,1925
22.1639,1901
22.1667,1878
22.1694,1851
22.1722,1819
22.1750,1791
22.1778,1763
22.1806,1759
22.1833,1758
22.1861,1753
22.1889,1737
22.1917,1725
22.1944,1734
22.1972,1740
22.2000,1746
22.2028,1746
22.2056,1741
22.2083,1731
22.2111,1720
22.2139,1731
22.2167,1727
22.2194,1726
22.2222,1720
22.2250,1710
22.2278,1698
22.2306,1695
22.2333,1697
22.2361,1693
22.2389,1693
22.2417,1700
22.2444,1689
22.2472,1696
22.2500,1703
22.2528,1694
22.2556,1702
22.2583,1696
22.2611,1681
22.2639,1693
22.2667,1704
22.2694,1727
22.2722,1749
22.2750,1773
22.2778,1784
22.2806,1797
22.2833,1817
22.2861,1849
22.2889,1900
22.2917,1982
22.2944,2039
22.2972,2072
22.3000,2042
22.3028,1980
22.3056,1871
22.3083,1733
22.3111,1621
22.3139,1550
22.3167,1531
22.3194,1548
22.3222,1600
22.3250,1632
22.3278,1649
22.3306,1659
22.3333,1659
22.3361,1653
22.3389,1637
22.3417,1625
22.3444,1615
22.3472,1607
22.3500,1602
22.3528,1595
22.3556,1598
22.3583,1604
22.3611,1603
22.3639,1596
22.3667,1593
22.3694,1592
22.3722,1590
22.3750,1586
22.3778,1558
22.3806,1523
22.3833,1501
22.3861,1499
22.3889,1491
22.3917,1495
22.3944,1488
22.3972,1488
22.4000,1482
22.4028,1490
22.4056,1489
22.4083,1489
22.4111,1490
22.4139,1490
22.4167,1497
22.4194,1499
22.4222,1483
22.4250,1466
22.4278,1457
22.4306,1451
22.4333,1446
22.4361,1444
22.4389,1444
22.4417,1434
22.4444,1438
22.4472,1445
22.4500,1450
22.4528,1452
22.4556,1454
22.4583,1452
22.4611,1439
22.4639,1426
22.4667,1430
22.4694,1417
22.4722,1404
22.4750,1418
22.4778,1421
22.4806,1432
22.4833,1438
22.4861,1438
22.4889,1452
22.4917,1450
22.4944,1438
22.4972,1440
22.5000,1447
22.5028,1450
22.5056,1544
22.5083,1542
22.5111,1527
22.5139,1513
22.5167,1504
22.5194,1483
22.5222,1471
22.5250,1461
22.5278,1457
22.5306,1452
22.5333,1438
22.5361,1434
22.5389,1422
22.5417,1419
22.5444,1416
22.5472,1416
22.5500,1428
22.5528,1438
22.5556,1445
22.5583,1440
22.5611,1442
22.5639,1441
22.5667,1452
22.5694,1468
22.5722,1485
22.5750,1484
22.5778,1483
22.5806,1485
22.5833,1502
22.5861,1513
22.5889,1516
22.5917,1530
22.5944,1530
22.5972,1544
22.6000,1550
22.6028,1554
22.6056,1560
22.6083,1564
22.6111,1563
22.6139,1571
22.6167,1573
22.6194,1571
22.6222,1569
22.6250,1591
22.6278,1596
22.6306,1598
22.6333,1613
22.6361,1624
22.6389,1621
22.6417,1620
22.6444,1623
22.6472,1637
22.6500,1657
22.6528,1675
22.6556,1685
22.6583,1702
22.6611,1715
22.6639,1731
22.6667,1755
22.6694,1784
22.6722,1785
22.6750,1795
22.6778,1792
22.6806,1803
22.6833,1810
22.6861,1840
22.6889,1858
22.6917,1876
22.6944,1897
22.6972,1907
22.7000,1919
22.7028,1924
22.7056,1925
22.7083,1928
22.7111,1937
22.7139,1951
22.7167,1955
22.7194,1968
22.7222,1976
22.7250,1986
22.7278,1977
22.7306,1977
22.7333,1987
22.7361,2003
22.7389,2029
22.7417,2048
22.7444,2076
22.7472,2105
22.7500,2127
22.7528,2148
22.7556,2147
22.7583,2161
22.7611,2181
22.7639,2190
22.7667,2196
22.7694,2224
22.7722,2246
22.7750,2288
22.7778,2308
22.7806,2321
22.7833,2318
22.7861,2303
22.7889,2292
22.7917,2274
22.7944,2256
22.7972,2238
22.8000,2209
22.8028,2198
22.8056,2178
22.8083,2167
22.8111,2126
22.8139,2132
22.8167,2113
22.8194,2111
22.8222,2113
22.8250,2110
22.8278,2115
22.8306,2103
22.8333,2108
22.8361,2108
22.8389,2094
22.8417,2096
22.8444,2097
22.8472,2102
22.8500,2104
22.8528,2121
22.8556,2124
22.8583,2131
22.8611,2140
22.8639,2135
22.8667,2143
22.8694,2136
22.8722,2131
22.8750,2130
22.8778,2133
22.8806,2127
22.8833,2144
22.8861,2155
22.8889,2149
22.8917,2148
22.8944,2158
22.8972,2160
22.9000,2172
22.9028,2190
22.9056,2189
22.9083,2203
22.9111,2220
22.9139,2252
22.9167,2291
22.9194,2312
22.9222,2333
22.9250,2364
22.9278,2402
22.9306,2476
22.9333,2576
22.9361,2664
22.9389,2693
22.9417,2670
22.9444,2592
22.9472,2485
22.9500,2345
22.9528,2203
22.9556,2094
22.9583,2043
22.9611,2052
22.9639,2115
22.9667,2181
22.9694,2229
22.9722,2256
22.9750,2280
22.9778,2266
22.9806,2249
22.9833,2229
22.9861,2205
22.9889,2199
22.9917,2183
22.9944,2179
22.9972,2168
23.0000,2167
23.0028,2165
23.0056,2168
23.0083,2160
23.0111,2161
23.0139,2166
23.0167,2172
23.0194,2168
23.0222,2178
23.0250,2179
23.0278,2183
23.0306,2188
23.0333,2174
23.0361,2170
23.0389,2173
23.0417,2181
23.0444,2202
23.0472,2202
23.0500,2194
23.0528,2195
23.0556,2195
23.0583,2203
23.0611,2201
23.0639,2212
23.0667,2220
23.0694,2228
23.0722,2226
23.0750,2221
23.0778,2222
23.0806,2223
23.0833,2225
23.0861,2230
23.0889,2233
23.0917,2231
23.0944,2222
23.0972,2231
23.1000,2229
23.1028,2231
23.1056,2228
23.1083,2224
23.1111,2230
23.1139,2232
23.1167,2246
23.1194,2253
23.1222,2263
23.1250,2270
23.1278,2277
23.1306,2287
23.1333,2290
23.1361,2289
23.1389,2290
23.1417,2295
23.1444,2310
23.1472,2363
23.1500,2364
23.1528,2347
23.1556,2331
23.1583,2311
23.1611,2298
23.1639,2271
23.1667,2240
23.1694,2238
23.1722,2222
23.1750,2205
23.1778,2210
23.1806,2211
23.1833,2204
23.1861,2200
23.1889,2185
23.1917,2190
23.1944,2188
23.1972,2185
23.2000,2176
23.2028,2172
23.2056,2169
23.2083,2143
23.2111,2134
23.2139,2135
23.2167,2135
23.2194,2123
23.2222,2125
23.2250,2136
23.2278,2131
23.2306,2126
23.2333,2120
23.2361,2119
23.2389,2120
23.2417,2121
23.2444,2130
23.2472,2124
23.2500,2120
23.2528,2127
23.2556,2123
23.2583,2118
23.2611,2123
23.2639,2115
23.2667,2118
23.2694,2113
23.2722,2116
23.2750,2118
23.2778,2124
23.2806,2120
23.2833,2115
23.2861,2117
23.2889,2118
23.2917,2119
23.2944,2111
23.2972,2111
23.3000,2095
23.3028,2102
23.3056,2106
23.3083,2104
23.3111,2103
23.3139,2098
23.3167,2083
23.3194,2082
23.3222,2074
23.3250,2073
23.3278,2073
23.3306,2073
23.3333,2074
23.3361,2069
23.3389,2069
23.3417,2071
23.3444,2063
23.3472,2058
23.3500,2064
23.3528,2064
23.3556,2062
23.3583,2055
23.3611,2035
23.3639,2029
23.3667,2032
23.3694,2028
23.3722,2032
23.3750,2030
23.3778,2021
23.3806,2019
23.3833,2001
23.3861,2002
23.3889,2007
23.3917,2010
23.3944,2022
23.3972,2027
23.4000,2044
23.4028,2056
23.4056,2069
23.4083,2088
23.4111,2113
23.4139,2140
23.4167,2154
23.4194,2160
23.4222,2137
23.4250,2139
23.4278,2140
23.4306,2142
23.4333,2159
23.4361,2197
23.4389,2219
23.4417,2232
23.4444,2240
23.4472,2231
23.4500,2213
23.4528,2182
23.4556,2157
23.4583,2131
23.4611,2103
23.4639,2074
23.4667,2049
23.4694,2017
23.4722,1975
23.4750,1925
23.4778,1902
23.4806,1881
23.4833,1858
23.4861,1832
23.4889,1821
23.4917,1814
23.4944,1802
23.4972,1795
23.5000,1789
23.5028,1789
23.5056,1779
23.5083,1780
23.5111,1783
23.5139,1771
23.5167,1771
23.5194,1759
23.5222,1765
23.5250,1761
23.5278,1768
23.5306,1758
23.5333,1750
23.5361,1741
23.5389,1746
23.5417,1748
23.5444,1753
23.5472,1762
23.5500,1763
23.5528,1774
23.5556,1779
23.5583,1773
23.5611,1776
23.5639,1774
23.5667,1768
23.5694,1775
23.5722,1780
23.5750,1800
23.5778,1828
23.5806,1866
23.5833,1886
23.5861,1907
23.5889,1948
23.5917,1996
23.5944,2084
23.5972,2199
23.6000,2301
23.6028,2362
23.6056,2364
23.6083,2290
23.6111,2202
23.6139,2109
23.6167,1971
23.6194,1780
23.6222,1612
23.6250,1563
23.6278,1578
23.6306,1625
23.6333,1694
23.6361,1749
23.6389,1792
23.6417,1807
23.6444,1796
23.6472,1767
23.6500,1748
23.6528,1731
23.6556,1717
23.6583,1719
23.6611,1733
23.6639,1742
23.6667,1748
23.6694,1750
23.6722,1754
23.6750,1759
23.6778,1758
23.6806,1760
23.6833,1767
23.6861,1780
23.6889,1785
23.6917,1776
23.6944,1770
23.6972,1765
23.7000,1767
23.7028,1770
23.7056,1772
23.7083,1768
23.7111,1768
23.7139,1772
23.7167,1782
23.7194,1800
23.7222,1798
23.7250,1806
23.7278,1810
23.7306,1815
23.7333,1822
23.7361,1811
23.7389,1812
23.7417,1793
23.7444,1778
23.7472,1772
23.7500,1766
23.7528,1783
23.7556,1787
23.7583,1789
23.7611,1805
23.7639,1818
23.7667,1819
23.7694,1827
23.7722,1834
23.7750,1830
23.7778,1832
23.7806,1836
23.7833,1848
23.7861,1859
23.7889,1873
23.7917,1885
23.7944,1892
23.7972,1889
23.8000,1889
23.8028,1898
23.8056,1906
23.8083,1906
23.8111,1918
23.8139,1946
23.8167,1943
23.8194,1926
23.8222,1908
23.8250,1891
23.8278,1881
23.8306,1860
23.8333,1844
23.8361,1823
23.8389,1810
23.8417,1804
23.8444,1804
23.8472,1788
23.8500,1779
23.8528,1769
23.8556,1770
23.8583,1769
23.8611,1782
23.8639,1776
23.8667,1760
23.8694,1744
23.8722,1733
23.8750,1721
23.8778,1715
23.8806,1716
23.8833,1723
23.8861,1723
23.8889,1724
23.8917,1723
23.8944,1712
23.8972,1712
23.9000,1702
23.9028,1703
23.9056,1696
23.9083,1708
23.9111,1705
23.9139,1704
23.9167,1705
23.9194,1704
23.9222,1703
23.9250,1713
23.9278,1716
23.9306,1707
23.9333,1710
23.9361,1699
23.9389,1707
23.9417,1714
23.9444,1730
23.9472,1722
23.9500,1721
23.9528,1698
23.9556,1693
23.9583,1686
23.9611,1678
23.9639,1682
23.9667,1683
23.9694,1691
23.9722,1690
23.9750,1693
23.9778,1694
23.9806,1699
23.9833,1702
23.9861,1711
23.9889,1717
23.9917,1723
23.9944,1724
23.9972,1727
24.0000,1730
24.0028,1729
24.0056,1736
24.0083,1735
24.0111,1740
24.0139,1742
24.0167,1749
24.0194,1753
24.0222,1752
24.0250,1747
24.0278,1729
24.0306,1725
24.0333,1729
24.0361,1720
24.0389,1726
24.0417,1736
24.0444,1742
24.0472,1748
24.0500,1736
24.0528,1743
24.0556,1744
24.0583,1736
24.0611,1743
24.0639,1748
24.0667,1759
24.0694,1764
24.0722,1767
24.0750,1764
24.0778,1761
24.0806,1758
24.0833,1761
24.0861,1761
24.0889,1771
24.0917,1783
24.0944,1776
24.0972,1777
24.1000,1766
24.1028,1769
24.1056,1773
24.1083,1791
24.1111,1792
24.1139,1803
24.1167,1824
24.1194,1848
24.1222,1878
24.1250,1900
24.1278,1896
24.1306,1895
24.1333,1904
24.1361,1910
24.1389,1932
24.1417,1963
24.1444,1992
24.1472,2001
24.1500,1999
24.1528,2015
24.1556,2007
24.1583,1977
24.1611,1960
24.1639,1935
24.1667,1919
24.1694,1892
24.1722,1864
24.1750,1832
24.1778,1812
24.1806,1774
24.1833,1733
24.1861,1697
24.1889,1677
24.1917,1660
24.1944,1638
24.1972,1614
24.2000,1611
24.2028,1601
24.2056,1599
24.2083,1594
24.2111,1586
24.2139,1588
24.2167,1594
24.2194,1594
24.2222,1598
24.2250,1602
24.2278,1584
24.2306,1585
24.2333,1580
24.2361,1583
24.2389,1598
24.2417,1604
24.2444,1611
24.2472,1611
24.2500,1609
24.2528,1623
24.2556,1630
24.2583,1636
24.2611,1629
24.2639,1615
24.2667,1603
24.2694,1594
24.2722,1589
24.2750,1597
24.2778,1619
24.2806,1651
24.2833,1686
24.2861,1733
24.2889,1763
24.2917,1786
24.2944,1819
24.2972,1873
24.3000,1953
24.3028,2045
24.3056,2170
24.3083,2236
24.3111,2239
24.3139,2193
24.3167,2109
24.3194,2011
24.3222,1874
24.3250,1691
24.3278,1522
24.3306,1461
24.3333,1472
24.3361,1530
24.3389,1599
24.3417,1653
24.3444,1708
24.3472,1728
24.3500,1718
24.3528,1701
24.3556,1688
24.3583,1686
24.3611,1689
24.3639,1690
24.3667,1704
24.3694,1712
24.3722,1720
24.3750,1719
24.3778,1707
24.3806,1699
24.3833,1689
24.3861,1688
24.3889,1698
24.3917,1709
24.3944,1724
24.3972,1733
24.4000,1737
24.4028,1730
24.4056,1737
24.4083,1753
24.4111,1766
24.4139,1771
24.4167,1762
24.4194,1765
24.4222,1764
24.4250,1773
24.4278,1779
24.4306,1788
24.4333,1786
24.4361,1784
24.4389,1796
24.4417,1795
24.4444,1800
24.4472,1800
24.4500,1802
24.4528,1797
24.4556,1798
24.4583,1790
24.4611,1780
24.4639,1779
24.4667,1776
24.4694,1786
24.4722,1791
24.4750,1792
24.4778,1789
24.4806,1805
24.4833,1795
24.4861,1805
24.4889,1809
24.4917,1821
24.4944,1816
24.4972,1827
24.5000,1829
24.5028,1829
24.5056,1846
24.5083,1864
24.5111,1884
24.5139,1899
24.5167,1900
24.5194,2032
24.5222,2026
24.5250,2033
24.5278,2025
24.5306,1997
24.5333,1978
24.5361,1955
24.5389,1936
24.5417,1924
24.5444,1916
24.5472,1913
24.5500,1918
24.5528,1915
24.5556,1900
24.5583,1892
24.5611,1891
24.5639,1881
24.5667,1877
24.5694,1882
24.5722,1867
24.5750,1861
24.5778,1851
24.5806,1851
24.5833,1863
24.5861,1874
24.5889,1872
24.5917,1876
24.5944,1874
24.5972,1871
24.6000,1861
24.6028,1860
24.6056,1871
24.6083,1880
24.6111,1885
24.6139,1897
24.6167,1907
24.6194,1900
24.6222,1907
24.6250,1911
24.6278,1913
24.6306,1917
24.6333,1911
24.6361,1907
24.6389,1914
24.6417,1927
24.6444,1920
24.6472,1917
24.6500,1917
24.6528,1927
24.6556,1928
24.6583,1929
24.6611,1912
24.6639,1917
24.6667,1901
24.6694,1900
24.6722,1904
24.6750,1912
24.6778,1913
24.6806,1921
24.6833,1927
24.6861,1932
24.6889,1934
24.6917,1937
24.6944,1934
24.6972,1927
24.7000,1916
24.7028,1900
24.7056,1908
24.7083,1913
24.7111,1921
24.7139,1933
24.7167,1938
24.7194,1922
24.7222,1908
24.7250,1910
24.7278,1904
24.7306,1897
24.7333,1899
24.7361,1892
24.7389,1890
24.7417,1882
24.7444,1877
24.7472,1883
24.7500,1880
24.7528,1881
24.7556,1867
24.7583,1867
24.7611,1861
24.7639,1870
24.7667,1867
24.7694,1864
24.7722,1845
24.7750,1830
24.7778,1830
24.7806,1819
24.7833,1823
24.7861,1822
24.7889,1826
24.7917,1820
24.7944,1808
24.7972,1806
24.8000,1793
24.8028,1794
24.8056,1804
24.8083,1806
24.8111,1826
24.8139,1829
24.8167,1832
24.8194,1830
24.8222,1823
24.8250,1818
24.8278,1816
24.8306,1810
24.8333,1815
24.8361,1821
24.8389,1824
24.8417,1825
24.8444,1838
24.8472,1856
24.8500,1876
24.8528,1899
24.8556,1931
24.8583,1937
24.8611,1949
24.8639,1938
24.8667,1926
24.8694,1918
24.8722,1926
24.8750,1937
24.8778,1971
24.8806,2005
24.8833,2043
24.8861,2061
24.8889,2075
24.8917,2080
24.8944,2056
24.8972,2042
24.9000,2021
24.9028,2005
24.9056,1999
24.9083,1988
24.9111,1972
24.9139,1958
24.9167,1924
24.9194,1886
24.9222,1851
24.9250,1821
24.9278,1811
24.9306,1800
24.9333,1789
24.9361,1792
24.9389,1794
24.9417,1793
24.9444,1786
24.9472,1784
24.9500,1792
24.9528,1796
24.9556,1802
24.9583,1796
24.9611,1807
24.9639,1805
24.9667,1794
24.9694,1782
24.9722,1775
24.9750,1775
24.9778,1789
24.9806,1800
24.9833,1800
24.9861,1812
24.9889,1827
24.9917,1838
24.9944,1841
24.9972,1847
25.0000,1862
25.0028,1868
25.0056,1871
25.0083,1873
25.0111,1874
25.0139,1873
25.0167,1871
25.0194,1890
25.0222,1917
25.0250,1953
25.0278,1990
25.0306,2010
25.0333,2056
25.0361,2108
25.0389,2182
25.0417,2272
25.0444,2341
25.0472,2363
25.0500,2336
25.0528,2265
25.0556,2146
25.0583,1991
25.0611,1845
25.0639,1758
25.0667,1745
25.0694,1779
25.0722,1852
25.0750,1901
25.0778,1926
25.0806,1952
25.0833,1960
25.0861,1953
25.0889,1941
25.0917,1933
25.0944,1929
25.0972,1936
25.1000,1934
25.1028,1933
25.1056,1925
25.1083,1927
25.1111,1924
25.1139,1930
25.1167,1935
25.1194,1965
25.1222,1970
25.1250,1984
25.1278,1978
25.1306,1962
25.1333,1943
25.1361,1947
25.1389,1934
25.1417,1943
25.1444,1966
25.1472,1974
25.1500,1992
25.1528,1992
25.1556,1989
25.1583,1987
25.1611,1975
25.1639,1980
25.1667,1974
25.1694,1993
25.1722,1992
25.1750,2001
25.1778,2001
25.1806,2000
25.1833,2001
25.1861,2000
25.1889,2008
25.1917,2020
25.1944,2029
25.1972,2040
25.2000,2055
25.2028,2056
25.2056,2053
25.2083,2041
25.2111,2044
25.2139,2045
25.2167,2049
25.2194,2060
25.2222,2063
25.2250,2060
25.2278,2058
25.2306,2061
25.2333,2075
25.2361,2075
25.2389,2084
25.2417,2089
25.2444,2097
25.2472,2101
25.2500,2122
25.2528,2127
25.2556,2143
25.2583,2143
25.2611,2114
25.2639,2101
25.2667,2100
25.2694,2079
25.2722,2054
25.2750,2033
25.2778,2010
25.2806,1984
25.2833,1985
25.2861,1984
25.2889,1978
25.2917,1976
25.2944,1968
25.2972,1968
25.3000,1961
25.3028,1958
25.3056,1960
25.3083,1961
25.3111,1950
25.3139,1953
25.3167,1956
25.3194,1944
25.3222,1945
25.3250,1954
25.3278,1946
25.3306,1939
25.3333,1945
25.3361,1952
25.3389,1958
25.3417,1956
25.3444,1964
25.3472,1975
25.3500,1964
25.3528,1958
25.3556,1949
25.3583,1946
25.3611,1948
25.3639,1956
25.3667,1958
25.3694,1956
25.3722,1971
25.3750,1975
25.3778,1964
25.3806,1956
25.3833,1952
25.3861,1961
25.3889,1960
25.3917,1971
25.3944,1965
25.3972,1971
25.4000,1982
25.4028,1976
25.4056,1970
25.4083,1961
25.4111,1964
25.4139,1957
25.4167,1958
25.4194,1961
25.4222,1958
25.4250,1960
25.4278,1956
25.4306,1949
25.4333,1951
25.4361,1956
25.4389,1956
25.4417,1961
25.4444,1962
25.4472,1959
25.4500,1957
25.4528,1950
25.4556,1950
25.4583,1958
25.4611,1969
25.4639,1974
25.4667,1969
25.4694,1973
25.4722,1971
25.4750,1975
25.4778,1962
25.4806,1969
25.4833,1975
25.4861,1982
25.4889,1980
25.4917,1983
25.4944,1997
25.4972,2004
25.5000,1989
25.5028,1980
25.5056,1967
25.5083,1978
25.5111,1975
25.5139,1973
25.5167,1981
25.5194,1984
25.5222,2003
25.5250,2025
25.5278,2044
25.5306,2075
25.5333,2092
25.5361,2078
25.5389,2081
25.5417,2089
25.5444,2089
25.5472,2081
25.5500,2099
25.5528,2125
25.5556,2134
25.5583,2145
25.5611,2154
25.5639,2154
25.5667,2141
25.5694,2129
25.5722,2118
25.5750,2112
25.5778,2092
25.5806,2076
25.5833,2048
25.5861,2013
25.5889,1988
25.5917,1981
25.5944,1966
25.5972,1938
25.6000,1920
25.6028,1909
25.6056,1898
25.6083,1880
25.6111,1878
25.6139,1878
25.6167,1867
25.6194,1863
25.6222,1865
25.6250,1884
25.6278,1894
25.6306,1898
25.6333,1896
25.6361,1886
25.6389,1889
25.6417,1899
25.6444,1906
25.6472,1914
25.6500,1910
25.6528,1908
25.6556,1898
25.6583,1896
25.6611,1900
25.6639,1895
25.6667,1895
25.6694,1891
25.6722,1894
25.6750,1892
25.6778,1886
25.6806,1882
25.6833,1894
25.6861,1900
25.6889,1914
25.6917,1939
25.6944,1977
25.6972,2003
25.7000,2013
25.7028,2020
25.7056,2041
25.7083,2078
25.7111,2154
25.7139,2234
25.7167,2315
25.7194,2341
25.7222,2320
25.7250,2265
25.7278,2166
25.7306,2023
25.7333,1892
25.7361,1824
25.7389,1803
25.7417,1833
25.7444,1871
25.7472,1893
25.7500,1909
25.7528,1939
25.7556,1943
25.7583,1951
25.7611,1962
25.7639,1950
25.7667,1950
25.7694,1952
25.7722,1961
25.7750,1955
25.7778,1959
25.7806,1963
25.7833,1949
25.7861,1946
25.7889,1950
25.7917,1959
25.7944,1981
25.7972,1982
25.8000,1994
25.8028,2003
25.8056,1990
25.8083,1987
25.8111,1978
25.8139,1967
25.8167,1980
25.8194,1988
25.8222,1996
25.8250,2011
25.8278,2017
25.8306,2024
25.8333,2035
25.8361,2034
25.8389,2039
25.8417,2030
25.8444,2039
25.8472,2039
25.8500,2038
25.8528,2038
25.8556,2039
25.8583,2039
25.8611,2048
25.8639,2044
25.8667,2051
25.8694,2053
25.8722,2055
25.8750,2053
25.8778,2050
25.8806,2042
25.8833,2044
25.8861,2057
25.8889,2059
25.8917,2065
25.8944,2067
25.8972,2088
25.9000,2089
25.9028,2110
25.9056,2128
25.9083,2138
25.9111,2137
25.9139,2151
25.9167,2164
25.9194,2183
25.9222,2190
25.9250,2206
25.9278,2231
25.9306,2231
25.9333,2202
25.9361,2190
25.9389,2163
25.9417,2146
25.9444,2127
25.9472,2100
25.9500,2092
25.9528,2078
25.9556,2067
25.9583,2048
25.9611,2042
25.9639,2028
25.9667,2019
25.9694,2016
25.9722,2005
25.9750,1999
25.9778,1997
25.9806,1993
25.9833,1988
25.9861,1976
25.9889,1977
25.9917,1976
25.9944,1982
25.9972,1985
26.0000,1976
26.0028,1974
26.0056,1987
26.0083,1971
26.0111,1970
26.0139,1971
26.0167,1978
26.0194,1981
26.0222,1974
26.0250,1972
26.0278,1954
26.0306,1951
26.0333,1937
26.0361,1934
26.0389,1947
26.0417,1948
26.0444,1962
26.0472,1974
26.0500,1975
26.0528,1978
26.0556,1968
26.0583,1958
26.0611,1949
26.0639,1950
26.0667,1936
26.0694,1935
26.0722,1931
26.0750,1943
26.0778,1946
26.0806,1952
26.0833,1950
26.0861,1945
26.0889,1942
26.0917,1935
26.0944,1932
26.0972,1936
26.1000,1928
26.1028,1928
26.1056,1934
26.1083,1943
26.1111,1946
26.1139,1948
26.1167,1938
26.1194,1935
26.1222,1924
26.1250,1921
26.1278,1926
26.1306,1918
26.1333,1916
26.1361,1914
26.1389,1917
26.1417,1919
26.1444,1918
26.1472,1910
26.1500,1901
26.1528,1898
26.1556,1889
26.1583,1871
26.1611,1877
26.1639,1894
26.1667,1907
26.1694,1936
26.1722,1963
26.1750,1997
26.1778,2012
26.1806,1999
26.1833,1991
26.1861,1982
26.1889,1978
26.1917,1989
26.1944,2021
26.1972,2053
26.2000,2092
26.2028,2102
26.2056,2099
26.2083,2088
26.2111,2069
26.2139,2044
26.2167,2025
26.2194,2020
26.2222,2014
26.2250,1988
26.2278,1965
26.2306,1940
26.2333,1906
26.2361,1879
26.2389,1845
26.2417,1831
26.2444,1807
26.2472,1798
26.2500,1779
26.2528,1761
26.2556,1758
26.2583,1759
26.2611,1761
26.2639,1777
26.2667,1791
26.2694,1794
26.2722,1795
26.2750,1778
26.2778,1767
26.2806,1761
26.2833,1773
26.2861,1781
26.2889,1784
26.2917,1800
26.2944,1794
26.2972,1804
26.3000,1805
26.3028,1806
26.3056,1794
26.3083,1798
26.3111,1798
26.3139,1804
26.3167,1808
26.3194,1808
26.3222,1801
26.3250,1803
26.3278,1813
26.3306,1810
26.3333,1826
26.3361,1856
26.3389,1890
26.3417,1924
26.3444,1940
26.3472,1950
26.3500,1992
26.3528,2042
26.3556,2105
26.3583,2197
26.3611,2292
26.3639,2333
26.3667,2314
26.3694,2245
26.3722,2140
26.3750,2019
26.3778,1879
26.3806,1723
26.3833,1610
26.3861,1586
26.3889,1629
26.3917,1693
26.3944,1767
26.3972,1807
26.4000,1841
26.4028,1849
26.4056,1835
26.4083,1822
26.4111,1823
26.4139,1808
26.4167,1815
26.4194,1807
