Tiempo(s),Valor_ADC
0.0028,1756
0.0056,1762
0.0083,1750
0.0111,1752
0.0139,1760
0.0167,1754
0.0194,1526
0.0222,1527
0.0250,1521
0.0278,1508
0.0306,1484
0.0333,1460
0.0361,1445
0.0389,1450
0.0417,1469
0.0444,1466
0.0472,1463
0.0500,1445
0.0528,1420
0.0556,1408
0.0583,1410
0.0611,1408
0.0639,1411
0.0667,1414
0.0694,1427
0.0722,1443
0.0750,1453
0.0778,1461
0.0806,1464
0.0833,1473
0.0861,1473
0.0889,1463
0.0917,1458
0.0944,1455
0.0972,1459
0.1000,1467
0.1028,1481
0.1056,1478
0.1083,1480
0.1111,1486
0.1139,1501
0.1167,1493
0.1194,1496
0.1222,1493
0.1250,1502
0.1278,1512
0.1306,1532
0.1333,1532
0.1361,1530
0.1389,1547
0.1417,1560
0.1444,1566
0.1472,1581
0.1500,1602
0.1528,1623
0.1556,1659
0.1583,1692
0.1611,1720
0.1639,1732
0.1667,1739
0.1694,1756
0.1722,1772
0.1750,1789
0.1778,1799
0.1806,1807
0.1833,1823
0.1861,1849
0.1889,1860
0.1917,1844
0.1944,1815
0.1972,1780
0.2000,1751
0.2028,1718
0.2056,1685
0.2083,1662
0.2111,1649
0.2139,1640
0.2167,1628
0.2194,1603
0.2222,1595
0.2250,1590
0.2278,1588
0.2306,1604
0.2333,1603
0.2361,1607
0.2389,1621
0.2417,1618
0.2444,1613
0.2472,1614
0.2500,1606
0.2528,1609
0.2556,1603
0.2583,1619
0.2611,1625
0.2639,1622
0.2667,1627
0.2694,1614
0.2722,1600
0.2750,1589
0.2778,1571
0.2806,1546
0.2833,1508
0.2861,1481
0.2889,1462
0.2917,1457
0.2944,1478
0.2972,1545
0.3000,1691
0.3028,1882
0.3056,2091
0.3083,2346
0.3111,2628
0.3139,2879
0.3167,3078
0.3194,3202
0.3222,3202
0.3250,3020
0.3278,2648
0.3306,2192
0.3333,1769
0.3361,1482
0.3389,1361
0.3417,1380
0.3444,1444
0.3472,1532
0.3500,1600
0.3528,1634
0.3556,1653
0.3583,1642
0.3611,1630
0.3639,1607
0.3667,1606
0.3694,1602
0.3722,1613
0.3750,1621
0.3778,1627
0.3806,1631
0.3833,1634
0.3861,1641
0.3889,1650
0.3917,1651
0.3944,1680
0.3972,1703
0.4000,1710
0.4028,1711
0.4056,1703
0.4083,1698
0.4111,1687
0.4139,1673
0.4167,1662
0.4194,1654
0.4222,1650
0.4250,1669
0.4278,1688
0.4306,1712
0.4333,1726
0.4361,1735
0.4389,1721
0.4417,1699
0.4444,1703
0.4472,1699
0.4500,1710
0.4528,1705
0.4556,1706
0.4583,1713
0.4611,1718
0.4639,1718
0.4667,1717
0.4694,1722
0.4722,1715
0.4750,1731
0.4778,1736
0.4806,1743
0.4833,1737
0.4861,1739
0.4889,1753
0.4917,1764
0.4944,1765
0.4972,1764
0.5000,1759
0.5028,1753
0.5056,1749
0.5083,1755
0.5111,1761
0.5139,1768
0.5167,1762
0.5194,1767
0.5222,1759
0.5250,1750
0.5278,1672
0.5306,1677
0.5333,1678
0.5361,1670
0.5389,1677
0.5417,1675
0.5444,1675
0.5472,1679
0.5500,1688
0.5528,1696
0.5556,1700
0.5583,1692
0.5611,1694
0.5639,1692
0.5667,1696
0.5694,1711
0.5722,1718
0.5750,1714
0.5778,1713
0.5806,1707
0.5833,1704
0.5861,1700
0.5889,1697
0.5917,1711
0.5944,1722
0.5972,1731
0.6000,1735
0.6028,1720
0.6056,1727
0.6083,1723
0.6111,1724
0.6139,1724
0.6167,1730
0.6194,1719
0.6222,1725
0.6250,1729
0.6278,1743
0.6306,1772
0.6333,1800
0.6361,1813
0.6389,1826
0.6417,1822
0.6444,1825
0.6472,1837
0.6500,1846
0.6528,1874
0.6556,1882
0.6583,1885
0.6611,1878
0.6639,1878
0.6667,1870
0.6694,1877
0.6722,1880
0.6750,1864
0.6778,1824
0.6806,1797
0.6833,1761
0.6861,1734
0.6889,1705
0.6917,1685
0.6944,1658
0.6972,1641
0.7000,1631
0.7028,1613
0.7056,1600
0.7083,1602
0.7111,1577
0.7139,1546
0.7167,1557
0.7194,1560
0.7222,1569
0.7250,1573
0.7278,1576
0.7306,1571
0.7333,1584
0.7361,1590
0.7389,1595
0.7417,1599
0.7444,1610
0.7472,1612
0.7500,1607
0.7528,1596
0.7556,1587
0.7583,1578
0.7611,1570
0.7639,1532
0.7667,1482
0.7694,1449
0.7722,1428
0.7750,1434
0.7778,1471
0.7806,1593
0.7833,1769
0.7861,1987
0.7889,2218
0.7917,2503
0.7944,2793
0.7972,3013
0.8000,3172
0.8028,3237
0.8056,3138
0.8083,2831
0.8111,2380
0.8139,1929
0.8167,1577
0.8194,1388
0.8222,1342
0.8250,1383
0.8278,1469
0.8306,1550
0.8333,1620
0.8361,1632
0.8389,1618
0.8417,1588
0.8444,1559
0.8472,1546
0.8500,1550
0.8528,1565
0.8556,1582
0.8583,1599
0.8611,1592
0.8639,1583
0.8667,1579
0.8694,1578
0.8722,1586
0.8750,1598
0.8778,1605
0.8806,1612
0.8833,1610
0.8861,1614
0.8889,1631
0.8917,1623
0.8944,1641
0.8972,1627
0.9000,1632
0.9028,1629
0.9056,1623
0.9083,1635
0.9111,1642
0.9139,1648
0.9167,1665
0.9194,1668
0.9222,1673
0.9250,1654
0.9278,1654
0.9306,1667
0.9333,1690
0.9361,1706
0.9389,1722
0.9417,1709
0.9444,1697
0.9472,1700
0.9500,1705
0.9528,1708
0.9556,1714
0.9583,1720
0.9611,1721
0.9639,1723
0.9667,1733
0.9694,1747
0.9722,1754
0.9750,1773
0.9778,1772
0.9806,1774
0.9833,1757
0.9861,1760
0.9889,1767
0.9917,1785
0.9944,1788
0.9972,1789
1.0000,1799
1.0028,1813
1.0056,1810
1.0083,1672
1.0111,1682
1.0139,1699
1.0167,1702
1.0194,1686
1.0222,1676
1.0250,1667
1.0278,1672
1.0306,1692
1.0333,1706
1.0361,1717
1.0389,1711
1.0417,1695
1.0444,1687
1.0472,1685
1.0500,1680
1.0528,1704
1.0556,1708
1.0583,1719
1.0611,1728
1.0639,1739
1.0667,1752
1.0694,1764
1.0722,1765
1.0750,1763
1.0778,1765
1.0806,1748
1.0833,1739
1.0861,1745
1.0889,1754
1.0917,1772
1.0944,1785
1.0972,1800
1.1000,1821
1.1028,1836
1.1056,1854
1.1083,1859
1.1111,1856
1.1139,1860
1.1167,1863
1.1194,1872
1.1222,1887
1.1250,1898
1.1278,1923
1.1306,1942
1.1333,1955
1.1361,1963
1.1389,1941
1.1417,1915
1.1444,1884
1.1472,1867
1.1500,1839
1.1528,1829
1.1556,1804
1.1583,1777
1.1611,1747
1.1639,1728
1.1667,1699
1.1694,1682
1.1722,1665
1.1750,1643
1.1778,1647
1.1806,1636
1.1833,1647
1.1861,1652
1.1889,1637
1.1917,1627
1.1944,1623
1.1972,1619
1.2000,1618
1.2028,1627
1.2056,1629
1.2083,1630
1.2111,1636
1.2139,1640
1.2167,1634
1.2194,1620
1.2222,1611
1.2250,1581
1.2278,1560
1.2306,1527
1.2333,1485
1.2361,1444
1.2389,1418
1.2417,1418
1.2444,1431
1.2472,1518
1.2500,1691
1.2528,1885
1.2556,2103
1.2583,2347
1.2611,2642
1.2639,2925
1.2667,3153
1.2694,3272
1.2722,3239
1.2750,3014
1.2778,2621
1.2806,2146
1.2833,1715
1.2861,1452
1.2889,1348
1.2917,1352
1.2944,1419
1.2972,1510
1.3000,1576
1.3028,1629
1.3056,1632
1.3083,1620
1.3111,1592
1.3139,1579
1.3167,1582
1.3194,1588
1.3222,1601
1.3250,1599
1.3278,1601
1.3306,1605
1.3333,1608
1.3361,1622
1.3389,1624
1.3417,1643
1.3444,1648
1.3472,1647
1.3500,1640
1.3528,1637
1.3556,1632
1.3583,1623
1.3611,1622
1.3639,1635
1.3667,1640
1.3694,1638
1.3722,1640
1.3750,1653
1.3778,1666
1.3806,1666
1.3833,1662
1.3861,1657
1.3889,1666
1.3917,1652
1.3944,1661
1.3972,1678
1.4000,1681
1.4028,1677
1.4056,1666
1.4083,1674
1.4111,1675
1.4139,1689
1.4167,1701
1.4194,1711
1.4222,1704
1.4250,1714
1.4278,1719
1.4306,1739
1.4333,1757
1.4361,1769
1.4389,1766
1.4417,1766
1.4444,1767
1.4472,1774
1.4500,1789
1.4528,1788
1.4556,1794
1.4583,1797
1.4611,1797
1.4639,1798
1.4667,1807
1.4694,1803
1.4722,1809
1.4750,1798
1.4778,1685
1.4806,1701
1.4833,1708
1.4861,1713
1.4889,1726
1.4917,1726
1.4944,1717
1.4972,1718
1.5000,1726
1.5028,1733
1.5056,1730
1.5083,1726
1.5111,1729
1.5139,1717
1.5167,1717
1.5194,1714
1.5222,1722
1.5250,1732
1.5278,1732
1.5306,1717
1.5333,1732
1.5361,1743
1.5389,1759
1.5417,1782
1.5444,1789
1.5472,1789
1.5500,1789
1.5528,1800
1.5556,1823
1.5583,1843
1.5611,1874
1.5639,1884
1.5667,1889
1.5694,1896
1.5722,1916
1.5750,1924
1.5778,1953
1.5806,1956
1.5833,1968
1.5861,1967
1.5889,1973
1.5917,1989
1.5944,1990
1.5972,1985
1.6000,1964
1.6028,1926
1.6056,1900
1.6083,1865
1.6111,1847
1.6139,1819
1.6167,1801
1.6194,1789
1.6222,1764
1.6250,1730
1.6278,1695
1.6306,1678
1.6333,1668
1.6361,1657
1.6389,1662
1.6417,1664
1.6444,1683
1.6472,1681
1.6500,1673
1.6528,1662
1.6556,1663
1.6583,1666
1.6611,1676
1.6639,1673
1.6667,1655
1.6694,1647
1.6722,1648
1.6750,1641
1.6778,1650
1.6806,1650
1.6833,1644
1.6861,1617
1.6889,1560
1.6917,1496
1.6944,1441
1.6972,1430
1.7000,1442
1.7028,1485
1.7056,1582
1.7083,1742
1.7111,1941
1.7139,2160
1.7167,2416
1.7194,2712
1.7222,2988
1.7250,3186
1.7278,3266
1.7306,3173
1.7333,2917
1.7361,2514
1.7389,2044
1.7417,1649
1.7444,1419
1.7472,1352
1.7500,1394
1.7528,1492
1.7556,1593
1.7583,1654
1.7611,1676
1.7639,1665
1.7667,1634
1.7694,1603
1.7722,1597
1.7750,1595
1.7778,1592
1.7806,1603
1.7833,1610
1.7861,1605
1.7889,1603
1.7917,1609
1.7944,1617
1.7972,1629
1.8000,1650
1.8028,1655
1.8056,1658
1.8083,1646
1.8111,1622
1.8139,1632
1.8167,1637
1.8194,1647
1.8222,1650
1.8250,1651
1.8278,1647
1.8306,1643
1.8333,1650
1.8361,1661
1.8389,1665
1.8417,1673
1.8444,1662
1.8472,1657
1.8500,1660
1.8528,1652
1.8556,1655
1.8583,1668
1.8611,1677
1.8639,1676
1.8667,1676
1.8694,1672
1.8722,1682
1.8750,1693
1.8778,1705
1.8806,1725
1.8833,1716
1.8861,1720
1.8889,1714
1.8917,1721
1.8944,1722
1.8972,1735
1.9000,1747
1.9028,1750
1.9056,1735
1.9083,1742
1.9111,1753
1.9139,1761
1.9167,1782
1.9194,1785
1.9222,1772
1.9250,1770
1.9278,1769
1.9306,1754
1.9333,1659
1.9361,1657
1.9389,1669
1.9417,1674
1.9444,1671
1.9472,1671
1.9500,1662
1.9528,1667
1.9556,1678
1.9583,1689
1.9611,1701
1.9639,1704
1.9667,1701
1.9694,1695
1.9722,1690
1.9750,1707
1.9778,1729
1.9806,1743
1.9833,1743
1.9861,1724
1.9889,1709
1.9917,1714
1.9944,1718
1.9972,1708
2.0000,1705
2.0028,1704
2.0056,1705
2.0083,1706
2.0111,1703
2.0139,1712
2.0167,1722
2.0194,1734
2.0222,1739
2.0250,1755
2.0278,1769
2.0306,1786
2.0333,1804
2.0361,1811
2.0389,1831
2.0417,1832
2.0444,1847
2.0472,1857
2.0500,1872
2.0528,1882
2.0556,1891
2.0583,1895
2.0611,1907
2.0639,1913
2.0667,1911
2.0694,1895
2.0722,1872
2.0750,1841
2.0778,1818
2.0806,1768
2.0833,1732
2.0861,1705
2.0889,1686
2.0917,1670
2.0944,1654
2.0972,1628
2.1000,1613
2.1028,1599
2.1056,1585
2.1083,1572
2.1111,1581
2.1139,1585
2.1167,1589
2.1194,1590
2.1222,1590
2.1250,1577
2.1278,1564
2.1306,1546
2.1333,1531
2.1361,1531
2.1389,1529
2.1417,1543
2.1444,1550
2.1472,1541
2.1500,1537
2.1528,1527
2.1556,1510
2.1583,1477
2.1611,1425
2.1639,1364
2.1667,1313
2.1694,1303
2.1722,1326
2.1750,1382
2.1778,1516
2.1806,1707
2.1833,1906
2.1861,2125
2.1889,2394
2.1917,2686
2.1944,2917
2.1972,3070
2.2000,3090
2.2028,2929
2.2056,2624
2.2083,2181
2.2111,1726
2.2139,1404
2.2167,1241
2.2194,1239
2.2222,1300
2.2250,1405
2.2278,1507
2.2306,1559
2.2333,1561
2.2361,1536
2.2389,1498
2.2417,1488
2.2444,1479
2.2472,1482
2.2500,1511
2.2528,1530
2.2556,1536
2.2583,1525
2.2611,1524
2.2639,1521
2.2667,1526
2.2694,1542
2.2722,1540
2.2750,1556
2.2778,1539
2.2806,1522
2.2833,1524
2.2861,1526
2.2889,1547
2.2917,1540
2.2944,1545
2.2972,1546
2.3000,1537
2.3028,1526
2.3056,1523
2.3083,1532
2.3111,1543
2.3139,1540
2.3167,1550
2.3194,1549
2.3222,1544
2.3250,1545
2.3278,1564
2.3306,1571
2.3333,1590
2.3361,1604
2.3389,1606
2.3417,1600
2.3444,1592
2.3472,1598
2.3500,1619
2.3528,1631
2.3556,1632
2.3583,1636
2.3611,1649
2.3639,1662
2.3667,1674
2.3694,1671
2.3722,1682
2.3750,1682
2.3778,1701
2.3806,1714
2.3833,1719
2.3861,1724
2.3889,1731
2.3917,1731
2.3944,1737
2.3972,1733
2.4000,1729
2.4028,1739
2.4056,1644
2.4083,1642
2.4111,1657
2.4139,1651
2.4167,1639
2.4194,1614
2.4222,1615
2.4250,1616
2.4278,1636
2.4306,1656
2.4333,1650
2.4361,1646
2.4389,1645
2.4417,1628
2.4444,1627
2.4472,1633
2.4500,1645
2.4528,1654
2.4556,1654
2.4583,1665
2.4611,1675
2.4639,1677
2.4667,1689
2.4694,1678
2.4722,1692
2.4750,1693
2.4778,1694
2.4806,1692
2.4833,1701
2.4861,1701
2.4889,1702
2.4917,1702
2.4944,1717
2.4972,1722
2.5000,1733
2.5028,1763
2.5056,1781
2.5083,1810
2.5111,1835
2.5139,1840
2.5167,1858
2.5194,1875
2.5222,1899
2.5250,1929
2.5278,1951
2.5306,1968
2.5333,1974
2.5361,1971
2.5389,1977
2.5417,1984
2.5444,1985
2.5472,1981
2.5500,1947
2.5528,1902
2.5556,1854
2.5583,1804
2.5611,1768
2.5639,1749
2.5667,1725
2.5694,1707
2.5722,1699
2.5750,1671
2.5778,1660
2.5806,1645
2.5833,1630
2.5861,1632
2.5889,1620
2.5917,1627
2.5944,1619
2.5972,1608
2.6000,1608
2.6028,1593
2.6056,1582
2.6083,1588
2.6111,1587
2.6139,1599
2.6167,1601
2.6194,1604
2.6222,1602
2.6250,1605
2.6278,1608
2.6306,1593
2.6333,1570
2.6361,1528
2.6389,1469
2.6417,1419
2.6444,1383
2.6472,1375
2.6500,1393
2.6528,1481
2.6556,1628
2.6583,1827
2.6611,2031
2.6639,2278
2.6667,2575
2.6694,2826
2.6722,3034
2.6750,3119
2.6778,3073
2.6806,2856
2.6833,2475
2.6861,2026
2.6889,1624
2.6917,1378
2.6944,1291
2.6972,1315
2.7000,1398
2.7028,1487
2.7056,1561
2.7083,1595
2.7111,1597
2.7139,1566
2.7167,1531
2.7194,1517
2.7222,1501
2.7250,1506
2.7278,1520
2.7306,1528
2.7333,1529
2.7361,1536
2.7389,1537
2.7417,1534
2.7444,1546
2.7472,1554
2.7500,1560
2.7528,1546
2.7556,1537
2.7583,1522
2.7611,1532
2.7639,1560
2.7667,1577
2.7694,1589
2.7722,1592
2.7750,1584
2.7778,1582
2.7806,1572
2.7833,1575
2.7861,1579
2.7889,1591
2.7917,1594
2.7944,1604
2.7972,1603
2.8000,1615
2.8028,1615
2.8056,1627
2.8083,1642
2.8111,1655
2.8139,1643
2.8167,1645
2.8194,1642
2.8222,1649
2.8250,1666
2.8278,1664
2.8306,1682
2.8333,1680
2.8361,1676
2.8389,1686
2.8417,1687
2.8444,1700
2.8472,1709
2.8500,1716
2.8528,1708
2.8556,1712
2.8583,1705
2.8611,1717
2.8639,1731
2.8667,1739
2.8694,1745
2.8722,1746
2.8750,1740
2.8778,1716
2.8806,1714
2.8833,1612
2.8861,1616
2.8889,1626
2.8917,1620
2.8944,1622
2.8972,1628
2.9000,1624
2.9028,1623
2.9056,1625
2.9083,1619
2.9111,1631
2.9139,1636
2.9167,1655
2.9194,1678
2.9222,1678
2.9250,1681
2.9278,1686
2.9306,1689
2.9333,1686
2.9361,1688
2.9389,1680
2.9417,1685
2.9444,1696
2.9472,1707
2.9500,1718
2.9528,1725
2.9556,1726
2.9583,1721
2.9611,1730
2.9639,1746
2.9667,1778
2.9694,1801
2.9722,1818
2.9750,1825
2.9778,1815
2.9806,1831
2.9833,1839
2.9861,1854
2.9889,1868
2.9917,1891
2.9944,1897
2.9972,1907
3.0000,1923
3.0028,1930
3.0056,1932
3.0083,1938
3.0111,1920
3.0139,1891
3.0167,1846
3.0194,1787
3.0222,1747
3.0250,1724
3.0278,1699
3.0306,1686
3.0333,1670
3.0361,1638
3.0389,1614
3.0417,1597
3.0444,1589
3.0472,1591
3.0500,1596
3.0528,1603
3.0556,1606
3.0583,1598
3.0611,1598
3.0639,1577
3.0667,1578
3.0694,1563
3.0722,1564
3.0750,1563
3.0778,1562
3.0806,1572
3.0833,1584
3.0861,1586
3.0889,1586
3.0917,1575
3.0944,1567
3.0972,1547
3.1000,1514
3.1028,1481
3.1056,1441
3.1083,1408
3.1111,1398
3.1139,1412
3.1167,1472
3.1194,1605
3.1222,1795
3.1250,1986
3.1278,2228
3.1306,2514
3.1333,2797
3.1361,3011
3.1389,3169
3.1417,3203
3.1444,3047
3.1472,2706
3.1500,2246
3.1528,1817
3.1556,1512
3.1583,1367
3.1611,1350
3.1639,1411
3.1667,1500
3.1694,1594
3.1722,1658
3.1750,1688
3.1778,1676
3.1806,1654
3.1833,1629
3.1861,1619
3.1889,1616
3.1917,1618
3.1944,1620
3.1972,1618
3.2000,1621
3.2028,1633
3.2056,1644
3.2083,1653
3.2111,1653
3.2139,1667
3.2167,1662
3.2194,1662
3.2222,1660
3.2250,1672
3.2278,1680
3.2306,1697
3.2333,1705
3.2361,1710
3.2389,1703
3.2417,1699
3.2444,1717
3.2472,1734
3.2500,1756
3.2528,1767
3.2556,1775
3.2583,1779
3.2611,1766
3.2639,1759
3.2667,1746
3.2694,1755
3.2722,1762
3.2750,1761
3.2778,1763
3.2806,1765
3.2833,1755
3.2861,1760
3.2889,1755
3.2917,1765
3.2944,1771
3.2972,1781
3.3000,1783
3.3028,1782
3.3056,1788
3.3083,1795
3.3111,1804
3.3139,1804
3.3167,1806
3.3194,1794
3.3222,1787
3.3250,1795
3.3278,1792
3.3306,1786
3.3333,1798
3.3361,1819
3.3389,1834
3.3417,1848
3.3444,1846
3.3472,1749
3.3500,1753
3.3528,1756
3.3556,1760
3.3583,1761
3.3611,1758
3.3639,1750
3.3667,1764
3.3694,1778
3.3722,1785
3.3750,1778
3.3778,1768
3.3806,1756
3.3833,1747
3.3861,1763
3.3889,1775
3.3917,1785
3.3944,1779
3.3972,1778
3.4000,1778
3.4028,1788
3.4056,1800
3.4083,1809
3.4111,1810
3.4139,1821
3.4167,1806
3.4194,1796
3.4222,1787
3.4250,1790
3.4278,1837
3.4306,1884
3.4333,1923
3.4361,1943
3.4389,1935
3.4417,1932
3.4444,1942
3.4472,1968
3.4500,1992
3.4528,2004
3.4556,2014
3.4583,2008
3.4611,2011
3.4639,2019
3.4667,2032
3.4694,2030
3.4722,2014
3.4750,1984
3.4778,1943
3.4806,1885
3.4833,1849
3.4861,1808
3.4889,1782
3.4917,1771
3.4944,1747
3.4972,1719
3.5000,1690
3.5028,1667
3.5056,1647
3.5083,1637
3.5111,1640
3.5139,1640
3.5167,1648
3.5194,1655
3.5222,1655
3.5250,1656
3.5278,1656
3.5306,1660
3.5333,1644
3.5361,1653
3.5389,1652
3.5417,1666
3.5444,1679
3.5472,1677
3.5500,1669
3.5528,1658
3.5556,1644
3.5583,1612
3.5611,1574
3.5639,1512
3.5667,1456
3.5694,1423
3.5722,1424
3.5750,1440
3.5778,1508
3.5806,1644
3.5833,1842
3.5861,2037
3.5889,2264
3.5917,2561
3.5944,2854
3.5972,3083
3.6000,3207
3.6028,3177
3.6056,2976
3.6083,2609
3.6111,2152
3.6139,1740
3.6167,1483
3.6194,1381
3.6222,1392
3.6250,1473
3.6278,1579
3.6306,1657
3.6333,1700
3.6361,1691
3.6389,1655
3.6417,1624
3.6444,1599
3.6472,1592
3.6500,1594
3.6528,1610
3.6556,1620
3.6583,1611
3.6611,1596
3.6639,1589
3.6667,1606
3.6694,1620
3.6722,1635
3.6750,1635
3.6778,1627
3.6806,1611
3.6833,1607
3.6861,1616
3.6889,1626
3.6917,1630
3.6944,1636
3.6972,1633
3.7000,1625
3.7028,1618
3.7056,1632
3.7083,1646
3.7111,1656
3.7139,1658
3.7167,1663
3.7194,1670
3.7222,1661
3.7250,1667
3.7278,1670
3.7306,1676
3.7333,1690
3.7361,1704
3.7389,1699
3.7417,1691
3.7444,1699
3.7472,1700
3.7500,1717
3.7528,1732
3.7556,1735
3.7583,1735
3.7611,1729
3.7639,1739
3.7667,1736
3.7694,1738
3.7722,1744
3.7750,1752
3.7778,1756
3.7806,1755
3.7833,1749
3.7861,1750
3.7889,1757
3.7917,1754
3.7944,1757
3.7972,1775
3.8000,1771
3.8028,1776
3.8056,1781
3.8083,1682
3.8111,1684
3.8139,1701
3.8167,1694
3.8194,1684
3.8222,1686
3.8250,1687
3.8278,1706
3.8306,1721
3.8333,1717
3.8361,1718
3.8389,1715
3.8417,1718
3.8444,1722
3.8472,1725
3.8500,1726
3.8528,1721
3.8556,1720
3.8583,1722
3.8611,1714
3.8639,1737
3.8667,1749
3.8694,1753
3.8722,1749
3.8750,1752
3.8778,1736
3.8806,1733
3.8833,1735
3.8861,1746
3.8889,1768
3.8917,1798
3.8944,1823
3.8972,1852
3.9000,1856
3.9028,1860
3.9056,1856
3.9083,1863
3.9111,1879
3.9139,1899
3.9167,1919
3.9194,1925
3.9222,1926
3.9250,1926
3.9278,1929
3.9306,1939
3.9333,1946
3.9361,1945
3.9389,1916
3.9417,1883
3.9444,1841
3.9472,1814
3.9500,1774
3.9528,1749
3.9556,1721
3.9583,1703
3.9611,1678
3.9639,1653
3.9667,1638
3.9694,1641
3.9722,1653
3.9750,1644
3.9778,1638
3.9806,1632
3.9833,1628
3.9861,1631
3.9889,1640
3.9917,1643
3.9944,1649
3.9972,1645
4.0000,1626
4.0028,1620
4.0056,1615
4.0083,1618
4.0111,1619
4.0139,1617
4.0167,1610
4.0194,1602
4.0222,1582
4.0250,1555
4.0278,1512
4.0306,1464
4.0333,1425
4.0361,1416
4.0389,1416
4.0417,1483
4.0444,1626
4.0472,1799
4.0500,1997
4.0528,2238
4.0556,2538
4.0583,2805
4.0611,3008
4.0639,3111
4.0667,3057
4.0694,2857
4.0722,2490
4.0750,2043
4.0778,1649
4.0806,1398
4.0833,1318
4.0861,1347
4.0889,1435
4.0917,1524
4.0944,1592
4.0972,1629
4.1000,1618
4.1028,1592
4.1056,1578
4.1083,1553
4.1111,1553
4.1139,1570
4.1167,1581
4.1194,1593
4.1222,1598
4.1250,1592
4.1278,1591
4.1306,1588
4.1333,1599
4.1361,1600
4.1389,1608
4.1417,1602
4.1444,1596
4.1472,1612
4.1500,1614
4.1528,1625
4.1556,1641
4.1583,1650
4.1611,1642
4.1639,1632
4.1667,1627
4.1694,1626
4.1722,1630
4.1750,1645
4.1778,1660
4.1806,1652
4.1833,1641
4.1861,1632
4.1889,1631
4.1917,1648
4.1944,1656
4.1972,1671
4.2000,1670
4.2028,1676
4.2056,1683
4.2083,1695
4.2111,1699
4.2139,1698
4.2167,1704
4.2194,1711
4.2222,1719
4.2250,1717
4.2278,1725
4.2306,1718
4.2333,1720
4.2361,1727
4.2389,1736
4.2417,1742
4.2444,1747
4.2472,1745
4.2500,1748
4.2528,1742
4.2556,1739
4.2583,1759
4.2611,1755
4.2639,1759
4.2667,1764
4.2694,1769
4.2722,1708
4.2750,1724
4.2778,1728
4.2806,1732
4.2833,1725
4.2861,1702
4.2889,1700
4.2917,1699
4.2944,1701
4.2972,1706
4.3000,1712
4.3028,1717
4.3056,1708
4.3083,1718
4.3111,1718
4.3139,1731
4.3167,1734
4.3194,1743
4.3222,1742
4.3250,1734
4.3278,1723
4.3306,1736
4.3333,1742
4.3361,1745
4.3389,1743
4.3417,1759
4.3444,1779
4.3472,1819
4.3500,1846
4.3528,1870
4.3556,1874
4.3583,1883
4.3611,1884
4.3639,1896
4.3667,1911
4.3694,1934
4.3722,1963
4.3750,1990
4.3778,1996
4.3806,2009
4.3833,1992
4.3861,1984
4.3889,1978
4.3917,1956
4.3944,1934
4.3972,1895
4.4000,1843
4.4028,1804
4.4056,1779
4.4083,1746
4.4111,1733
4.4139,1715
4.4167,1705
4.4194,1675
4.4222,1654
4.4250,1655
4.4278,1644
4.4306,1636
4.4333,1640
4.4361,1657
4.4389,1654
4.4417,1654
4.4444,1640
4.4472,1633
4.4500,1637
4.4528,1636
4.4556,1635
4.4583,1637
4.4611,1639
4.4639,1632
4.4667,1646
4.4694,1629
4.4722,1628
4.4750,1609
4.4778,1563
4.4806,1512
4.4833,1450
4.4861,1401
4.4889,1379
4.4917,1398
4.4944,1445
4.4972,1562
4.5000,1724
4.5028,1907
4.5056,2117
4.5083,2391
4.5111,2682
4.5139,2927
4.5167,3101
4.5194,3139
4.5222,2993
4.5250,2691
4.5278,2258
4.5306,1841
4.5333,1527
4.5361,1376
4.5389,1360
4.5417,1423
4.5444,1532
4.5472,1605
4.5500,1660
4.5528,1662
4.5556,1644
4.5583,1622
4.5611,1604
4.5639,1608
4.5667,1629
4.5694,1644
4.5722,1644
4.5750,1631
4.5778,1620
4.5806,1614
4.5833,1622
4.5861,1625
4.5889,1626
4.5917,1627
4.5944,1623
4.5972,1622
4.6000,1609
4.6028,1603
4.6056,1613
4.6083,1632
4.6111,1646
4.6139,1648
4.6167,1642
4.6194,1622
4.6222,1615
4.6250,1623
4.6278,1638
4.6306,1654
4.6333,1661
4.6361,1683
4.6389,1676
4.6417,1666
4.6444,1663
4.6472,1676
4.6500,1684
4.6528,1700
4.6556,1700
4.6583,1703
4.6611,1696
4.6639,1697
4.6667,1714
4.6694,1723
4.6722,1732
4.6750,1723
4.6778,1726
4.6806,1723
4.6833,1724
4.6861,1726
4.6889,1738
4.6917,1743
4.6944,1746
4.6972,1746
4.7000,1730
4.7028,1732
4.7056,1752
4.7083,1776
4.7111,1778
4.7139,1784
4.7167,1780
4.7194,1778
4.7222,1768
4.7250,1672
4.7278,1676
4.7306,1706
4.7333,1718
4.7361,1707
4.7389,1689
4.7417,1681
4.7444,1672
4.7472,1679
4.7500,1680
4.7528,1689
4.7556,1701
4.7583,1695
4.7611,1696
4.7639,1692
4.7667,1705
4.7694,1704
4.7722,1706
4.7750,1708
4.7778,1719
4.7806,1710
4.7833,1714
4.7861,1722
4.7889,1739
4.7917,1750
4.7944,1754
4.7972,1749
4.8000,1763
4.8028,1779
4.8056,1811
4.8083,1829
4.8111,1848
4.8139,1864
4.8167,1876
4.8194,1886
4.8222,1901
4.8250,1920
4.8278,1909
4.8306,1910
4.8333,1926
4.8361,1924
4.8389,1914
4.8417,1917
4.8444,1904
4.8472,1876
4.8500,1838
4.8528,1784
4.8556,1748
4.8583,1720
4.8611,1700
4.8639,1675
4.8667,1651
4.8694,1636
4.8722,1612
4.8750,1604
4.8778,1595
4.8806,1582
4.8833,1580
4.8861,1585
4.8889,1597
4.8917,1597
4.8944,1606
4.8972,1593
4.9000,1594
4.9028,1584
4.9056,1578
4.9083,1584
4.9111,1598
4.9139,1599
4.9167,1589
4.9194,1582
4.9222,1580
4.9250,1584
4.9278,1553
4.9306,1511
4.9333,1451
4.9361,1386
4.9389,1327
4.9417,1318
4.9444,1342
4.9472,1414
4.9500,1563
4.9528,1741
4.9556,1944
4.9583,2186
4.9611,2477
4.9639,2754
4.9667,2960
4.9694,3086
4.9722,3060
4.9750,2853
4.9778,2473
4.9806,2013
4.9833,1615
4.9861,1363
4.9889,1282
4.9917,1308
4.9944,1374
4.9972,1475
5.0000,1552
5.0028,1581
5.0056,1576
5.0083,1555
5.0111,1546
5.0139,1541
5.0167,1537
5.0194,1546
5.0222,1556
5.0250,1569
5.0278,1558
5.0306,1548
5.0333,1540
5.0361,1550
5.0389,1565
5.0417,1574
5.0444,1583
5.0472,1596
5.0500,1594
5.0528,1593
5.0556,1586
5.0583,1593
5.0611,1600
5.0639,1610
5.0667,1591
5.0694,1581
5.0722,1563
5.0750,1579
5.0778,1588
5.0806,1603
5.0833,1603
5.0861,1604
5.0889,1605
5.0917,1617
5.0944,1611
5.0972,1619
5.1000,1615
5.1028,1625
5.1056,1622
5.1083,1625
5.1111,1611
5.1139,1603
5.1167,1614
5.1194,1618
5.1222,1638
5.1250,1641
5.1278,1637
5.1306,1641
5.1333,1644
5.1361,1642
5.1389,1646
5.1417,1648
5.1444,1660
5.1472,1665
5.1500,1667
5.1528,1678
5.1556,1688
5.1583,1691
5.1611,1701
5.1639,1709
5.1667,1699
5.1694,1699
5.1722,1698
5.1750,1688
5.1778,1632
5.1806,1634
5.1833,1652
5.1861,1654
5.1889,1644
5.1917,1634
5.1944,1637
5.1972,1637
5.2000,1643
5.2028,1656
5.2056,1670
5.2083,1656
5.2111,1650
5.2139,1651
5.2167,1650
5.2194,1644
5.2222,1642
5.2250,1651
5.2278,1650
5.2306,1667
5.2333,1672
5.2361,1685
5.2389,1692
5.2417,1710
5.2444,1731
5.2472,1752
5.2500,1753
5.2528,1754
5.2556,1765
5.2583,1777
5.2611,1800
5.2639,1825
5.2667,1841
5.2694,1852
5.2722,1862
5.2750,1871
5.2778,1882
5.2806,1886
5.2833,1897
5.2861,1890
5.2889,1887
5.2917,1861
5.2944,1830
5.2972,1789
5.3000,1758
5.3028,1721
5.3056,1686
5.3083,1658
5.3111,1635
5.3139,1602
5.3167,1568
5.3194,1556
5.3222,1540
5.3250,1534
5.3278,1524
5.3306,1519
5.3333,1520
5.3361,1514
5.3389,1523
5.3417,1542
5.3444,1536
5.3472,1527
5.3500,1519
5.3528,1504
5.3556,1489
5.3583,1501
5.3611,1503
5.3639,1501
5.3667,1498
5.3694,1508
5.3722,1500
5.3750,1476
5.3778,1428
5.3806,1370
5.3833,1315
5.3861,1267
5.3889,1241
5.3917,1253
5.3944,1309
5.3972,1423
5.4000,1608
5.4028,1807
5.4056,2032
5.4083,2302
5.4111,2577
5.4139,2821
5.4167,2980
5.4194,3028
5.4222,2875
5.4250,2574
5.4278,2138
5.4306,1709
5.4333,1398
5.4361,1256
5.4389,1246
5.4417,1309
5.4444,1398
5.4472,1493
5.4500,1543
5.4528,1553
5.4556,1532
5.4583,1518
5.4611,1512
5.4639,1513
5.4667,1526
5.4694,1532
5.4722,1535
5.4750,1536
5.4778,1543
5.4806,1538
5.4833,1556
5.4861,1557
5.4889,1569
5.4917,1580
5.4944,1589
5.4972,1599
5.5000,1592
5.5028,1582
5.5056,1569
5.5083,1569
5.5111,1590
5.5139,1598
5.5167,1598
5.5194,1594
5.5222,1583
5.5250,1595
5.5278,1600
5.5306,1605
5.5333,1604
5.5361,1599
5.5389,1588
5.5417,1579
5.5444,1573
5.5472,1577
5.5500,1582
5.5528,1600
5.5556,1615
5.5583,1612
5.5611,1613
5.5639,1608
5.5667,1608
5.5694,1614
5.5722,1620
5.5750,1619
5.5778,1617
5.5806,1614
5.5833,1616
5.5861,1603
5.5889,1611
5.5917,1622
5.5944,1630
5.5972,1650
5.6000,1642
5.6028,1641
5.6056,1639
5.6083,1646
5.6111,1642
5.6139,1640
5.6167,1633
5.6194,1626
5.6222,1631
5.6250,1563
5.6278,1572
5.6306,1576
5.6333,1580
5.6361,1581
5.6389,1570
5.6417,1557
5.6444,1553
5.6472,1550
5.6500,1560
5.6528,1577
5.6556,1571
5.6583,1590
5.6611,1602
5.6639,1612
5.6667,1608
5.6694,1610
5.6722,1602
5.6750,1596
5.6778,1599
5.6806,1600
5.6833,1602
5.6861,1604
5.6889,1608
5.6917,1622
5.6944,1618
5.6972,1614
5.7000,1618
5.7028,1642
5.7056,1662
5.7083,1696
5.7111,1710
5.7139,1728
5.7167,1729
5.7194,1739
5.7222,1739
5.7250,1759
5.7278,1780
5.7306,1808
5.7333,1831
5.7361,1835
5.7389,1848
5.7417,1845
5.7444,1845
5.7472,1853
5.7500,1844
5.7528,1831
5.7556,1787
5.7583,1746
5.7611,1707
5.7639,1658
5.7667,1635
5.7694,1630
5.7722,1622
5.7750,1611
5.7778,1592
5.7806,1583
5.7833,1568
5.7861,1556
5.7889,1554
5.7917,1548
5.7944,1556
5.7972,1562
5.8000,1561
5.8028,1565
5.8056,1562
5.8083,1559
5.8111,1550
5.8139,1546
5.8167,1535
5.8194,1539
5.8222,1546
5.8250,1547
5.8278,1554
5.8306,1553
5.8333,1541
5.8361,1523
5.8389,1484
5.8417,1433
5.8444,1388
5.8472,1358
5.8500,1334
5.8528,1341
5.8556,1409
5.8583,1545
5.8611,1744
5.8639,1978
5.8667,2254
5.8694,2573
5.8722,2855
5.8750,3080
5.8778,3214
5.8806,3221
5.8833,3011
5.8861,2622
5.8889,2143
5.8917,1722
5.8944,1434
5.8972,1299
5.9000,1293
5.9028,1365
5.9056,1439
5.9083,1520
5.9111,1585
5.9139,1601
5.9167,1588
5.9194,1566
5.9222,1559
5.9250,1558
5.9278,1575
5.9306,1568
5.9333,1569
5.9361,1559
5.9389,1554
5.9417,1555
5.9444,1563
5.9472,1570
5.9500,1576
5.9528,1575
5.9556,1587
5.9583,1580
5.9611,1573
5.9639,1573
5.9667,1582
5.9694,1598
5.9722,1606
5.9750,1608
5.9778,1603
5.9806,1611
5.9833,1613
5.9861,1614
5.9889,1619
5.9917,1624
5.9944,1613
5.9972,1613
6.0000,1620
6.0028,1624
6.0056,1634
6.0083,1645
6.0111,1659
6.0139,1661
6.0167,1656
6.0194,1645
6.0222,1632
6.0250,1630
6.0278,1650
6.0306,1657
6.0333,1662
6.0361,1661
6.0389,1646
6.0417,1641
6.0444,1655
6.0472,1689
6.0500,1704
6.0528,1708
6.0556,1703
6.0583,1701
6.0611,1705
6.0639,1709
6.0667,1714
6.0694,1726
6.0722,1745
6.0750,1758
6.0778,1754
6.0806,1750
6.0833,1754
6.0861,1712
6.0889,1716
6.0917,1716
6.0944,1714
6.0972,1702
6.1000,1702
6.1028,1703
6.1056,1710
6.1083,1731
6.1111,1735
6.1139,1725
6.1167,1717
6.1194,1717
6.1222,1722
6.1250,1713
6.1278,1710
6.1306,1708
6.1333,1706
6.1361,1706
6.1389,1711
6.1417,1711
6.1444,1701
6.1472,1708
6.1500,1713
6.1528,1730
6.1556,1745
6.1583,1754
6.1611,1761
6.1639,1776
6.1667,1799
6.1694,1827
6.1722,1854
6.1750,1868
6.1778,1875
6.1806,1879
6.1833,1882
6.1861,1900
6.1889,1926
6.1917,1954
6.1944,1955
6.1972,1928
6.2000,1890
6.2028,1855
6.2056,1838
6.2083,1828
6.2111,1810
6.2139,1791
6.2167,1761
6.2194,1742
6.2222,1716
6.2250,1698
6.2278,1686
6.2306,1673
6.2333,1650
6.2361,1649
6.2389,1645
6.2417,1628
6.2444,1625
6.2472,1624
6.2500,1617
6.2528,1615
6.2556,1614
6.2583,1615
6.2611,1630
6.2639,1637
6.2667,1648
6.2694,1644
6.2722,1627
6.2750,1609
6.2778,1608
6.2806,1600
6.2833,1598
6.2861,1557
6.2889,1517
6.2917,1458
6.2944,1408
6.2972,1370
6.3000,1366
6.3028,1401
6.3056,1519
6.3083,1714
6.3111,1936
6.3139,2170
6.3167,2472
6.3194,2781
6.3222,3041
6.3250,3231
6.3278,3302
6.3306,3180
6.3333,2855
6.3361,2401
6.3389,1931
6.3417,1570
6.3444,1404
6.3472,1353
6.3500,1401
6.3528,1488
6.3556,1570
6.3583,1634
6.3611,1659
6.3639,1645
6.3667,1615
6.3694,1590
6.3722,1585
6.3750,1594
6.3778,1616
6.3806,1638
6.3833,1641
6.3861,1637
6.3889,1653
6.3917,1669
6.3944,1673
6.3972,1677
6.4000,1678
6.4028,1687
6.4056,1677
6.4083,1674
6.4111,1679
6.4139,1684
6.4167,1696
6.4194,1698
6.4222,1696
6.4250,1690
6.4278,1692
6.4306,1689
6.4333,1680
6.4361,1692
6.4389,1708
6.4417,1723
6.4444,1716
6.4472,1711
6.4500,1709
6.4528,1723
6.4556,1739
6.4583,1742
6.4611,1735
6.4639,1742
6.4667,1726
6.4694,1734
6.4722,1737
6.4750,1732
6.4778,1743
6.4806,1744
6.4833,1757
6.4861,1773
6.4889,1775
6.4917,1772
6.4944,1771
6.4972,1777
6.5000,1784
6.5028,1791
6.5056,1795
6.5083,1790
6.5111,1790
6.5139,1789
6.5167,1803
6.5194,1811
6.5222,1828
6.5250,1829
6.5278,1828
6.5306,1828
6.5333,1741
6.5361,1744
6.5389,1746
6.5417,1751
6.5444,1751
6.5472,1750
6.5500,1746
6.5528,1749
6.5556,1753
6.5583,1765
6.5611,1761
6.5639,1759
6.5667,1757
6.5694,1751
6.5722,1754
6.5750,1769
6.5778,1788
6.5806,1800
6.5833,1796
6.5861,1798
6.5889,1785
6.5917,1784
6.5944,1796
6.5972,1814
6.6000,1820
6.6028,1822
6.6056,1834
6.6083,1847
6.6111,1863
6.6139,1881
6.6167,1908
6.6194,1914
6.6222,1928
6.6250,1946
6.6278,1966
6.6306,1984
6.6333,2000
6.6361,2006
6.6389,2015
6.6417,2023
6.6444,2027
6.6472,2038
6.6500,2028
6.6528,2018
6.6556,2003
6.6583,1978
6.6611,1933
6.6639,1878
6.6667,1851
6.6694,1818
6.6722,1800
6.6750,1786
6.6778,1767
6.6806,1743
6.6833,1717
6.6861,1706
6.6889,1686
6.6917,1672
6.6944,1674
6.6972,1667
6.7000,1680
6.7028,1679
6.7056,1670
6.7083,1657
6.7111,1662
6.7139,1669
6.7167,1679
6.7194,1687
6.7222,1688
6.7250,1674
6.7278,1679
6.7306,1675
6.7333,1668
6.7361,1655
6.7389,1622
6.7417,1588
6.7444,1538
6.7472,1477
6.7500,1434
6.7528,1407
6.7556,1427
6.7583,1487
6.7611,1628
6.7639,1825
6.7667,2032
6.7694,2262
6.7722,2562
6.7750,2865
6.7778,3108
6.7806,3256
6.7833,3251
6.7861,3071
6.7889,2731
6.7917,2282
6.7944,1846
6.7972,1539
6.8000,1417
6.8028,1402
6.8056,1468
6.8083,1557
6.8111,1628
6.8139,1679
6.8167,1683
6.8194,1659
6.8222,1635
6.8250,1613
6.8278,1615
6.8306,1613
6.8333,1629
6.8361,1637
6.8389,1637
6.8417,1634
6.8444,1625
6.8472,1629
6.8500,1624
6.8528,1620
6.8556,1639
6.8583,1642
6.8611,1656
6.8639,1656
6.8667,1653
6.8694,1661
6.8722,1664
6.8750,1675
6.8778,1667
6.8806,1660
6.8833,1651
6.8861,1658
6.8889,1669
6.8917,1680
6.8944,1686
6.8972,1684
6.9000,1669
6.9028,1666
6.9056,1664
6.9083,1668
6.9111,1681
6.9139,1689
6.9167,1700
6.9194,1706
6.9222,1704
6.9250,1693
6.9278,1701
6.9306,1716
6.9333,1730
6.9361,1739
6.9389,1743
6.9417,1735
6.9444,1731
6.9472,1729
6.9500,1738
6.9528,1743
6.9556,1751
6.9583,1765
6.9611,1763
6.9639,1784
6.9667,1792
6.9694,1806
6.9722,1806
6.9750,1806
6.9778,1806
6.9806,1796
6.9833,1796
6.9861,1790
6.9889,1851
6.9917,1858
6.9944,1877
6.9972,1869
7.0000,1868
7.0028,1858
7.0056,1852
7.0083,1857
7.0111,1858
7.0139,1862
7.0167,1853
7.0194,1846
7.0222,1839
7.0250,1825
7.0278,1825
7.0306,1828
7.0333,1827
7.0361,1832
7.0389,1814
7.0417,1808
7.0444,1810
7.0472,1805
7.0500,1801
7.0528,1795
7.0556,1811
7.0583,1817
7.0611,1812
7.0639,1807
7.0667,1795
7.0694,1789
7.0722,1781
7.0750,1784
7.0778,1816
7.0806,1856
7.0833,1888
7.0861,1911
7.0889,1928
7.0917,1940
7.0944,1948
7.0972,1957
7.1000,1979
7.1028,1989
7.1056,1999
7.1083,2007
7.1111,2017
7.1139,2014
7.1167,2018
7.1194,2006
7.1222,1996
7.1250,1965
7.1278,1925
7.1306,1893
7.1333,1841
7.1361,1794
7.1389,1742
7.1417,1715
7.1444,1686
7.1472,1662
7.1500,1643
7.1528,1637
7.1556,1634
7.1583,1625
7.1611,1626
7.1639,1638
7.1667,1646
7.1694,1654
7.1722,1661
7.1750,1665
7.1778,1669
7.1806,1672
7.1833,1666
7.1861,1677
7.1889,1672
7.1917,1680
7.1944,1683
7.1972,1685
7.2000,1681
7.2028,1658
7.2056,1637
7.2083,1630
7.2111,1594
7.2139,1558
7.2167,1505
7.2194,1454
7.2222,1435
7.2250,1437
7.2278,1473
7.2306,1581
7.2333,1752
7.2361,1943
7.2389,2160
7.2417,2417
7.2444,2715
7.2472,2980
7.2500,3163
7.2528,3226
7.2556,3104
7.2583,2816
7.2611,2395
7.2639,1928
7.2667,1559
7.2694,1352
7.2722,1302
7.2750,1352
7.2778,1443
7.2806,1515
7.2833,1569
7.2861,1566
7.2889,1539
7.2917,1495
7.2944,1464
7.2972,1456
7.3000,1460
7.3028,1461
7.3056,1464
7.3083,1463
7.3111,1467
7.3139,1463
7.3167,1453
7.3194,1451
7.3222,1447
7.3250,1453
7.3278,1450
7.3306,1446
7.3333,1452
7.3361,1457
7.3389,1465
7.3417,1472
7.3444,1479
7.3472,1485
7.3500,1467
7.3528,1454
7.3556,1461
7.3583,1467
7.3611,1477
7.3639,1472
7.3667,1462
7.3694,1458
7.3722,1450
7.3750,1467
7.3778,1466
7.3806,1474
7.3833,1492
7.3861,1511
7.3889,1496
7.3917,1488
7.3944,1477
7.3972,1485
7.4000,1498
7.4028,1508
7.4056,1526
7.4083,1538
7.4111,1554
7.4139,1552
7.4167,1554
7.4194,1550
7.4222,1565
7.4250,1579
7.4278,1598
7.4306,1601
7.4333,1610
7.4361,1612
7.4389,1606
7.4417,1610
7.4444,1611
7.4472,1625
7.4500,1636
7.4528,1629
7.4556,1642
7.4583,1568
7.4611,1571
7.4639,1584
7.4667,1586
7.4694,1578
7.4722,1582
7.4750,1582
7.4778,1595
7.4806,1607
7.4833,1603
7.4861,1604
7.4889,1600
7.4917,1598
7.4944,1602
7.4972,1596
7.5000,1604
7.5028,1613
7.5056,1627
7.5083,1637
7.5111,1642
7.5139,1647
7.5167,1653
7.5194,1657
7.5222,1664
7.5250,1666
7.5278,1664
7.5306,1659
7.5333,1667
7.5361,1669
7.5389,1680
7.5417,1691
7.5444,1696
7.5472,1701
7.5500,1697
7.5528,1709
7.5556,1694
7.5583,1687
7.5611,1685
7.5639,1685
7.5667,1681
7.5694,1680
7.5722,1700
7.5750,1709
7.5778,1726
7.5806,1751
7.5833,1770
7.5861,1787
7.5889,1790
7.5917,1792
7.5944,1793
7.5972,1816
7.6000,1845
7.6028,1874
7.6056,1896
7.6083,1916
7.6111,1920
7.6139,1926
7.6167,1931
7.6194,1953
7.6222,1942
7.6250,1923
7.6278,1876
7.6306,1830
7.6333,1790
7.6361,1753
7.6389,1739
7.6417,1716
7.6444,1711
7.6472,1679
7.6500,1651
7.6528,1612
7.6556,1588
7.6583,1585
7.6611,1597
7.6639,1612
7.6667,1609
7.6694,1614
7.6722,1611
7.6750,1609
7.6778,1614
7.6806,1609
7.6833,1606
7.6861,1604
7.6889,1609
7.6917,1614
7.6944,1615
7.6972,1614
7.7000,1609
7.7028,1607
7.7056,1596
7.7083,1573
7.7111,1544
7.7139,1491
7.7167,1441
7.7194,1410
7.7222,1406
7.7250,1438
7.7278,1509
7.7306,1640
7.7333,1808
7.7361,2004
7.7389,2222
7.7417,2501
7.7444,2767
7.7472,2971
7.7500,3087
7.7528,3069
7.7556,2911
7.7583,2593
7.7611,2163
7.7639,1744
7.7667,1447
7.7694,1305
7.7722,1309
7.7750,1376
7.7778,1479
7.7806,1560
7.7833,1611
7.7861,1616
7.7889,1596
7.7917,1566
7.7944,1557
7.7972,1551
7.8000,1542
7.8028,1558
7.8056,1555
7.8083,1560
7.8111,1560
7.8139,1563
7.8167,1571
7.8194,1587
7.8222,1606
7.8250,1623
7.8278,1607
7.8306,1594
7.8333,1577
7.8361,1572
7.8389,1579
7.8417,1591
7.8444,1617
7.8472,1624
7.8500,1617
7.8528,1607
7.8556,1606
7.8583,1614
7.8611,1616
7.8639,1616
7.8667,1619
7.8694,1619
7.8722,1606
7.8750,1608
7.8778,1625
7.8806,1644
7.8833,1658
7.8861,1681
7.8889,1676
7.8917,1677
7.8944,1660
7.8972,1661
7.9000,1659
7.9028,1676
7.9056,1685
7.9083,1687
7.9111,1686
7.9139,1703
7.9167,1711
7.9194,1725
7.9222,1722
7.9250,1721
7.9278,1735
7.9306,1730
7.9333,1738
7.9361,1742
7.9389,1759
7.9417,1771
7.9444,1778
7.9472,1780
7.9500,1771
7.9528,1766
7.9556,1754
7.9583,1669
7.9611,1673
7.9639,1675
7.9667,1667
7.9694,1654
7.9722,1647
7.9750,1649
7.9778,1662
7.9806,1666
7.9833,1683
7.9861,1694
7.9889,1691
7.9917,1693
7.9944,1684
7.9972,1684
8.0000,1668
8.0028,1680
8.0056,1686
8.0083,1701
8.0111,1711
8.0139,1727
8.0167,1721
8.0194,1718
8.0222,1714
8.0250,1728
8.0278,1733
8.0306,1724
8.0333,1713
8.0361,1708
8.0389,1709
8.0417,1720
8.0444,1731
8.0472,1740
8.0500,1742
8.0528,1742
8.0556,1727
8.0583,1717
8.0611,1717
8.0639,1707
8.0667,1703
8.0694,1708
8.0722,1702
8.0750,1705
8.0778,1708
8.0806,1710
8.0833,1716
8.0861,1721
8.0889,1720
8.0917,1715
8.0944,1724
8.0972,1735
8.1000,1752
8.1028,1772
8.1056,1795
8.1083,1808
8.1111,1813
8.1139,1818
8.1167,1843
8.1194,1875
8.1222,1892
8.1250,1909
8.1278,1916
8.1306,1918
8.1333,1932
8.1361,1936
8.1389,1944
8.1417,1950
8.1444,1963
8.1472,1946
8.1500,1922
8.1528,1887
8.1556,1840
8.1583,1815
8.1611,1788
8.1639,1769
8.1667,1763
8.1694,1740
8.1722,1717
8.1750,1700
8.1778,1685
8.1806,1681
8.1833,1678
8.1861,1681
8.1889,1673
8.1917,1659
8.1944,1653
8.1972,1649
8.2000,1649
8.2028,1644
8.2056,1629
8.2083,1626
8.2111,1645
8.2139,1661
8.2167,1664
8.2194,1661
8.2222,1654
8.2250,1655
8.2278,1652
8.2306,1642
8.2333,1616
8.2361,1582
8.2389,1534
8.2417,1500
8.2444,1486
8.2472,1479
8.2500,1533
8.2528,1630
8.2556,1795
8.2583,1970
8.2611,2163
8.2639,2411
8.2667,2690
8.2694,2930
8.2722,3121
8.2750,3228
8.2778,3190
8.2806,2949
8.2833,2538
8.2861,2077
8.2889,1687
8.2917,1443
8.2944,1362
8.2972,1392
8.3000,1474
8.3028,1561
8.3056,1637
8.3083,1681
8.3111,1695
8.3139,1683
8.3167,1656
8.3194,1635
8.3222,1632
8.3250,1626
8.3278,1632
8.3306,1644
8.3333,1648
8.3361,1650
8.3389,1647
8.3417,1659
8.3444,1680
8.3472,1684
8.3500,1687
8.3528,1676
8.3556,1671
8.3583,1675
8.3611,1687
8.3639,1703
8.3667,1700
8.3694,1704
8.3722,1696
8.3750,1695
8.3778,1689
8.3806,1706
8.3833,1705
8.3861,1708
8.3889,1714
8.3917,1719
8.3944,1710
8.3972,1706
8.4000,1712
8.4028,1719
8.4056,1731
8.4083,1730
8.4111,1745
8.4139,1755
8.4167,1755
8.4194,1771
8.4222,1770
8.4250,1772
8.4278,1784
8.4306,1780
8.4333,1775
8.4361,1779
8.4389,1778
8.4417,1796
8.4444,1816
8.4472,1829
8.4500,1832
8.4528,1830
8.4556,1827
8.4583,1810
8.4611,1819
8.4639,1838
8.4667,1841
8.4694,1851
8.4722,1852
8.4750,1845
8.4778,1847
8.4806,1856
8.4833,1777
8.4861,1777
8.4889,1779
8.4917,1776
8.4944,1760
8.4972,1753
8.5000,1750
8.5028,1754
8.5056,1761
8.5083,1773
8.5111,1776
8.5139,1774
8.5167,1785
8.5194,1801
8.5222,1802
8.5250,1794
8.5278,1779
8.5306,1770
8.5333,1772
8.5361,1779
8.5389,1787
8.5417,1797
8.5444,1804
8.5472,1808
8.5500,1810
8.5528,1809
8.5556,1800
8.5583,1794
8.5611,1798
8.5639,1811
8.5667,1809
8.5694,1803
8.5722,1798
8.5750,1799
8.5778,1796
8.5806,1795
8.5833,1806
8.5861,1809
8.5889,1825
8.5917,1832
8.5944,1834
8.5972,1844
8.6000,1861
8.6028,1883
8.6056,1920
8.6083,1932
8.6111,1944
8.6139,1953
8.6167,1973
8.6194,1995
8.6222,2017
8.6250,2028
8.6278,2033
8.6306,2031
8.6333,2039
8.6361,2034
8.6389,2046
8.6417,2049
8.6444,2034
8.6472,2011
8.6500,1971
8.6528,1928
8.6556,1885
8.6583,1858
8.6611,1840
8.6639,1833
8.6667,1817
8.6694,1787
8.6722,1767
8.6750,1759
8.6778,1767
8.6806,1755
8.6833,1744
8.6861,1740
8.6889,1728
8.6917,1730
8.6944,1736
8.6972,1736
8.7000,1736
8.7028,1739
8.7056,1738
8.7083,1743
8.7111,1756
8.7139,1750
8.7167,1739
8.7194,1741
8.7222,1740
8.7250,1738
8.7278,1722
8.7306,1683
8.7333,1633
8.7361,1572
8.7389,1525
8.7417,1516
8.7444,1553
8.7472,1626
8.7500,1755
8.7528,1937
8.7556,2126
8.7583,2351
8.7611,2651
8.7639,2946
8.7667,3173
8.7694,3315
8.7722,3322
8.7750,3175
8.7778,2840
8.7806,2385
8.7833,1944
8.7861,1627
8.7889,1481
8.7917,1460
8.7944,1519
8.7972,1608
8.8000,1691
8.8028,1752
8.8056,1774
8.8083,1760
8.8111,1721
8.8139,1694
8.8167,1692
8.8194,1710
8.8222,1716
8.8250,1729
8.8278,1721
8.8306,1716
8.8333,1726
8.8361,1729
8.8389,1741
8.8417,1738
8.8444,1737
8.8472,1731
8.8500,1727
8.8528,1714
8.8556,1710
8.8583,1718
8.8611,1731
8.8639,1740
8.8667,1743
8.8694,1754
8.8722,1755
8.8750,1748
8.8778,1741
8.8806,1742
8.8833,1746
8.8861,1740
8.8889,1741
8.8917,1733
8.8944,1729
8.8972,1738
8.9000,1746
8.9028,1758
8.9056,1772
8.9083,1782
8.9111,1782
8.9139,1773
8.9167,1762
8.9194,1758
8.9222,1767
8.9250,1778
8.9278,1785
8.9306,1783
8.9333,1796
8.9361,1805
8.9389,1821
8.9417,1828
8.9444,1823
8.9472,1822
8.9500,1823
8.9528,1829
8.9556,1819
8.9583,1820
8.9611,1844
8.9639,1858
8.9667,1869
8.9694,1862
8.9722,1845
8.9750,1850
8.9778,1721
8.9806,1724
8.9833,1723
8.9861,1712
8.9889,1694
8.9917,1679
8.9944,1694
8.9972,1706
9.0000,1729
9.0028,1732
9.0056,1733
9.0083,1721
9.0111,1704
9.0139,1703
9.0167,1697
9.0194,1706
9.0222,1712
9.0250,1712
9.0278,1713
9.0306,1713
9.0333,1715
9.0361,1720
9.0389,1712
9.0417,1716
9.0444,1730
9.0472,1724
9.0500,1711
9.0528,1696
9.0556,1695
9.0583,1695
9.0611,1699
9.0639,1713
9.0667,1706
9.0694,1696
9.0722,1691
9.0750,1684
9.0778,1683
9.0806,1690
9.0833,1700
9.0861,1695
9.0889,1702
9.0917,1720
9.0944,1733
9.0972,1751
9.1000,1767
9.1028,1782
9.1056,1783
9.1083,1795
9.1111,1803
9.1139,1810
9.1167,1831
9.1194,1854
9.1222,1883
9.1250,1896
9.1278,1895
9.1306,1899
9.1333,1898
9.1361,1889
9.1389,1871
9.1417,1842
9.1444,1800
9.1472,1758
9.1500,1721
9.1528,1697
9.1556,1670
9.1583,1649
9.1611,1625
9.1639,1617
9.1667,1604
9.1694,1594
9.1722,1583
9.1750,1588
9.1778,1591
9.1806,1600
9.1833,1589
9.1861,1579
9.1889,1573
9.1917,1555
9.1944,1549
9.1972,1549
9.2000,1540
9.2028,1549
9.2056,1547
9.2083,1560
9.2111,1558
9.2139,1547
9.2167,1546
9.2194,1534
9.2222,1529
9.2250,1515
9.2278,1476
9.2306,1439
9.2333,1391
9.2361,1373
9.2389,1374
9.2417,1404
9.2444,1482
9.2472,1634
9.2500,1825
9.2528,2020
9.2556,2269
9.2583,2567
9.2611,2832
9.2639,3032
9.2667,3133
9.2694,3087
9.2722,2854
9.2750,2437
9.2778,1958
9.2806,1544
9.2833,1305
9.2861,1220
9.2889,1252
9.2917,1337
9.2944,1440
9.2972,1523
9.3000,1563
9.3028,1548
9.3056,1530
9.3083,1500
9.3111,1475
9.3139,1489
9.3167,1501
9.3194,1524
9.3222,1530
9.3250,1522
9.3278,1523
9.3306,1521
9.3333,1519
9.3361,1527
9.3389,1533
9.3417,1540
9.3444,1540
9.3472,1519
9.3500,1514
9.3528,1514
9.3556,1524
9.3583,1554
9.3611,1571
9.3639,1596
9.3667,1591
9.3694,1579
9.3722,1579
9.3750,1581
9.3778,1585
9.3806,1592
9.3833,1588
9.3861,1583
9.3889,1563
9.3917,1567
9.3944,1570
9.3972,1589
9.4000,1612
9.4028,1636
9.4056,1639
9.4083,1628
9.4111,1610
9.4139,1622
9.4167,1618
9.4194,1630
9.4222,1638
9.4250,1639
9.4278,1653
9.4306,1663
9.4333,1665
9.4361,1669
9.4389,1681
9.4417,1692
9.4444,1696
9.4472,1692
9.4500,1697
9.4528,1696
9.4556,1702
9.4583,1716
9.4611,1741
9.4639,1749
9.4667,1739
9.4694,1734
9.4722,1716
9.4750,1642
9.4778,1639
9.4806,1642
9.4833,1641
9.4861,1640
9.4889,1648
9.4917,1655
9.4944,1649
9.4972,1654
9.5000,1655
9.5028,1651
9.5056,1634
9.5083,1642
9.5111,1648
9.5139,1660
9.5167,1673
9.5194,1678
9.5222,1685
9.5250,1693
9.5278,1705
9.5306,1695
9.5333,1697
9.5361,1697
9.5389,1702
9.5417,1700
9.5444,1705
9.5472,1702
9.5500,1701
9.5528,1713
9.5556,1722
9.5583,1750
9.5611,1767
9.5639,1791
9.5667,1794
9.5694,1812
9.5722,1816
9.5750,1819
9.5778,1821
9.5806,1830
9.5833,1851
9.5861,1873
9.5889,1892
9.5917,1924
9.5944,1944
9.5972,1955
9.6000,1965
9.6028,1965
9.6056,1955
9.6083,1937
9.6111,1902
9.6139,1874
9.6167,1856
9.6194,1823
9.6222,1794
9.6250,1779
9.6278,1749
9.6306,1723
9.6333,1710
9.6361,1676
9.6389,1656
9.6417,1638
9.6444,1634
9.6472,1635
9.6500,1631
9.6528,1632
9.6556,1640
9.6583,1638
9.6611,1626
9.6639,1630
9.6667,1628
9.6694,1619
9.6722,1616
9.6750,1621
9.6778,1627
9.6806,1630
9.6833,1616
9.6861,1619
9.6889,1611
9.6917,1610
9.6944,1607
9.6972,1582
9.7000,1532
9.7028,1486
9.7056,1454
9.7083,1428
9.7111,1437
9.7139,1485
9.7167,1627
9.7194,1816
9.7222,2025
9.7250,2256
9.7278,2555
9.7306,2849
9.7333,3095
9.7361,3261
9.7389,3316
9.7417,3178
9.7444,2872
9.7472,2400
9.7500,1923
9.7528,1576
9.7556,1387
9.7583,1353
9.7611,1395
9.7639,1487
9.7667,1569
9.7694,1629
9.7722,1658
9.7750,1644
9.7778,1622
9.7806,1605
9.7833,1597
9.7861,1601
9.7889,1606
9.7917,1616
9.7944,1615
9.7972,1623
9.8000,1610
9.8028,1614
9.8056,1612
9.8083,1617
9.8111,1638
9.8139,1655
9.8167,1672
9.8194,1673
9.8222,1676
9.8250,1673
9.8278,1680
9.8306,1673
9.8333,1666
9.8361,1664
9.8389,1662
9.8417,1668
9.8444,1681
9.8472,1686
9.8500,1705
9.8528,1717
9.8556,1720
9.8583,1719
9.8611,1717
9.8639,1709
9.8667,1716
9.8694,1721
9.8722,1730
9.8750,1723
9.8778,1724
9.8806,1715
9.8833,1718
9.8861,1738
9.8889,1748
9.8917,1757
9.8944,1767
9.8972,1776
9.9000,1782
9.9028,1787
9.9056,1797
9.9083,1800
9.9111,1801
9.9139,1813
9.9167,1821
9.9194,1826
9.9222,1821
9.9250,1809
9.9278,1812
9.9306,1813
9.9333,1815
9.9361,1823
9.9389,1839
9.9417,1844
9.9444,1788
9.9472,1796
9.9500,1797
9.9528,1787
9.9556,1791
9.9583,1788
9.9611,1783
9.9639,1785
9.9667,1800
9.9694,1799
9.9722,1805
9.9750,1804
9.9778,1804
9.9806,1806
9.9833,1822
9.9861,1832
9.9889,1831
9.9917,1834
9.9944,1842
9.9972,1830
10.0000,1827
10.0028,1822
10.0056,1832
10.0083,1829
10.0111,1841
10.0139,1840
10.0167,1831
10.0194,1838
10.0222,1856
10.0250,1870
10.0278,1890
10.0306,1918
10.0333,1936
10.0361,1958
10.0389,1961
10.0417,1966
10.0444,1961
10.0472,1974
10.0500,2000
10.0528,2024
10.0556,2039
10.0583,2055
10.0611,2067
10.0639,2080
10.0667,2092
10.0694,2115
10.0722,2107
10.0750,2083
10.0778,2041
10.0806,1993
10.0833,1958
10.0861,1924
10.0889,1899
10.0917,1883
10.0944,1871
10.0972,1854
10.1000,1827
10.1028,1799
10.1056,1767
10.1083,1752
10.1111,1745
10.1139,1733
10.1167,1727
10.1194,1727
10.1222,1716
10.1250,1712
10.1278,1717
10.1306,1718
10.1333,1727
10.1361,1722
10.1389,1724
10.1417,1720
10.1444,1714
10.1472,1699
10.1500,1695
10.1528,1699
10.1556,1703
10.1583,1701
10.1611,1684
10.1639,1621
10.1667,1560
10.1694,1510
10.1722,1479
10.1750,1483
10.1778,1506
10.1806,1595
10.1833,1748
10.1861,1941
10.1889,2160
10.1917,2404
10.1944,2741
10.1972,3035
10.2000,3259
10.2028,3327
10.2056,3259
10.2083,3010
10.2111,2623
10.2139,2151
10.2167,1745
10.2194,1501
10.2222,1428
10.2250,1454
10.2278,1549
10.2306,1641
10.2333,1692
10.2361,1705
10.2389,1686
10.2417,1648
10.2444,1630
10.2472,1622
10.2500,1619
10.2528,1641
10.2556,1648
10.2583,1636
10.2611,1638
10.2639,1615
10.2667,1612
10.2694,1625
10.2722,1632
10.2750,1641
10.2778,1649
10.2806,1642
10.2833,1632
10.2861,1629
10.2889,1625
10.2917,1629
10.2944,1630
10.2972,1642
10.3000,1637
10.3028,1635
10.3056,1625
10.3083,1612
10.3111,1612
10.3139,1624
10.3167,1626
10.3194,1638
10.3222,1630
10.3250,1623
10.3278,1621
10.3306,1621
10.3333,1630
10.3361,1640
10.3389,1642
10.3417,1651
10.3444,1647
10.3472,1638
10.3500,1631
10.3528,1632
10.3556,1636
10.3583,1635
10.3611,1636
10.3639,1656
10.3667,1660
10.3694,1671
10.3722,1674
10.3750,1670
10.3778,1662
10.3806,1665
10.3833,1683
10.3861,1696
10.3889,1714
10.3917,1726
10.3944,1718
10.3972,1707
10.4000,1689
10.4028,1684
10.4056,1676
10.4083,1580
10.4111,1591
10.4139,1603
10.4167,1613
10.4194,1612
10.4222,1608
10.4250,1613
10.4278,1609
10.4306,1615
10.4333,1616
10.4361,1607
10.4389,1611
10.4417,1606
10.4444,1597
10.4472,1603
10.4500,1616
10.4528,1616
10.4556,1621
10.4583,1620
10.4611,1624
10.4639,1622
10.4667,1626
10.4694,1631
10.4722,1643
10.4750,1643
10.4778,1637
10.4806,1637
10.4833,1636
10.4861,1641
10.4889,1651
10.4917,1676
10.4944,1694
10.4972,1720
10.5000,1742
10.5028,1751
10.5056,1775
10.5083,1782
10.5111,1787
10.5139,1806
10.5167,1822
10.5194,1831
10.5222,1840
10.5250,1851
10.5278,1866
10.5306,1870
10.5333,1878
10.5361,1867
10.5389,1844
10.5417,1818
10.5444,1780
10.5472,1747
10.5500,1722
10.5528,1689
10.5556,1656
10.5583,1634
10.5611,1624
10.5639,1599
10.5667,1586
10.5694,1572
10.5722,1573
10.5750,1583
10.5778,1571
10.5806,1559
10.5833,1550
10.5861,1539
10.5889,1546
10.5917,1548
10.5944,1537
10.5972,1535
10.6000,1544
10.6028,1539
10.6056,1536
10.6083,1541
10.6111,1553
10.6139,1571
10.6167,1575
10.6194,1575
10.6222,1551
10.6250,1518
10.6278,1466
10.6306,1400
10.6333,1368
10.6361,1322
10.6389,1325
10.6417,1361
10.6444,1443
10.6472,1619
10.6500,1822
10.6528,2048
10.6556,2315
10.6583,2621
10.6611,2882
10.6639,3106
10.6667,3208
10.6694,3158
10.6722,2909
10.6750,2474
10.6778,1986
10.6806,1573
10.6833,1331
10.6861,1237
10.6889,1263
10.6917,1348
10.6944,1439
10.6972,1519
10.7000,1548
10.7028,1540
10.7056,1516
10.7083,1493
10.7111,1478
10.7139,1498
10.7167,1515
10.7194,1527
10.7222,1538
10.7250,1530
10.7278,1511
10.7306,1514
10.7333,1529
10.7361,1554
10.7389,1561
10.7417,1553
10.7444,1547
10.7472,1555
10.7500,1545
10.7528,1547
10.7556,1570
10.7583,1574
10.7611,1579
10.7639,1571
10.7667,1574
10.7694,1580
10.7722,1587
10.7750,1591
10.7778,1597
10.7806,1601
10.7833,1601
10.7861,1598
10.7889,1609
10.7917,1602
10.7944,1611
10.7972,1623
10.8000,1633
10.8028,1621
10.8056,1612
10.8083,1611
10.8111,1619
10.8139,1633
10.8167,1649
10.8194,1661
10.8222,1668
10.8250,1659
10.8278,1654
10.8306,1652
10.8333,1664
10.8361,1674
10.8389,1691
10.8417,1699
10.8444,1702
10.8472,1711
10.8500,1710
10.8528,1714
10.8556,1713
10.8583,1727
10.8611,1740
10.8639,1750
10.8667,1743
10.8694,1748
10.8722,1677
10.8750,1674
10.8778,1699
10.8806,1690
10.8833,1689
10.8861,1681
10.8889,1679
10.8917,1684
10.8944,1689
10.8972,1703
10.9000,1693
10.9028,1686
10.9056,1684
10.9083,1690
10.9111,1696
10.9139,1711
10.9167,1712
10.9194,1725
10.9222,1722
10.9250,1724
10.9278,1723
10.9306,1725
10.9333,1741
10.9361,1751
10.9389,1761
10.9417,1766
10.9444,1765
10.9472,1762
10.9500,1784
10.9528,1802
10.9556,1821
10.9583,1845
10.9611,1864
10.9639,1869
10.9667,1892
10.9694,1916
10.9722,1945
10.9750,1972
10.9778,1977
10.9806,1986
10.9833,1982
10.9861,1991
10.9889,1985
10.9917,1973
10.9944,1951
10.9972,1925
11.0000,1892
11.0028,1849
11.0056,1808
11.0083,1781
11.0111,1754
11.0139,1730
11.0167,1705
11.0194,1677
11.0222,1665
11.0250,1646
11.0278,1648
11.0306,1642
11.0333,1646
11.0361,1656
11.0389,1652
11.0417,1643
11.0444,1639
11.0472,1626
11.0500,1614
11.0528,1611
11.0556,1614
11.0583,1621
11.0611,1615
11.0639,1612
11.0667,1598
11.0694,1610
11.0722,1601
11.0750,1603
11.0778,1580
11.0806,1552
11.0833,1505
11.0861,1456
11.0889,1407
11.0917,1382
11.0944,1377
11.0972,1426
11.1000,1549
11.1028,1741
11.1056,1945
11.1083,2194
11.1111,2499
11.1139,2807
11.1167,3079
11.1194,3263
11.1222,3316
11.1250,3207
11.1278,2879
11.1306,2406
11.1333,1936
11.1361,1585
11.1389,1401
11.1417,1369
11.1444,1406
11.1472,1486
11.1500,1566
11.1528,1632
11.1556,1677
11.1583,1673
11.1611,1643
11.1639,1620
11.1667,1603
11.1694,1613
11.1722,1636
11.1750,1637
11.1778,1629
11.1806,1616
11.1833,1610
11.1861,1599
11.1889,1612
11.1917,1618
11.1944,1632
11.1972,1647
11.2000,1632
11.2028,1622
11.2056,1617
11.2083,1622
11.2111,1618
11.2139,1611
11.2167,1608
11.2194,1610
11.2222,1631
11.2250,1644
11.2278,1655
11.2306,1647
11.2333,1644
11.2361,1657
11.2389,1652
11.2417,1640
11.2444,1636
11.2472,1635
11.2500,1643
11.2528,1647
11.2556,1646
11.2583,1647
11.2611,1636
11.2639,1636
11.2667,1648
11.2694,1654
11.2722,1659
11.2750,1650
11.2778,1657
11.2806,1630
11.2833,1630
11.2861,1638
11.2889,1640
11.2917,1665
11.2944,1686
11.2972,1689
11.3000,1684
11.3028,1670
11.3056,1656
11.3083,1663
11.3111,1670
11.3139,1692
11.3167,1703
11.3194,1697
11.3222,1689
11.3250,1696
11.3278,1679
11.3306,1683
11.3333,1703
11.3361,1711
11.3389,1696
11.3417,1688
11.3444,1668
11.3472,1670
11.3500,1686
11.3528,1695
11.3556,1715
11.3583,1713
11.3611,1709
11.3639,1694
11.3667,1686
11.3694,1692
11.3722,1706
11.3750,1724
11.3778,1744
11.3806,1752
11.3833,1750
11.3861,1754
11.3889,1772
11.3917,1782
11.3944,1822
11.3972,1856
11.4000,1867
11.4028,1894
11.4056,1898
11.4083,1914
11.4111,1933
11.4139,1955
11.4167,1979
11.4194,2003
11.4222,2032
11.4250,2058
11.4278,2069
11.4306,2073
11.4333,2086
11.4361,2097
11.4389,2098
11.4417,2080
11.4444,2040
11.4472,2008
11.4500,1960
11.4528,1936
11.4556,1898
11.4583,1866
11.4611,1839
11.4639,1819
11.4667,1800
11.4694,1787
11.4722,1764
11.4750,1753
11.4778,1735
11.4806,1726
11.4833,1715
11.4861,1716
11.4889,1700
11.4917,1701
11.4944,1709
11.4972,1701
11.5000,1694
11.5028,1690
11.5056,1685
11.5083,1685
11.5111,1686
11.5139,1681
11.5167,1684
11.5194,1690
11.5222,1696
11.5250,1690
11.5278,1675
11.5306,1637
11.5333,1588
11.5361,1508
11.5389,1464
11.5417,1441
11.5444,1475
11.5472,1540
11.5500,1681
11.5528,1877
11.5556,2075
11.5583,2310
11.5611,2602
11.5639,2897
11.5667,3160
11.5694,3322
11.5722,3339
11.5750,3212
11.5778,2903
11.5806,2431
11.5833,1977
11.5861,1651
11.5889,1491
11.5917,1464
11.5944,1534
11.5972,1624
11.6000,1709
11.6028,1759
11.6056,1766
11.6083,1744
11.6111,1722
11.6139,1714
11.6167,1701
11.6194,1699
11.6222,1698
11.6250,1702
11.6278,1708
11.6306,1705
11.6333,1702
11.6361,1697
11.6389,1703
11.6417,1702
11.6444,1709
11.6472,1707
11.6500,1717
11.6528,1722
11.6556,1715
11.6583,1709
11.6611,1715
11.6639,1710
11.6667,1716
11.6694,1716
11.6722,1718
11.6750,1732
11.6778,1735
11.6806,1748
11.6833,1740
11.6861,1740
11.6889,1735
11.6917,1728
11.6944,1740
11.6972,1746
11.7000,1762
11.7028,1776
11.7056,1777
11.7083,1777
11.7111,1778
11.7139,1772
11.7167,1779
11.7194,1791
11.7222,1803
11.7250,1816
11.7278,1814
11.7306,1817
11.7333,1806
11.7361,1797
11.7389,1786
11.7417,1774
11.7444,1783
11.7472,1783
11.7500,1784
11.7528,1776
11.7556,1785
11.7583,1787
11.7611,1794
11.7639,1805
11.7667,1799
11.7694,1794
11.7722,1779
11.7750,1770
11.7778,1610
11.7806,1626
11.7833,1613
11.7861,1604
11.7889,1595
11.7917,1605
11.7944,1612
11.7972,1628
11.8000,1642
11.8028,1641
11.8056,1645
11.8083,1635
11.8111,1639
11.8139,1636
11.8167,1648
11.8194,1662
11.8222,1670
11.8250,1669
11.8278,1656
11.8306,1664
11.8333,1669
11.8361,1693
11.8389,1714
11.8417,1720
11.8444,1724
11.8472,1730
11.8500,1744
11.8528,1772
11.8556,1793
11.8583,1810
11.8611,1821
11.8639,1832
11.8667,1853
11.8694,1874
11.8722,1899
11.8750,1924
11.8778,1928
11.8806,1935
11.8833,1939
11.8861,1946
11.8889,1960
11.8917,1957
11.8944,1942
11.8972,1915
11.9000,1883
11.9028,1841
11.9056,1799
11.9083,1766
11.9111,1723
11.9139,1696
11.9167,1670
11.9194,1638
11.9222,1609
11.9250,1591
11.9278,1582
11.9306,1586
11.9333,1583
11.9361,1591
11.9389,1588
11.9417,1584
11.9444,1585
11.9472,1577
11.9500,1555
11.9528,1547
11.9556,1547
11.9583,1551
11.9611,1550
11.9639,1560
11.9667,1561
11.9694,1552
11.9722,1553
11.9750,1548
11.9778,1551
11.9806,1539
11.9833,1503
11.9861,1457
11.9889,1379
11.9917,1323
11.9944,1294
11.9972,1294
12.0000,1331
12.0028,1441
12.0056,1617
12.0083,1809
12.0111,2023
12.0139,2285
12.0167,2591
12.0194,2861
12.0222,3059
12.0250,3131
12.0278,3009
12.0306,2742
12.0333,2327
12.0361,1882
12.0389,1510
12.0417,1319
12.0444,1279
12.0472,1323
12.0500,1421
12.0528,1515
12.0556,1557
12.0583,1578
12.0611,1576
12.0639,1555
12.0667,1533
12.0694,1521
12.0722,1514
12.0750,1525
12.0778,1530
12.0806,1535
12.0833,1542
12.0861,1547
12.0889,1540
12.0917,1534
12.0944,1537
12.0972,1553
12.1000,1566
12.1028,1565
12.1056,1552
12.1083,1560
12.1111,1564
12.1139,1583
12.1167,1580
12.1194,1597
12.1222,1591
12.1250,1592
12.1278,1584
12.1306,1590
12.1333,1597
12.1361,1594
12.1389,1607
12.1417,1621
12.1444,1624
12.1472,1621
12.1500,1611
12.1528,1609
12.1556,1615
12.1583,1635
12.1611,1642
12.1639,1644
12.1667,1641
12.1694,1642
12.1722,1649
12.1750,1655
12.1778,1656
12.1806,1654
12.1833,1645
12.1861,1649
12.1889,1656
12.1917,1676
12.1944,1690
12.1972,1703
12.2000,1710
12.2028,1715
12.2056,1716
12.2083,1715
12.2111,1708
12.2139,1721
12.2167,1723
12.2194,1727
12.2222,1723
12.2250,1717
12.2278,1710
12.2306,1639
12.2333,1635
12.2361,1639
12.2389,1650
12.2417,1657
12.2444,1647
12.2472,1644
12.2500,1634
12.2528,1631
12.2556,1650
12.2583,1644
12.2611,1648
12.2639,1647
12.2667,1649
12.2694,1648
12.2722,1667
12.2750,1677
12.2778,1684
12.2806,1685
12.2833,1689
12.2861,1682
12.2889,1697
12.2917,1691
12.2944,1699
12.2972,1698
12.3000,1696
12.3028,1696
12.3056,1686
12.3083,1695
12.3111,1706
12.3139,1724
12.3167,1731
12.3194,1741
12.3222,1757
12.3250,1780
12.3278,1814
12.3306,1818
12.3333,1836
12.3361,1849
12.3389,1851
12.3417,1855
12.3444,1869
12.3472,1890
12.3500,1908
12.3528,1924
12.3556,1934
12.3583,1938
12.3611,1935
12.3639,1927
12.3667,1915
12.3694,1898
12.3722,1868
12.3750,1830
12.3778,1799
12.3806,1761
12.3833,1731
12.3861,1705
12.3889,1683
12.3917,1664
12.3944,1649
12.3972,1643
12.4000,1634
12.4028,1620
12.4056,1609
12.4083,1601
12.4111,1605
12.4139,1601
12.4167,1591
12.4194,1590
12.4222,1591
12.4250,1579
12.4278,1583
12.4306,1573
12.4333,1586
12.4361,1593
12.4389,1596
12.4417,1594
12.4444,1590
12.4472,1593
12.4500,1586
12.4528,1567
12.4556,1520
12.4583,1462
12.4611,1407
12.4639,1370
12.4667,1364
12.4694,1388
12.4722,1444
12.4750,1578
12.4778,1767
12.4806,1968
12.4833,2199
12.4861,2481
12.4889,2758
12.4917,2984
12.4944,3123
12.4972,3130
12.5000,2967
12.5028,2626
12.5056,2181
12.5083,1749
12.5111,1448
12.5139,1308
12.5167,1318
12.5194,1389
12.5222,1485
12.5250,1564
12.5278,1608
12.5306,1606
12.5333,1579
12.5361,1564
12.5389,1552
12.5417,1553
12.5444,1560
12.5472,1575
12.5500,1584
12.5528,1590
12.5556,1595
12.5583,1598
12.5611,1591
12.5639,1591
12.5667,1597
12.5694,1595
12.5722,1597
12.5750,1593
12.5778,1586
12.5806,1589
12.5833,1604
12.5861,1623
12.5889,1629
12.5917,1630
12.5944,1613
12.5972,1612
12.6000,1620
12.6028,1632
12.6056,1646
12.6083,1655
12.6111,1660
12.6139,1650
12.6167,1634
12.6194,1619
12.6222,1630
12.6250,1636
12.6278,1649
12.6306,1653
12.6333,1651
12.6361,1658
12.6389,1665
12.6417,1655
12.6444,1658
12.6472,1663
12.6500,1667
12.6528,1682
12.6556,1686
12.6583,1689
12.6611,1696
12.6639,1705
12.6667,1693
12.6694,1695
12.6722,1710
12.6750,1701
12.6778,1707
12.6806,1703
12.6833,1703
12.6861,1710
12.6889,1716
12.6917,1730
12.6944,1722
12.6972,1726
12.7000,1723
12.7028,1647
12.7056,1648
12.7083,1655
12.7111,1655
12.7139,1654
12.7167,1645
12.7194,1642
12.7222,1647
12.7250,1640
12.7278,1639
12.7306,1643
12.7333,1645
12.7361,1643
12.7389,1647
12.7417,1660
12.7444,1670
12.7472,1683
12.7500,1681
12.7528,1678
12.7556,1679
12.7583,1683
12.7611,1692
12.7639,1698
12.7667,1697
12.7694,1696
12.7722,1693
12.7750,1685
12.7778,1677
12.7806,1675
12.7833,1673
12.7861,1684
12.7889,1692
12.7917,1705
12.7944,1710
12.7972,1704
12.8000,1688
12.8028,1678
12.8056,1690
12.8083,1720
12.8111,1739
12.8139,1761
12.8167,1783
12.8194,1793
12.8222,1803
12.8250,1811
12.8278,1820
12.8306,1842
12.8333,1850
12.8361,1865
12.8389,1870
12.8417,1886
12.8444,1892
12.8472,1897
12.8500,1918
12.8528,1934
12.8556,1939
12.8583,1919
12.8611,1890
12.8639,1854
12.8667,1807
12.8694,1770
12.8722,1737
12.8750,1719
12.8778,1703
12.8806,1678
12.8833,1648
12.8861,1630
12.8889,1630
12.8917,1636
12.8944,1640
12.8972,1649
12.9000,1646
12.9028,1639
12.9056,1637
12.9083,1630
12.9111,1623
12.9139,1620
12.9167,1609
12.9194,1621
12.9222,1633
12.9250,1643
12.9278,1640
12.9306,1632
12.9333,1632
12.9361,1621
12.9389,1612
12.9417,1600
12.9444,1570
12.9472,1538
12.9500,1477
12.9528,1426
12.9556,1405
12.9583,1416
12.9611,1472
12.9639,1588
12.9667,1771
12.9694,1974
12.9722,2203
12.9750,2477
12.9778,2782
12.9806,3020
12.9833,3195
12.9861,3251
12.9889,3140
12.9917,2849
12.9944,2408
12.9972,1956
13.0000,1595
13.0028,1404
13.0056,1356
13.0083,1402
13.0111,1496
13.0139,1581
13.0167,1641
13.0194,1663
13.0222,1655
13.0250,1642
13.0278,1627
13.0306,1614
13.0333,1610
13.0361,1611
13.0389,1621
13.0417,1626
13.0444,1627
13.0472,1620
13.0500,1627
13.0528,1632
13.0556,1645
13.0583,1645
13.0611,1660
13.0639,1660
13.0667,1668
13.0694,1676
13.0722,1679
13.0750,1690
13.0778,1696
13.0806,1689
13.0833,1688
13.0861,1680
13.0889,1678
13.0917,1690
13.0944,1702
13.0972,1705
13.1000,1709
13.1028,1706
13.1056,1715
13.1083,1714
13.1111,1723
13.1139,1747
13.1167,1752
13.1194,1754
13.1222,1751
13.1250,1755
13.1278,1747
13.1306,1748
13.1333,1755
13.1361,1755
13.1389,1756
13.1417,1775
13.1444,1798
13.1472,1795
13.1500,1794
13.1528,1795
13.1556,1794
13.1583,1802
13.1611,1806
13.1639,1811
13.1667,1805
13.1694,1806
13.1722,1806
13.1750,1812
13.1778,1825
13.1806,1845
13.1833,1853
13.1861,1853
13.1889,1851
13.1917,1783
13.1944,1781
13.1972,1791
13.2000,1789
13.2028,1786
13.2056,1779
13.2083,1783
13.2111,1780
13.2139,1788
13.2167,1796
13.2194,1795
13.2222,1789
13.2250,1786
13.2278,1780
13.2306,1780
13.2333,1784
13.2361,1814
13.2389,1829
13.2417,1833
13.2444,1831
13.2472,1814
13.2500,1808
13.2528,1815
13.2556,1823
13.2583,1829
13.2611,1851
13.2639,1853
13.2667,1852
13.2694,1853
13.2722,1859
13.2750,1885
13.2778,1914
13.2806,1916
13.2833,1935
13.2861,1940
13.2889,1945
13.2917,1953
13.2944,1964
13.2972,1983
13.3000,1997
13.3028,2006
13.3056,2021
13.3083,2049
13.3111,2058
13.3139,2069
13.3167,2052
13.3194,2023
13.3222,1992
13.3250,1955
13.3278,1920
13.3306,1889
13.3333,1864
13.3361,1840
13.3389,1828
13.3417,1793
13.3444,1767
13.3472,1754
13.3500,1742
13.3528,1737
13.3556,1727
13.3583,1719
13.3611,1705
13.3639,1703
13.3667,1699
13.3694,1711
13.3722,1703
13.3750,1709
13.3778,1703
13.3806,1698
13.3833,1685
13.3861,1682
13.3889,1693
13.3917,1695
13.3944,1686
13.3972,1675
13.4000,1670
13.4028,1666
13.4056,1642
13.4083,1598
13.4111,1539
13.4139,1493
13.4167,1462
13.4194,1457
13.4222,1489
13.4250,1590
13.4278,1766
13.4306,1972
13.4333,2208
13.4361,2482
13.4389,2779
13.4417,3053
13.4444,3265
13.4472,3346
13.4500,3309
13.4528,3060
13.4556,2640
13.4583,2153
13.4611,1747
13.4639,1499
13.4667,1400
13.4694,1412
13.4722,1475
13.4750,1560
13.4778,1638
13.4806,1690
13.4833,1688
13.4861,1663
13.4889,1636
13.4917,1625
13.4944,1627
13.4972,1638
13.5000,1659
13.5028,1656
13.5056,1650
13.5083,1637
13.5111,1633
13.5139,1638
13.5167,1647
13.5194,1647
13.5222,1651
13.5250,1645
13.5278,1643
13.5306,1639
13.5333,1661
13.5361,1669
13.5389,1680
13.5417,1674
13.5444,1655
13.5472,1662
13.5500,1665
13.5528,1669
13.5556,1671
13.5583,1679
13.5611,1686
13.5639,1697
13.5667,1689
13.5694,1689
13.5722,1690
13.5750,1698
13.5778,1695
13.5806,1692
13.5833,1692
13.5861,1689
13.5889,1687
13.5917,1690
13.5944,1700
13.5972,1704
13.6000,1716
13.6028,1706
13.6056,1703
13.6083,1706
13.6111,1717
13.6139,1726
13.6167,1733
13.6194,1744
13.6222,1754
13.6250,1748
13.6278,1751
13.6306,1744
13.6333,1734
13.6361,1737
13.6389,1752
13.6417,1787
13.6444,1805
13.6472,1811
13.6500,1807
13.6528,1705
13.6556,1702
13.6583,1724
13.6611,1743
13.6639,1754
13.6667,1752
13.6694,1740
13.6722,1733
13.6750,1729
13.6778,1726
13.6806,1721
13.6833,1722
13.6861,1727
13.6889,1729
13.6917,1724
13.6944,1736
13.6972,1743
13.7000,1745
13.7028,1741
13.7056,1746
13.7083,1742
13.7111,1749
13.7139,1763
13.7167,1766
13.7194,1772
13.7222,1755
13.7250,1763
13.7278,1774
13.7306,1794
13.7333,1818
13.7361,1844
13.7389,1874
13.7417,1889
13.7444,1883
13.7472,1886
13.7500,1883
13.7528,1899
13.7556,1919
13.7583,1943
13.7611,1953
13.7639,1969
13.7667,1968
13.7694,1981
13.7722,1980
13.7750,1955
13.7778,1927
13.7806,1894
13.7833,1854
13.7861,1823
13.7889,1788
13.7917,1769
13.7944,1740
13.7972,1714
13.8000,1696
13.8028,1679
13.8056,1659
13.8083,1648
13.8111,1653
13.8139,1663
13.8167,1669
13.8194,1667
13.8222,1660
13.8250,1657
13.8278,1653
13.8306,1652
13.8333,1658
13.8361,1658
13.8389,1660
13.8417,1655
13.8444,1661
13.8472,1667
13.8500,1659
13.8528,1651
13.8556,1626
13.8583,1608
13.8611,1584
13.8639,1536
13.8667,1484
13.8694,1436
13.8722,1406
13.8750,1403
13.8778,1426
13.8806,1530
13.8833,1696
13.8861,1894
13.8889,2112
13.8917,2394
13.8944,2708
13.8972,3006
13.9000,3219
13.9028,3319
13.9056,3247
13.9083,2983
13.9111,2567
13.9139,2089
13.9167,1684
13.9194,1453
13.9222,1362
13.9250,1377
13.9278,1453
13.9306,1546
13.9333,1617
13.9361,1662
13.9389,1658
13.9417,1645
13.9444,1627
13.9472,1619
13.9500,1614
13.9528,1619
13.9556,1619
13.9583,1615
13.9611,1612
13.9639,1598
13.9667,1600
13.9694,1597
13.9722,1610
13.9750,1640
13.9778,1647
13.9806,1642
13.9833,1629
13.9861,1620
13.9889,1637
13.9917,1645
13.9944,1656
13.9972,1658
14.0000,1656
14.0028,1641
14.0056,1637
14.0083,1636
14.0111,1639
14.0139,1654
14.0167,1651
14.0194,1669
14.0222,1676
14.0250,1672
14.0278,1664
14.0306,1661
14.0333,1662
14.0361,1664
14.0389,1687
14.0417,1678
14.0444,1677
14.0472,1677
14.0500,1669
14.0528,1682
14.0556,1682
14.0583,1704
14.0611,1703
14.0639,1716
14.0667,1717
14.0694,1728
14.0722,1735
14.0750,1746
14.0778,1745
14.0806,1739
14.0833,1740
14.0861,1739
14.0889,1745
14.0917,1764
14.0944,1767
14.0972,1768
14.1000,1773
14.1028,1785
14.1056,1778
14.1083,1711
14.1111,1713
14.1139,1722
14.1167,1718
14.1194,1724
14.1222,1712
14.1250,1708
14.1278,1715
14.1306,1724
14.1333,1729
14.1361,1734
14.1389,1740
14.1417,1736
14.1444,1736
14.1472,1731
14.1500,1728
14.1528,1738
14.1556,1754
14.1583,1758
14.1611,1760
14.1639,1762
14.1667,1759
14.1694,1758
14.1722,1771
14.1750,1780
14.1778,1787
14.1806,1796
14.1833,1816
14.1861,1840
14.1889,1867
14.1917,1893
14.1944,1891
14.1972,1901
14.2000,1912
14.2028,1928
14.2056,1937
14.2083,1964
14.2111,1988
14.2139,2008
14.2167,2025
14.2194,2020
14.2222,2025
14.2250,2028
14.2278,2026
14.2306,2028
14.2333,2002
14.2361,1977
14.2389,1931
14.2417,1873
14.2444,1825
14.2472,1790
14.2500,1766
14.2528,1761
14.2556,1744
14.2583,1727
14.2611,1709
14.2639,1690
14.2667,1677
14.2694,1662
14.2722,1668
14.2750,1661
14.2778,1677
14.2806,1673
14.2833,1665
14.2861,1647
14.2889,1655
14.2917,1667
14.2944,1676
14.2972,1677
14.3000,1690
14.3028,1693
14.3056,1679
14.3083,1676
14.3111,1657
14.3139,1632
14.3167,1613
14.3194,1579
14.3222,1514
14.3250,1474
14.3278,1429
14.3306,1410
14.3333,1425
14.3361,1478
14.3389,1618
14.3417,1811
14.3444,2016
14.3472,2256
14.3500,2547
14.3528,2853
14.3556,3110
14.3583,3261
14.3611,3256
14.3639,3068
14.3667,2724
14.3694,2263
14.3722,1828
14.3750,1509
14.3778,1373
14.3806,1381
14.3833,1461
14.3861,1568
14.3889,1650
14.3917,1689
14.3944,1683
14.3972,1652
14.4000,1620
14.4028,1599
14.4056,1599
14.4083,1589
14.4111,1595
14.4139,1594
14.4167,1602
14.4194,1603
14.4222,1599
14.4250,1612
14.4278,1626
14.4306,1648
14.4333,1651
14.4361,1649
14.4389,1642
14.4417,1622
14.4444,1624
14.4472,1634
14.4500,1647
14.4528,1654
14.4556,1661
14.4583,1658
14.4611,1647
14.4639,1643
14.4667,1645
14.4694,1650
14.4722,1654
14.4750,1660
14.4778,1667
14.4806,1668
14.4833,1672
14.4861,1685
14.4889,1683
14.4917,1708
14.4944,1712
14.4972,1709
14.5000,1703
14.5028,1683
14.5056,1678
14.5083,1681
14.5111,1694
14.5139,1700
14.5167,1712
14.5194,1717
14.5222,1726
14.5250,1737
14.5278,1745
14.5306,1753
14.5333,1762
14.5361,1762
14.5389,1736
14.5417,1726
14.5444,1737
14.5472,1758
14.5500,1781
14.5528,1784
14.5556,1783
14.5583,1778
14.5611,1765
14.5639,1760
14.5667,1673
14.5694,1671
14.5722,1683
14.5750,1691
14.5778,1673
14.5806,1674
14.5833,1675
14.5861,1686
14.5889,1705
14.5917,1714
14.5944,1712
14.5972,1706
14.6000,1706
14.6028,1711
14.6056,1704
14.6083,1718
14.6111,1722
14.6139,1723
14.6167,1729
14.6194,1742
14.6222,1735
14.6250,1738
14.6278,1743
14.6306,1753
14.6333,1757
14.6361,1757
14.6389,1755
14.6417,1751
14.6444,1751
14.6472,1765
14.6500,1790
14.6528,1827
14.6556,1855
14.6583,1870
14.6611,1872
14.6639,1884
14.6667,1896
14.6694,1920
14.6722,1918
14.6750,1933
14.6778,1948
14.6806,1952
14.6833,1967
14.6861,1974
14.6889,1979
14.6917,1980
14.6944,1972
14.6972,1943
14.7000,1904
14.7028,1857
14.7056,1823
14.7083,1785
14.7111,1770
14.7139,1752
14.7167,1734
14.7194,1699
14.7222,1674
14.7250,1649
14.7278,1643
14.7306,1645
14.7333,1642
14.7361,1646
14.7389,1637
14.7417,1630
14.7444,1627
14.7472,1621
14.7500,1623
14.7528,1635
14.7556,1636
14.7583,1629
14.7611,1623
14.7639,1615
14.7667,1609
14.7694,1627
14.7722,1631
14.7750,1631
14.7778,1619
14.7806,1595
14.7833,1558
14.7861,1490
14.7889,1434
14.7917,1383
14.7944,1368
14.7972,1388
14.8000,1451
14.8028,1594
14.8056,1794
14.8083,1995
14.8111,2241
14.8139,2531
14.8167,2808
14.8194,3040
14.8222,3181
14.8250,3168
14.8278,2977
14.8306,2647
14.8333,2188
14.8361,1757
14.8389,1450
14.8417,1334
14.8444,1341
14.8472,1425
14.8500,1531
14.8528,1616
14.8556,1656
14.8583,1658
14.8611,1624
14.8639,1598
14.8667,1575
14.8694,1576
14.8722,1588
14.8750,1602
14.8778,1602
14.8806,1606
14.8833,1602
14.8861,1601
14.8889,1611
14.8917,1622
14.8944,1640
14.8972,1644
14.9000,1642
14.9028,1630
14.9056,1624
14.9083,1621
14.9111,1618
14.9139,1633
14.9167,1643
14.9194,1653
14.9222,1648
14.9250,1644
14.9278,1636
14.9306,1639
14.9333,1648
14.9361,1653
14.9389,1651
14.9417,1645
14.9444,1645
14.9472,1640
14.9500,1651
14.9528,1666
14.9556,1685
14.9583,1689
14.9611,1683
14.9639,1679
14.9667,1681
14.9694,1691
14.9722,1696
14.9750,1721
14.9778,1730
14.9806,1728
14.9833,1723
14.9861,1715
14.9889,1723
14.9917,1732
14.9944,1745
14.9972,1752
15.0000,1749
15.0028,1748
15.0056,1760
15.0083,1767
15.0111,1767
15.0139,1762
15.0167,1776
15.0194,1779
15.0222,1779
15.0250,1764
15.0278,1772
15.0306,1697
15.0333,1694
15.0361,1699
15.0389,1699
15.0417,1689
15.0444,1698
15.0472,1696
15.0500,1712
15.0528,1711
15.0556,1700
15.0583,1711
15.0611,1716
15.0639,1716
15.0667,1725
15.0694,1729
15.0722,1741
15.0750,1735
15.0778,1736
15.0806,1738
15.0833,1738
15.0861,1740
15.0889,1742
15.0917,1750
15.0944,1746
15.0972,1750
15.1000,1748
15.1028,1751
15.1056,1750
15.1083,1746
15.1111,1765
15.1139,1761
15.1167,1768
15.1194,1790
15.1222,1806
15.1250,1837
15.1278,1858
15.1306,1874
15.1333,1888
15.1361,1892
15.1389,1901
15.1417,1910
15.1444,1928
15.1472,1943
15.1500,1968
15.1528,1977
15.1556,1992
15.1583,1991
15.1611,1998
15.1639,1992
15.1667,1989
15.1694,1976
15.1722,1936
15.1750,1891
15.1778,1844
15.1806,1796
15.1833,1769
15.1861,1743
15.1889,1721
15.1917,1707
15.1944,1697
15.1972,1677
15.2000,1658
15.2028,1640
15.2056,1641
15.2083,1643
15.2111,1641
15.2139,1639
15.2167,1644
15.2194,1646
15.2222,1638
15.2250,1629
15.2278,1634
15.2306,1622
15.2333,1627
15.2361,1628
15.2389,1643
15.2417,1642
15.2444,1631
15.2472,1639
15.2500,1634
15.2528,1606
15.2556,1584
15.2583,1517
15.2611,1440
15.2639,1394
15.2667,1368
15.2694,1387
15.2722,1449
15.2750,1578
15.2778,1767
15.2806,1962
15.2833,2194
15.2861,2477
15.2889,2782
15.2917,3013
15.2944,3172
15.2972,3201
15.3000,3032
15.3028,2716
15.3056,2274
15.3083,1840
15.3111,1519
15.3139,1386
15.3167,1379
15.3194,1448
15.3222,1539
15.3250,1613
15.3278,1649
15.3306,1654
15.3333,1640
15.3361,1614
15.3389,1597
15.3417,1600
15.3444,1597
15.3472,1608
15.3500,1612
15.3528,1607
15.3556,1603
15.3583,1593
15.3611,1596
15.3639,1600
15.3667,1620
15.3694,1624
15.3722,1631
15.3750,1622
15.3778,1600
15.3806,1607
15.3833,1600
15.3861,1628
15.3889,1632
15.3917,1631
15.3944,1626
15.3972,1633
15.4000,1625
15.4028,1627
15.4056,1639
15.4083,1646
15.4111,1654
15.4139,1658
15.4167,1651
15.4194,1650
15.4222,1648
15.4250,1656
15.4278,1653
15.4306,1646
15.4333,1649
15.4361,1654
15.4389,1653
15.4417,1664
15.4444,1663
15.4472,1670
15.4500,1670
15.4528,1673
15.4556,1676
15.4583,1676
15.4611,1690
15.4639,1708
15.4667,1706
15.4694,1716
15.4722,1715
15.4750,1706
15.4778,1700
15.4806,1696
15.4833,1703
15.4861,1721
15.4889,1727
15.4917,1734
15.4944,1732
15.4972,1726
15.5000,1725
15.5028,1667
15.5056,1664
15.5083,1661
15.5111,1659
15.5139,1653
15.5167,1649
15.5194,1659
15.5222,1680
15.5250,1693
15.5278,1699
15.5306,1710
15.5333,1690
15.5361,1687
15.5389,1681
15.5417,1681
15.5444,1692
15.5472,1704
15.5500,1692
15.5528,1691
15.5556,1695
15.5583,1705
15.5611,1710
15.5639,1717
15.5667,1726
15.5694,1729
15.5722,1715
15.5750,1711
15.5778,1713
15.5806,1718
15.5833,1742
15.5861,1755
15.5889,1771
15.5917,1796
15.5944,1808
15.5972,1820
15.6000,1830
15.6028,1824
15.6056,1858
15.6083,1880
15.6111,1894
15.6139,1914
15.6167,1924
15.6194,1923
15.6222,1924
15.6250,1929
15.6278,1935
15.6306,1947
15.6333,1957
15.6361,1942
15.6389,1899
15.6417,1861
15.6444,1820
15.6472,1781
15.6500,1758
15.6528,1742
15.6556,1725
15.6583,1706
15.6611,1681
15.6639,1661
15.6667,1637
15.6694,1631
15.6722,1630
15.6750,1637
15.6778,1641
15.6806,1638
15.6833,1635
15.6861,1628
15.6889,1626
15.6917,1623
15.6944,1631
15.6972,1637
15.7000,1641
15.7028,1632
15.7056,1633
15.7083,1639
15.7111,1651
15.7139,1636
15.7167,1626
15.7194,1608
15.7222,1583
15.7250,1538
15.7278,1487
15.7306,1437
15.7333,1403
15.7361,1393
15.7389,1416
15.7417,1509
15.7444,1671
15.7472,1876
15.7500,2094
15.7528,2357
15.7556,2656
15.7583,2933
15.7611,3152
15.7639,3259
15.7667,3203
15.7694,2944
15.7722,2515
15.7750,2038
15.7778,1640
15.7806,1404
15.7833,1322
15.7861,1351
15.7889,1435
15.7917,1547
15.7944,1626
15.7972,1668
15.8000,1673
15.8028,1648
15.8056,1616
15.8083,1581
15.8111,1571
15.8139,1577
15.8167,1597
15.8194,1611
15.8222,1618
15.8250,1613
15.8278,1613
15.8306,1615
15.8333,1615
15.8361,1623
15.8389,1625
15.8417,1620
15.8444,1621
15.8472,1628
15.8500,1645
15.8528,1648
15.8556,1655
15.8583,1656
15.8611,1649
15.8639,1644
15.8667,1641
15.8694,1639
15.8722,1652
15.8750,1664
15.8778,1671
15.8806,1682
15.8833,1672
15.8861,1667
15.8889,1663
15.8917,1663
15.8944,1676
15.8972,1678
15.9000,1683
15.9028,1692
15.9056,1693
15.9083,1697
15.9111,1703
15.9139,1725
15.9167,1718
15.9194,1716
15.9222,1719
15.9250,1716
15.9278,1712
15.9306,1717
15.9333,1720
15.9361,1727
15.9389,1733
15.9417,1729
15.9444,1724
15.9472,1750
15.9500,1773
15.9528,1775
15.9556,1781
15.9583,1798
15.9611,1808
15.9639,1794
15.9667,1795
15.9694,1704
15.9722,1708
15.9750,1726
15.9778,1735
15.9806,1738
15.9833,1742
15.9861,1721
15.9889,1726
15.9917,1731
15.9944,1732
15.9972,1735
16.0000,1734
16.0028,1729
16.0056,1725
16.0083,1732
16.0111,1733
16.0139,1739
16.0167,1744
16.0194,1760
16.0222,1758
16.0250,1764
16.0278,1774
16.0306,1777
16.0333,1776
16.0361,1771
16.0389,1787
16.0417,1802
16.0444,1821
16.0472,1834
16.0500,1856
16.0528,1870
16.0556,1889
16.0583,1909
16.0611,1927
16.0639,1940
16.0667,1964
16.0694,1980
16.0722,1979
16.0750,1980
16.0778,1980
16.0806,1992
16.0833,1986
16.0861,1981
16.0889,1952
16.0917,1917
16.0944,1868
16.0972,1834
16.1000,1811
16.1028,1794
16.1056,1761
16.1083,1739
16.1111,1707
16.1139,1678
16.1167,1677
16.1194,1664
16.1222,1662
16.1250,1658
16.1278,1668
16.1306,1670
16.1333,1667
16.1361,1679
16.1389,1667
16.1417,1661
16.1444,1651
16.1472,1650
16.1500,1650
16.1528,1656
16.1556,1657
16.1583,1647
16.1611,1636
16.1639,1625
16.1667,1612
16.1694,1617
16.1722,1602
16.1750,1571
16.1778,1510
16.1806,1457
16.1833,1408
16.1861,1386
16.1889,1388
16.1917,1461
16.1944,1616
16.1972,1824
16.2000,2042
16.2028,2322
16.2056,2629
16.2083,2924
16.2111,3166
16.2139,3292
16.2167,3280
16.2194,3087
16.2222,2686
16.2250,2204
16.2278,1770
16.2306,1484
16.2333,1362
16.2361,1354
16.2389,1415
16.2417,1497
16.2444,1586
16.2472,1630
16.2500,1638
16.2528,1626
16.2556,1598
16.2583,1586
16.2611,1582
16.2639,1589
16.2667,1598
16.2694,1603
16.2722,1610
16.2750,1610
16.2778,1612
16.2806,1613
16.2833,1622
16.2861,1623
16.2889,1625
16.2917,1623
16.2944,1611
16.2972,1607
16.3000,1602
16.3028,1620
16.3056,1649
16.3083,1665
16.3111,1679
16.3139,1655
16.3167,1641
16.3194,1628
16.3222,1625
16.3250,1641
16.3278,1664
16.3306,1676
16.3333,1680
16.3361,1674
16.3389,1672
16.3417,1669
16.3444,1667
16.3472,1672
16.3500,1671
16.3528,1676
16.3556,1678
16.3583,1677
16.3611,1686
16.3639,1694
16.3667,1695
16.3694,1696
16.3722,1683
16.3750,1682
16.3778,1677
16.3806,1678
16.3833,1682
16.3861,1700
16.3889,1711
16.3917,1715
16.3944,1698
16.3972,1688
16.4000,1679
16.4028,1691
16.4056,1687
16.4083,1712
16.4111,1723
16.4139,1740
16.4167,1750
16.4194,1750
16.4222,1698
16.4250,1706
16.4278,1721
16.4306,1733
16.4333,1730
16.4361,1732
16.4389,1735
16.4417,1726
16.4444,1741
16.4472,1738
16.4500,1734
16.4528,1736
16.4556,1735
16.4583,1741
16.4611,1751
16.4639,1750
16.4667,1744
16.4694,1746
16.4722,1756
16.4750,1753
16.4778,1756
16.4806,1780
16.4833,1787
16.4861,1800
16.4889,1808
16.4917,1821
16.4944,1847
16.4972,1861
16.5000,1874
16.5028,1883
16.5056,1903
16.5083,1912
16.5111,1928
16.5139,1938
16.5167,1943
16.5194,1962
16.5222,1975
16.5250,1996
16.5278,2011
16.5306,2003
16.5333,1973
16.5361,1937
16.5389,1903
16.5417,1886
16.5444,1871
16.5472,1835
16.5500,1802
16.5528,1779
16.5556,1753
16.5583,1737
16.5611,1705
16.5639,1683
16.5667,1671
16.5694,1671
16.5722,1669
16.5750,1666
16.5778,1666
16.5806,1657
16.5833,1646
16.5861,1646
16.5889,1658
16.5917,1663
16.5944,1645
16.5972,1646
16.6000,1644
16.6028,1638
16.6056,1647
16.6083,1648
16.6111,1646
16.6139,1637
16.6167,1637
16.6194,1625
16.6222,1592
16.6250,1541
16.6278,1460
16.6306,1396
16.6333,1369
16.6361,1350
16.6389,1394
16.6417,1515
16.6444,1721
16.6472,1938
16.6500,2168
16.6528,2451
16.6556,2766
16.6583,3016
16.6611,3198
16.6639,3264
16.6667,3150
16.6694,2863
16.6722,2428
16.6750,1952
16.6778,1581
16.6806,1385
16.6833,1355
16.6861,1414
16.6889,1509
16.6917,1591
16.6944,1654
16.6972,1661
16.7000,1639
16.7028,1605
16.7056,1589
16.7083,1577
16.7111,1589
16.7139,1599
16.7167,1600
16.7194,1597
16.7222,1601
16.7250,1594
16.7278,1603
16.7306,1611
16.7333,1612
16.7361,1625
16.7389,1622
16.7417,1621
16.7444,1607
16.7472,1609
16.7500,1607
16.7528,1625
16.7556,1632
16.7583,1649
16.7611,1643
16.7639,1644
16.7667,1629
16.7694,1629
16.7722,1627
16.7750,1640
16.7778,1650
16.7806,1656
16.7833,1653
16.7861,1646
16.7889,1651
16.7917,1659
16.7944,1670
16.7972,1672
16.8000,1668
16.8028,1665
16.8056,1662
16.8083,1663
16.8111,1661
16.8139,1678
16.8167,1678
16.8194,1680
16.8222,1675
16.8250,1667
16.8278,1675
16.8306,1695
16.8333,1706
16.8361,1709
16.8389,1718
16.8417,1722
16.8444,1716
16.8472,1710
16.8500,1717
16.8528,1728
16.8556,1741
16.8583,1741
16.8611,1746
16.8639,1729
16.8667,1734
16.8694,1663
16.8722,1664
16.8750,1675
16.8778,1668
16.8806,1672
16.8833,1670
16.8861,1658
16.8889,1647
16.8917,1645
16.8944,1650
16.8972,1656
16.9000,1668
16.9028,1668
16.9056,1682
16.9083,1686
16.9111,1681
16.9139,1691
16.9167,1698
16.9194,1695
16.9222,1689
16.9250,1692
16.9278,1696
16.9306,1710
16.9333,1711
16.9361,1728
16.9389,1727
16.9417,1736
16.9444,1752
16.9472,1775
16.9500,1799
16.9528,1814
16.9556,1839
16.9583,1853
16.9611,1869
16.9639,1864
16.9667,1872
16.9694,1881
16.9722,1895
16.9750,1912
16.9778,1922
16.9806,1930
16.9833,1931
16.9861,1917
16.9889,1912
16.9917,1889
16.9944,1847
16.9972,1802
17.0000,1759
17.0028,1722
17.0056,1689
17.0083,1676
17.0111,1658
17.0139,1640
17.0167,1624
17.0194,1612
17.0222,1605
17.0250,1600
17.0278,1594
17.0306,1598
17.0333,1608
17.0361,1605
17.0389,1602
17.0417,1599
17.0444,1590
17.0472,1588
17.0500,1583
17.0528,1576
17.0556,1587
17.0583,1592
17.0611,1590
17.0639,1593
17.0667,1605
17.0694,1615
17.0722,1595
17.0750,1556
17.0778,1494
17.0806,1424
17.0833,1365
17.0861,1343
17.0889,1336
17.0917,1381
17.0944,1494
17.0972,1670
17.1000,1868
17.1028,2081
17.1056,2349
17.1083,2654
17.1111,2935
17.1139,3122
17.1167,3194
17.1194,3076
17.1222,2809
17.1250,2391
17.1278,1954
17.1306,1571
17.1333,1372
17.1361,1321
17.1389,1374
17.1417,1482
17.1444,1584
17.1472,1646
17.1500,1659
17.1528,1642
17.1556,1603
17.1583,1582
17.1611,1564
17.1639,1567
17.1667,1581
17.1694,1596
17.1722,1600
17.1750,1591
17.1778,1590
17.1806,1591
17.1833,1580
17.1861,1585
17.1889,1584
17.1917,1593
17.1944,1601
17.1972,1597
17.2000,1606
17.2028,1611
17.2056,1622
17.2083,1632
17.2111,1629
17.2139,1625
17.2167,1618
17.2194,1615
17.2222,1626
17.2250,1634
17.2278,1649
17.2306,1653
17.2333,1647
17.2361,1641
17.2389,1646
17.2417,1652
17.2444,1651
17.2472,1650
17.2500,1658
17.2528,1667
17.2556,1680
17.2583,1681
17.2611,1676
17.2639,1673
17.2667,1681
17.2694,1688
17.2722,1701
17.2750,1698
17.2778,1707
17.2806,1720
17.2833,1719
17.2861,1732
17.2889,1727
17.2917,1725
17.2944,1726
17.2972,1729
17.3000,1725
17.3028,1730
17.3056,1745
17.3083,1748
17.3111,1749
17.3139,1753
17.3167,1750
17.3194,1751
17.3222,1679
17.3250,1693
17.3278,1690
17.3306,1691
17.3333,1688
17.3361,1694
17.3389,1696
17.3417,1703
17.3444,1704
17.3472,1704
17.3500,1714
17.3528,1710
17.3556,1712
17.3583,1707
17.3611,1711
17.3639,1711
17.3667,1718
17.3694,1720
17.3722,1718
17.3750,1727
17.3778,1728
17.3806,1735
17.3833,1742
17.3861,1748
17.3889,1756
17.3917,1756
17.3944,1762
17.3972,1764
17.4000,1765
17.4028,1779
17.4056,1807
17.4083,1839
17.4111,1849
17.4139,1865
17.4167,1874
17.4194,1887
17.4222,1901
17.4250,1914
17.4278,1938
17.4306,1957
17.4333,1957
17.4361,1966
17.4389,1964
17.4417,1968
17.4444,1978
17.4472,1984
17.4500,1964
17.4528,1918
17.4556,1878
17.4583,1831
17.4611,1792
17.4639,1756
17.4667,1740
17.4694,1708
17.4722,1680
17.4750,1656
17.4778,1621
17.4806,1614
17.4833,1613
17.4861,1603
17.4889,1601
17.4917,1597
17.4944,1600
17.4972,1598
17.5000,1598
17.5028,1591
17.5056,1590
17.5083,1589
17.5111,1580
17.5139,1588
17.5167,1595
17.5194,1592
17.5222,1610
17.5250,1603
17.5278,1600
17.5306,1592
17.5333,1573
17.5361,1542
17.5389,1472
17.5417,1404
17.5444,1342
17.5472,1324
17.5500,1329
17.5528,1377
17.5556,1519
17.5583,1719
17.5611,1935
17.5639,2175
17.5667,2473
17.5694,2769
17.5722,2993
17.5750,3142
17.5778,3147
17.5806,2982
17.5833,2660
17.5861,2233
17.5889,1791
17.5917,1482
17.5944,1333
17.5972,1325
17.6000,1400
17.6028,1504
17.6056,1584
17.6083,1633
17.6111,1624
17.6139,1609
17.6167,1580
17.6194,1563
17.6222,1540
17.6250,1542
17.6278,1560
17.6306,1565
17.6333,1568
17.6361,1569
17.6389,1579
17.6417,1585
17.6444,1587
17.6472,1595
17.6500,1595
17.6528,1592
17.6556,1591
17.6583,1594
17.6611,1602
17.6639,1608
17.6667,1621
17.6694,1622
17.6722,1622
17.6750,1626
17.6778,1620
17.6806,1627
17.6833,1634
17.6861,1656
17.6889,1647
17.6917,1649
17.6944,1638
17.6972,1633
17.7000,1626
17.7028,1635
17.7056,1648
17.7083,1657
17.7111,1662
17.7139,1663
17.7167,1674
17.7194,1674
17.7222,1677
17.7250,1685
17.7278,1691
17.7306,1697
17.7333,1692
17.7361,1685
17.7389,1684
17.7417,1701
17.7444,1718
17.7472,1733
17.7500,1737
17.7528,1744
17.7556,1741
17.7583,1730
17.7611,1733
17.7639,1720
17.7667,1715
17.7694,1727
17.7722,1747
17.7750,1752
17.7778,1755
17.7806,1744
17.7833,1639
17.7861,1645
17.7889,1654
17.7917,1657
17.7944,1668
17.7972,1662
17.8000,1662
17.8028,1669
17.8056,1660
17.8083,1664
17.8111,1670
17.8139,1683
17.8167,1703
17.8194,1700
17.8222,1702
17.8250,1704
17.8278,1703
17.8306,1710
17.8333,1713
17.8361,1703
17.8389,1711
17.8417,1706
17.8444,1719
17.8472,1729
17.8500,1728
17.8528,1727
17.8556,1711
17.8583,1703
17.8611,1711
17.8639,1714
17.8667,1733
17.8694,1763
17.8722,1797
17.8750,1826
17.8778,1840
17.8806,1846
17.8833,1851
17.8861,1858
17.8889,1870
17.8917,1884
17.8944,1905
17.8972,1923
17.9000,1945
17.9028,1941
17.9056,1950
17.9083,1968
17.9111,1961
17.9139,1953
17.9167,1930
17.9194,1902
17.9222,1859
17.9250,1840
17.9278,1806
17.9306,1759
17.9333,1725
17.9361,1704
17.9389,1671
17.9417,1649
17.9444,1630
17.9472,1622
17.9500,1623
17.9528,1626
17.9556,1622
17.9583,1611
17.9611,1611
17.9639,1610
17.9667,1607
17.9694,1607
17.9722,1594
17.9750,1605
17.9778,1594
17.9806,1602
17.9833,1599
17.9861,1609
17.9889,1613
17.9917,1604
17.9944,1604
17.9972,1586
18.0000,1582
18.0028,1554
18.0056,1508
18.0083,1448
18.0111,1386
18.0139,1352
18.0167,1347
18.0194,1388
18.0222,1512
18.0250,1703
18.0278,1908
18.0306,2153
18.0333,2427
18.0361,2725
18.0389,2975
18.0417,3126
18.0444,3149
18.0472,3001
18.0500,2710
18.0528,2278
18.0556,1836
18.0583,1492
18.0611,1318
18.0639,1316
18.0667,1391
18.0694,1502
18.0722,1600
18.0750,1634
18.0778,1636
18.0806,1605
18.0833,1584
18.0861,1565
18.0889,1550
18.0917,1566
18.0944,1594
18.0972,1594
18.1000,1597
18.1028,1601
18.1056,1600
18.1083,1602
18.1111,1593
18.1139,1588
18.1167,1590
18.1194,1602
18.1222,1609
18.1250,1612
18.1278,1600
18.1306,1584
18.1333,1572
18.1361,1581
18.1389,1594
18.1417,1588
18.1444,1592
18.1472,1594
18.1500,1614
18.1528,1622
18.1556,1638
18.1583,1631
18.1611,1623
18.1639,1619
18.1667,1622
18.1694,1627
18.1722,1630
18.1750,1637
18.1778,1645
18.1806,1651
18.1833,1650
18.1861,1667
18.1889,1663
18.1917,1675
18.1944,1660
18.1972,1660
18.2000,1665
18.2028,1669
18.2056,1682
18.2083,1694
18.2111,1710
18.2139,1705
18.2167,1712
18.2194,1712
18.2222,1713
18.2250,1706
18.2278,1703
18.2306,1713
18.2333,1725
18.2361,1738
18.2389,1740
18.2417,1729
18.2444,1726
18.2472,1718
18.2500,1646
18.2528,1645
18.2556,1653
18.2583,1657
18.2611,1665
18.2639,1656
18.2667,1657
18.2694,1649
18.2722,1653
18.2750,1654
18.2778,1647
18.2806,1658
18.2833,1662
18.2861,1660
18.2889,1663
18.2917,1660
18.2944,1657
18.2972,1663
18.3000,1663
18.3028,1666
18.3056,1674
18.3083,1676
18.3111,1683
18.3139,1689
18.3167,1693
18.3194,1689
18.3222,1687
18.3250,1668
18.3278,1669
18.3306,1679
18.3333,1688
18.3361,1694
18.3389,1707
18.3417,1719
18.3444,1732
18.3472,1748
18.3500,1765
18.3528,1773
18.3556,1791
18.3583,1792
18.3611,1821
18.3639,1833
18.3667,1852
18.3694,1876
18.3722,1887
18.3750,1896
18.3778,1898
18.3806,1893
18.3833,1889
18.3861,1873
18.3889,1870
18.3917,1853
18.3944,1847
18.3972,1803
18.4000,1766
18.4028,1708
18.4056,1684
18.4083,1666
18.4111,1659
18.4139,1638
18.4167,1626
18.4194,1613
18.4222,1602
18.4250,1585
18.4278,1572
18.4306,1573
18.4333,1568
18.4361,1562
18.4389,1577
18.4417,1581
18.4444,1589
18.4472,1600
18.4500,1591
18.4528,1594
18.4556,1596
18.4583,1603
18.4611,1611
18.4639,1599
18.4667,1595
18.4694,1588
18.4722,1581
18.4750,1560
18.4778,1505
18.4806,1444
18.4833,1377
18.4861,1347
18.4889,1360
18.4917,1383
18.4944,1493
18.4972,1653
18.5000,1845
18.5028,2055
18.5056,2328
18.5083,2639
18.5111,2911
18.5139,3108
18.5167,3186
18.5194,3123
18.5222,2882
18.5250,2475
18.5278,2015
18.5306,1621
18.5333,1379
18.5361,1287
18.5389,1318
18.5417,1401
18.5444,1490
18.5472,1581
18.5500,1630
18.5528,1630
18.5556,1612
18.5583,1577
18.5611,1554
18.5639,1554
18.5667,1556
18.5694,1566
18.5722,1576
18.5750,1591
18.5778,1582
18.5806,1588
18.5833,1581
18.5861,1595
18.5889,1598
18.5917,1603
18.5944,1601
18.5972,1590
18.6000,1599
18.6028,1604
18.6056,1610
18.6083,1612
18.6111,1610
18.6139,1616
18.6167,1616
18.6194,1619
18.6222,1620
18.6250,1638
18.6278,1651
18.6306,1646
18.6333,1648
18.6361,1644
18.6389,1653
18.6417,1647
18.6444,1628
18.6472,1635
18.6500,1651
18.6528,1664
18.6556,1666
18.6583,1662
18.6611,1663
18.6639,1671
18.6667,1669
18.6694,1674
18.6722,1684
18.6750,1707
18.6778,1709
18.6806,1711
18.6833,1719
18.6861,1714
18.6889,1706
18.6917,1696
18.6944,1686
18.6972,1691
18.7000,1701
18.7028,1718
18.7056,1735
18.7083,1747
18.7111,1769
18.7139,1762
18.7167,1763
18.7194,1747
18.7222,1751
18.7250,1693
18.7278,1701
18.7306,1725
18.7333,1721
18.7361,1710
18.7389,1704
18.7417,1700
18.7444,1704
18.7472,1715
18.7500,1731
18.7528,1734
18.7556,1732
18.7583,1726
18.7611,1734
18.7639,1725
18.7667,1729
18.7694,1733
18.7722,1732
18.7750,1746
18.7778,1747
18.7806,1757
18.7833,1749
18.7861,1765
18.7889,1771
18.7917,1799
18.7944,1815
18.7972,1848
18.8000,1871
18.8028,1878
18.8056,1884
18.8083,1892
18.8111,1897
18.8139,1905
18.8167,1919
18.8194,1935
18.8222,1942
18.8250,1970
18.8278,1987
18.8306,1998
18.8333,1966
18.8361,1947
18.8389,1904
18.8417,1866
18.8444,1829
18.8472,1803
18.8500,1779
18.8528,1761
18.8556,1745
18.8583,1720
18.8611,1688
18.8639,1660
18.8667,1646
18.8694,1650
18.8722,1645
18.8750,1640
18.8778,1641
18.8806,1646
18.8833,1649
18.8861,1654
18.8889,1660
18.8917,1649
18.8944,1644
18.8972,1633
18.9000,1636
18.9028,1639
18.9056,1645
18.9083,1648
18.9111,1643
18.9139,1646
18.9167,1629
18.9194,1626
18.9222,1605
18.9250,1572
18.9278,1521
18.9306,1469
18.9333,1436
18.9361,1410
18.9389,1417
18.9417,1483
18.9444,1609
18.9472,1796
18.9500,2015
18.9528,2272
18.9556,2586
18.9583,2865
18.9611,3093
18.9639,3266
18.9667,3280
18.9694,3113
18.9722,2739
18.9750,2257
18.9778,1832
18.9806,1526
18.9833,1375
18.9861,1361
18.9889,1417
18.9917,1497
18.9944,1565
18.9972,1613
19.0000,1633
19.0028,1623
19.0056,1611
19.0083,1610
19.0111,1602
19.0139,1610
19.0167,1626
19.0194,1616
19.0222,1609
19.0250,1604
19.0278,1609
19.0306,1607
19.0333,1616
19.0361,1624
19.0389,1627
19.0417,1632
19.0444,1610
19.0472,1605
19.0500,1596
19.0528,1607
19.0556,1638
19.0583,1657
19.0611,1655
19.0639,1642
19.0667,1636
19.0694,1633
19.0722,1644
19.0750,1669
19.0778,1664
19.0806,1666
19.0833,1661
19.0861,1650
19.0889,1649
19.0917,1651
19.0944,1659
19.0972,1661
19.1000,1684
19.1028,1687
19.1056,1674
19.1083,1654
19.1111,1667
19.1139,1677
19.1167,1704
19.1194,1714
19.1222,1708
19.1250,1690
19.1278,1689
19.1306,1693
19.1333,1693
19.1361,1690
19.1389,1693
19.1417,1689
19.1444,1688
19.1472,1694
19.1500,1709
19.1528,1728
19.1556,1740
19.1583,1730
19.1611,1741
19.1639,1748
19.1667,1758
19.1694,1782
19.1722,1745
19.1750,1752
19.1778,1760
19.1806,1755
19.1833,1747
19.1861,1729
19.1889,1717
19.1917,1714
19.1944,1732
19.1972,1756
19.2000,1764
19.2028,1762
19.2056,1759
19.2083,1755
19.2111,1760
19.2139,1764
19.2167,1767
19.2194,1768
19.2222,1778
19.2250,1803
19.2278,1835
19.2306,1833
19.2333,1853
19.2361,1871
19.2389,1884
19.2417,1890
19.2444,1897
19.2472,1900
19.2500,1914
19.2528,1921
19.2556,1936
19.2583,1949
19.2611,1953
19.2639,1959
19.2667,1959
19.2694,1947
19.2722,1928
19.2750,1921
19.2778,1895
19.2806,1867
19.2833,1828
19.2861,1797
19.2889,1771
19.2917,1744
19.2944,1715
19.2972,1695
19.3000,1690
19.3028,1680
19.3056,1681
19.3083,1687
19.3111,1680
19.3139,1681
19.3167,1669
19.3194,1666
19.3222,1652
19.3250,1650
19.3278,1643
19.3306,1649
19.3333,1646
19.3361,1649
19.3389,1656
19.3417,1642
19.3444,1636
19.3472,1628
19.3500,1622
19.3528,1633
19.3556,1626
19.3583,1612
19.3611,1562
19.3639,1504
19.3667,1438
19.3694,1403
19.3722,1385
19.3750,1398
19.3778,1490
19.3806,1652
19.3833,1870
19.3861,2097
19.3889,2381
19.3917,2702
19.3944,2996
19.3972,3228
19.4000,3344
19.4028,3291
19.4056,3047
19.4083,2628
19.4111,2121
19.4139,1721
19.4167,1466
19.4194,1361
19.4222,1375
19.4250,1442
19.4278,1538
19.4306,1624
19.4333,1661
19.4361,1652
19.4389,1626
19.4417,1593
19.4444,1580
19.4472,1580
19.4500,1592
19.4528,1607
19.4556,1616
19.4583,1619
19.4611,1617
19.4639,1615
19.4667,1611
19.4694,1609
19.4722,1618
19.4750,1624
19.4778,1630
19.4806,1624
19.4833,1627
19.4861,1623
19.4889,1634
19.4917,1644
19.4944,1653
19.4972,1657
19.5000,1654
19.5028,1637
19.5056,1637
19.5083,1647
19.5111,1662
19.5139,1676
19.5167,1678
19.5194,1665
19.5222,1665
19.5250,1667
19.5278,1672
19.5306,1684
19.5333,1692
19.5361,1686
19.5389,1682
19.5417,1680
19.5444,1676
19.5472,1683
19.5500,1695
19.5528,1713
19.5556,1706
19.5583,1699
19.5611,1690
19.5639,1684
19.5667,1677
19.5694,1691
19.5722,1698
19.5750,1706
19.5778,1715
19.5806,1708
19.5833,1705
19.5861,1714
19.5889,1727
19.5917,1744
19.5944,1760
19.5972,1764
19.6000,1759
19.6028,1746
19.6056,1742
19.6083,1743
19.6111,1741
19.6139,1745
19.6167,1756
19.6194,1760
19.6222,1753
19.6250,1751
19.6278,1747
19.6306,1742
19.6333,1731
19.6361,1726
19.6389,1715
19.6417,1717
19.6444,1710
19.6472,1702
19.6500,1700
19.6528,1703
19.6556,1707
19.6583,1715
19.6611,1714
19.6639,1714
19.6667,1703
19.6694,1702
19.6722,1708
19.6750,1718
19.6778,1722
19.6806,1721
19.6833,1730
19.6861,1722
19.6889,1717
19.6917,1717
19.6944,1726
19.6972,1730
19.7000,1728
19.7028,1737
19.7056,1749
19.7083,1764
19.7111,1783
19.7139,1795
19.7167,1814
19.7194,1833
19.7222,1850
19.7250,1847
19.7278,1859
19.7306,1869
19.7333,1887
19.7361,1892
19.7389,1902
19.7417,1914
19.7444,1918
19.7472,1938
19.7500,1961
19.7528,1966
19.7556,1965
19.7583,1966
19.7611,1958
19.7639,1927
19.7667,1907
19.7694,1881
19.7722,1854
19.7750,1819
19.7778,1792
19.7806,1767
19.7833,1749
19.7861,1723
19.7889,1701
19.7917,1695
19.7944,1686
19.7972,1684
19.8000,1670
19.8028,1670
19.8056,1653
19.8083,1649
19.8111,1648
19.8139,1641
19.8167,1638
19.8194,1634
19.8222,1639
19.8250,1649
19.8278,1660
19.8306,1666
19.8333,1648
19.8361,1642
19.8389,1638
19.8417,1628
19.8444,1616
19.8472,1586
19.8500,1554
19.8528,1488
19.8556,1414
19.8583,1358
19.8611,1332
19.8639,1335
19.8667,1387
19.8694,1536
19.8722,1736
19.8750,1937
19.8778,2171
19.8806,2457
19.8833,2772
19.8861,3038
19.8889,3226
19.8917,3258
19.8944,3103
19.8972,2772
19.9000,2308
19.9028,1842
19.9056,1507
19.9083,1344
19.9111,1322
19.9139,1404
19.9167,1491
19.9194,1573
19.9222,1612
19.9250,1617
19.9278,1610
19.9306,1593
19.9333,1570
19.9361,1559
19.9389,1562
19.9417,1568
19.9444,1579
19.9472,1581
19.9500,1579
19.9528,1576
19.9556,1576
19.9583,1585
19.9611,1592
19.9639,1596
19.9667,1599
19.9694,1591
19.9722,1593
19.9750,1599
19.9778,1600
19.9806,1608
19.9833,1606
19.9861,1613
19.9889,1613
19.9917,1614
19.9944,1627
19.9972,1640
20.0000,1640
20.0028,1632
20.0056,1626
20.0083,1621
20.0111,1622
20.0139,1624
20.0167,1621
20.0194,1621
20.0222,1648
20.0250,1643
20.0278,1634
20.0306,1624
20.0333,1633
20.0361,1636
20.0389,1655
20.0417,1669
20.0444,1683
20.0472,1677
20.0500,1663
20.0528,1654
20.0556,1655
20.0583,1669
20.0611,1689
20.0639,1691
20.0667,1686
20.0694,1700
20.0722,1684
20.0750,1693
20.0778,1707
20.0806,1709
20.0833,1718
20.0861,1726
20.0889,1734
20.0917,1737
20.0944,1729
20.0972,1673
20.1000,1676
20.1028,1678
20.1056,1681
20.1083,1685
20.1111,1681
20.1139,1686
20.1167,1689
20.1194,1699
20.1222,1700
20.1250,1700
20.1278,1693
20.1306,1689
20.1333,1696
20.1361,1699
20.1389,1711
20.1417,1726
20.1444,1720
20.1472,1727
20.1500,1722
20.1528,1736
20.1556,1749
20.1583,1775
20.1611,1805
20.1639,1819
20.1667,1842
20.1694,1844
20.1722,1855
20.1750,1878
20.1778,1913
20.1806,1931
20.1833,1951
20.1861,1969
20.1889,1963
20.1917,1976
20.1944,1992
20.1972,1989
20.2000,1990
20.2028,1972
20.2056,1954
20.2083,1925
20.2111,1895
20.2139,1848
20.2167,1802
20.2194,1769
20.2222,1743
20.2250,1722
20.2278,1704
20.2306,1667
20.2333,1647
20.2361,1635
20.2389,1627
20.2417,1634
20.2444,1638
20.2472,1624
20.2500,1624
20.2528,1628
20.2556,1623
20.2583,1620
20.2611,1623
20.2639,1624
20.2667,1623
20.2694,1617
20.2722,1621
20.2750,1615
20.2778,1612
20.2806,1621
20.2833,1611
20.2861,1604
20.2889,1585
20.2917,1534
20.2944,1476
20.2972,1419
20.3000,1355
20.3028,1334
20.3056,1334
20.3083,1392
20.3111,1523
20.3139,1713
20.3167,1923
20.3194,2150
20.3222,2447
20.3250,2775
20.3278,3051
20.3306,3207
20.3333,3197
20.3361,2997
20.3389,2657
20.3417,2195
20.3444,1767
20.3472,1460
20.3500,1339
20.3528,1349
20.3556,1437
20.3583,1547
20.3611,1631
20.3639,1660
20.3667,1661
20.3694,1625
20.3722,1599
20.3750,1574
20.3778,1568
20.3806,1579
20.3833,1592
20.3861,1608
20.3889,1603
20.3917,1594
20.3944,1575
20.3972,1579
20.4000,1592
20.4028,1610
20.4056,1622
20.4083,1618
20.4111,1614
20.4139,1608
20.4167,1618
20.4194,1633
20.4222,1649
20.4250,1666
20.4278,1663
20.4306,1657
20.4333,1643
20.4361,1647
20.4389,1647
20.4417,1645
20.4444,1651
20.4472,1657
20.4500,1655
20.4528,1646
20.4556,1640
20.4583,1643
20.4611,1655
20.4639,1674
20.4667,1676
20.4694,1677
20.4722,1678
20.4750,1683
20.4778,1694
20.4806,1701
20.4833,1701
20.4861,1706
20.4889,1698
20.4917,1691
20.4944,1699
20.4972,1704
20.5000,1719
20.5028,1728
20.5056,1740
20.5083,1737
20.5111,1728
20.5139,1725
20.5167,1718
20.5194,1736
20.5222,1759
20.5250,1772
20.5278,1780
20.5306,1773
20.5333,1763
20.5361,1758
20.5389,1718
20.5417,1721
20.5444,1730
20.5472,1727
20.5500,1731
20.5528,1720
20.5556,1720
20.5583,1712
20.5611,1718
20.5639,1722
20.5667,1729
20.5694,1735
20.5722,1728
20.5750,1731
20.5778,1738
20.5806,1736
20.5833,1735
20.5861,1735
20.5889,1741
20.5917,1736
20.5944,1741
20.5972,1757
20.6000,1760
20.6028,1759
20.6056,1754
20.6083,1752
20.6111,1752
20.6139,1741
20.6167,1741
20.6194,1736
20.6222,1738
20.6250,1748
20.6278,1767
20.6306,1785
20.6333,1803
20.6361,1831
20.6389,1851
20.6417,1864
20.6444,1882
20.6472,1894
20.6500,1900
20.6528,1906
20.6556,1914
20.6583,1938
20.6611,1952
20.6639,1967
20.6667,1976
20.6694,1973
20.6722,1973
20.6750,1988
20.6778,1990
20.6806,1975
20.6833,1953
20.6861,1891
20.6889,1833
20.6917,1796
20.6944,1775
20.6972,1754
20.7000,1747
20.7028,1720
20.7056,1699
20.7083,1667
20.7111,1654
20.7139,1651
20.7167,1645
20.7194,1639
20.7222,1636
20.7250,1631
20.7278,1627
20.7306,1629
20.7333,1634
20.7361,1623
20.7389,1612
20.7417,1614
20.7444,1631
20.7472,1640
20.7500,1654
20.7528,1657
20.7556,1634
20.7583,1620
20.7611,1615
20.7639,1600
20.7667,1567
20.7694,1514
20.7722,1454
20.7750,1407
20.7778,1385
20.7806,1394
20.7833,1436
20.7861,1559
20.7889,1735
20.7917,1938
20.7944,2161
20.7972,2435
20.8000,2752
20.8028,3020
20.8056,3207
20.8083,3238
20.8111,3103
20.8139,2816
20.8167,2381
20.8194,1919
20.8222,1566
20.8250,1397
20.8278,1369
20.8306,1424
20.8333,1519
20.8361,1609
20.8389,1659
20.8417,1676
20.8444,1656
20.8472,1630
20.8500,1611
20.8528,1598
20.8556,1592
20.8583,1600
20.8611,1604
20.8639,1616
20.8667,1618
20.8694,1616
20.8722,1619
20.8750,1625
20.8778,1639
20.8806,1641
20.8833,1638
20.8861,1629
20.8889,1619
20.8917,1625
20.8944,1634
20.8972,1636
20.9000,1654
20.9028,1662
20.9056,1681
20.9083,1678
20.9111,1680
20.9139,1677
20.9167,1687
20.9194,1683
20.9222,1680
20.9250,1677
20.9278,1672
20.9306,1672
20.9333,1690
20.9361,1694
20.9389,1709
20.9417,1717
20.9444,1719
20.9472,1705
20.9500,1706
20.9528,1707
20.9556,1709
20.9583,1715
20.9611,1741
20.9639,1748
20.9667,1740
20.9694,1741
20.9722,1739
20.9750,1747
20.9778,1745
20.9806,1763
20.9833,1760
20.9861,1757
20.9889,1767
20.9917,1762
20.9944,1790
20.9972,1803
21.0000,1822
21.0028,1824
21.0056,1816
21.0083,1817
21.0111,1805
21.0139,1719
21.0167,1718
21.0194,1725
21.0222,1721
21.0250,1710
21.0278,1709
21.0306,1697
21.0333,1704
21.0361,1728
21.0389,1738
21.0417,1730
21.0444,1726
21.0472,1724
21.0500,1720
21.0528,1717
21.0556,1723
21.0583,1727
21.0611,1724
21.0639,1736
21.0667,1738
21.0694,1741
21.0722,1754
21.0750,1765
21.0778,1767
21.0806,1760
21.0833,1760
21.0861,1763
21.0889,1755
21.0917,1749
21.0944,1751
21.0972,1755
21.1000,1763
21.1028,1776
21.1056,1769
21.1083,1759
21.1111,1756
21.1139,1747
21.1167,1742
21.1194,1738
21.1222,1738
21.1250,1742
21.1278,1752
21.1306,1743
21.1333,1743
21.1361,1741
21.1389,1724
21.1417,1716
21.1444,1723
21.1472,1716
21.1500,1718
21.1528,1717
21.1556,1733
21.1583,1741
21.1611,1740
21.1639,1745
21.1667,1759
21.1694,1774
21.1722,1793
21.1750,1811
21.1778,1846
21.1806,1859
21.1833,1866
21.1861,1878
21.1889,1879
21.1917,1895
21.1944,1907
21.1972,1927
21.2000,1941
21.2028,1930
21.2056,1938
21.2083,1947
21.2111,1940
21.2139,1936
21.2167,1908
21.2194,1878
21.2222,1834
21.2250,1793
21.2278,1762
21.2306,1738
21.2333,1734
21.2361,1709
21.2389,1681
21.2417,1663
21.2444,1651
21.2472,1633
21.2500,1617
21.2528,1618
21.2556,1620
21.2583,1632
21.2611,1636
21.2639,1635
21.2667,1628
21.2694,1614
21.2722,1611
21.2750,1607
21.2778,1603
21.2806,1612
21.2833,1622
21.2861,1624
21.2889,1617
21.2917,1617
21.2944,1611
21.2972,1592
21.3000,1549
21.3028,1509
21.3056,1482
21.3083,1467
21.3111,1461
21.3139,1489
21.3167,1571
21.3194,1725
21.3222,1917
21.3250,2124
21.3278,2356
21.3306,2644
21.3333,2903
21.3361,3085
21.3389,3168
21.3417,3080
21.3444,2832
21.3472,2422
21.3500,1973
21.3528,1591
21.3556,1380
21.3583,1321
21.3611,1365
21.3639,1447
21.3667,1542
21.3694,1600
21.3722,1629
21.3750,1634
21.3778,1615
21.3806,1588
21.3833,1569
21.3861,1552
21.3889,1555
21.3917,1563
21.3944,1566
21.3972,1566
21.4000,1573
21.4028,1578
21.4056,1584
21.4083,1590
21.4111,1588
21.4139,1590
21.4167,1585
21.4194,1579
21.4222,1574
21.4250,1585
21.4278,1607
21.4306,1622
21.4333,1622
21.4361,1631
21.4389,1643
21.4417,1643
21.4444,1639
21.4472,1638
21.4500,1647
21.4528,1650
21.4556,1658
21.4583,1647
21.4611,1648
21.4639,1647
21.4667,1661
21.4694,1673
21.4722,1676
21.4750,1659
21.4778,1677
21.4806,1659
21.4833,1661
21.4861,1666
21.4889,1688
21.4917,1702
21.4944,1714
21.4972,1723
21.5000,1718
21.5028,1717
21.5056,1717
21.5083,1724
21.5111,1734
21.5139,1744
21.5167,1744
21.5194,1745
21.5222,1746
21.5250,1748
21.5278,1755
21.5306,1758
21.5333,1756
21.5361,1765
21.5389,1757
21.5417,1746
21.5444,1664
21.5472,1669
21.5500,1678
21.5528,1674
21.5556,1673
21.5583,1665
21.5611,1654
21.5639,1654
21.5667,1661
21.5694,1674
21.5722,1675
21.5750,1664
21.5778,1665
21.5806,1661
21.5833,1661
21.5861,1672
21.5889,1679
21.5917,1701
21.5944,1711
21.5972,1712
21.6000,1712
21.6028,1707
21.6056,1706
21.6083,1712
21.6111,1718
21.6139,1717
21.6167,1713
21.6194,1717
21.6222,1723
21.6250,1726
21.6278,1733
21.6306,1730
21.6333,1731
21.6361,1721
21.6389,1713
21.6417,1705
21.6444,1702
21.6472,1697
21.6500,1705
21.6528,1718
21.6556,1724
21.6583,1719
21.6611,1709
21.6639,1709
21.6667,1706
21.6694,1710
21.6722,1697
21.6750,1699
21.6778,1695
21.6806,1695
21.6833,1696
21.6861,1700
21.6889,1701
21.6917,1716
21.6944,1725
21.6972,1750
21.7000,1776
21.7028,1787
21.7056,1814
21.7083,1824
21.7111,1829
21.7139,1833
21.7167,1844
21.7194,1874
21.7222,1901
21.7250,1927
21.7278,1931
21.7306,1949
21.7333,1953
21.7361,1952
21.7389,1944
21.7417,1917
21.7444,1869
21.7472,1825
21.7500,1786
21.7528,1752
21.7556,1741
21.7583,1737
21.7611,1728
21.7639,1711
21.7667,1684
21.7694,1660
21.7722,1633
21.7750,1628
21.7778,1619
21.7806,1612
21.7833,1621
21.7861,1617
21.7889,1615
21.7917,1608
21.7944,1600
21.7972,1604
21.8000,1617
21.8028,1625
21.8056,1628
21.8083,1625
21.8111,1630
21.8139,1628
21.8167,1612
21.8194,1591
21.8222,1581
21.8250,1560
21.8278,1538
21.8306,1497
21.8333,1465
21.8361,1428
21.8389,1420
21.8417,1439
21.8444,1506
21.8472,1661
21.8500,1850
21.8528,2052
21.8556,2285
21.8583,2571
21.8611,2834
21.8639,3051
21.8667,3181
21.8694,3191
21.8722,3004
21.8750,2628
21.8778,2153
21.8806,1730
21.8833,1438
21.8861,1315
21.8889,1322
21.8917,1379
21.8944,1457
21.8972,1546
21.9000,1600
21.9028,1617
21.9056,1603
21.9083,1583
21.9111,1569
21.9139,1560
21.9167,1578
21.9194,1584
21.9222,1593
21.9250,1577
21.9278,1572
21.9306,1563
21.9333,1578
21.9361,1580
21.9389,1579
21.9417,1595
21.9444,1597
21.9472,1599
21.9500,1592
21.9528,1595
21.9556,1610
21.9583,1622
21.9611,1639
21.9639,1624
21.9667,1628
21.9694,1629
21.9722,1630
21.9750,1634
21.9778,1643
21.9806,1649
21.9833,1654
21.9861,1650
21.9889,1642
21.9917,1651
21.9944,1664
21.9972,1673
22.0000,1675
22.0028,1672
22.0056,1669
22.0083,1668
22.0111,1664
22.0139,1682
22.0167,1687
22.0194,1692
22.0222,1696
22.0250,1697
22.0278,1703
22.0306,1694
22.0333,1702
22.0361,1714
22.0389,1728
22.0417,1731
22.0444,1739
22.0472,1744
22.0500,1743
22.0528,1745
22.0556,1748
22.0583,1752
22.0611,1747
22.0639,1755
22.0667,1763
22.0694,1764
22.0722,1767
22.0750,1667
22.0778,1676
22.0806,1675
22.0833,1673
22.0861,1670
22.0889,1676
22.0917,1678
22.0944,1682
22.0972,1689
22.1000,1686
22.1028,1691
22.1056,1684
22.1083,1689
22.1111,1698
22.1139,1712
22.1167,1723
22.1194,1735
22.1222,1734
22.1250,1730
22.1278,1724
22.1306,1729
22.1333,1734
22.1361,1748
22.1389,1758
22.1417,1761
22.1444,1757
22.1472,1752
22.1500,1752
22.1528,1745
22.1556,1747
22.1583,1757
22.1611,1750
22.1639,1749
22.1667,1747
22.1694,1749
22.1722,1740
22.1750,1734
22.1778,1727
22.1806,1723
22.1833,1717
22.1861,1721
22.1889,1723
22.1917,1729
22.1944,1726
22.1972,1727
22.2000,1727
22.2028,1730
22.2056,1726
22.2083,1722
22.2111,1708
22.2139,1724
22.2167,1729
22.2194,1746
22.2222,1761
22.2250,1782
22.2278,1816
22.2306,1834
22.2333,1843
22.2361,1851
22.2389,1853
22.2417,1858
22.2444,1859
22.2472,1857
22.2500,1890
22.2528,1923
22.2556,1948
22.2583,1964
22.2611,1973
22.2639,1984
22.2667,1988
22.2694,1973
22.2722,1943
22.2750,1898
22.2778,1853
22.2806,1813
22.2833,1783
22.2861,1760
22.2889,1761
22.2917,1744
22.2944,1730
22.2972,1695
22.3000,1661
22.3028,1645
22.3056,1639
22.3083,1634
22.3111,1641
22.3139,1641
22.3167,1641
22.3194,1642
22.3222,1640
22.3250,1628
22.3278,1627
22.3306,1624
22.3333,1626
22.3361,1625
22.3389,1626
22.3417,1617
22.3444,1617
22.3472,1609
22.3500,1590
22.3528,1578
22.3556,1559
22.3583,1526
22.3611,1499
22.3639,1485
22.3667,1483
22.3694,1493
22.3722,1546
22.3750,1666
22.3778,1842
22.3806,2027
22.3833,2225
22.3861,2485
22.3889,2769
22.3917,2990
22.3944,3153
22.3972,3186
22.4000,3032
22.4028,2698
22.4056,2235
22.4083,1803
22.4111,1489
22.4139,1352
22.4167,1348
22.4194,1407
22.4222,1501
22.4250,1585
22.4278,1635
22.4306,1640
22.4333,1618
22.4361,1590
22.4389,1580
22.4417,1582
22.4444,1599
22.4472,1602
22.4500,1600
22.4528,1599
22.4556,1595
22.4583,1591
22.4611,1605
22.4639,1625
22.4667,1633
22.4694,1640
22.4722,1645
22.4750,1632
22.4778,1632
22.4806,1625
22.4833,1633
22.4861,1647
22.4889,1649
22.4917,1646
22.4944,1645
22.4972,1643
22.5000,1641
22.5028,1657
22.5056,1668
22.5083,1681
22.5111,1674
22.5139,1669
22.5167,1668
22.5194,1668
22.5222,1666
22.5250,1676
22.5278,1688
22.5306,1692
22.5333,1696
22.5361,1695
22.5389,1696
22.5417,1694
22.5444,1706
22.5472,1709
22.5500,1709
22.5528,1716
22.5556,1721
22.5583,1721
22.5611,1741
22.5639,1742
22.5667,1770
22.5694,1777
22.5722,1785
22.5750,1782
22.5778,1779
22.5806,1769
22.5833,1778
22.5861,1772
22.5889,1770
22.5917,1777
22.5944,1772
22.5972,1791
22.6000,1793
22.6028,1690
22.6056,1700
22.6083,1711
22.6111,1709
22.6139,1690
22.6167,1676
22.6194,1666
22.6222,1673
22.6250,1665
22.6278,1673
22.6306,1676
22.6333,1685
22.6361,1674
22.6389,1683
22.6417,1686
22.6444,1692
22.6472,1707
22.6500,1707
22.6528,1707
22.6556,1704
22.6583,1701
22.6611,1714
22.6639,1728
22.6667,1731
22.6694,1730
22.6722,1723
22.6750,1712
22.6778,1710
22.6806,1716
22.6833,1737
22.6861,1743
22.6889,1747
22.6917,1731
22.6944,1720
22.6972,1698
22.7000,1690
22.7028,1696
22.7056,1700
22.7083,1714
22.7111,1709
22.7139,1710
22.7167,1717
22.7194,1716
22.7222,1718
22.7250,1713
22.7278,1717
22.7306,1705
22.7333,1687
22.7361,1681
22.7389,1681
22.7417,1684
22.7444,1693
22.7472,1704
22.7500,1723
22.7528,1737
22.7556,1761
22.7583,1785
22.7611,1801
22.7639,1805
22.7667,1817
22.7694,1827
22.7722,1837
22.7750,1847
22.7778,1865
22.7806,1893
22.7833,1907
22.7861,1920
22.7889,1920
22.7917,1925
22.7944,1934
22.7972,1928
22.8000,1908
22.8028,1863
22.8056,1827
22.8083,1775
22.8111,1731
22.8139,1711
22.8167,1697
22.8194,1690
22.8222,1672
22.8250,1660
22.8278,1643
22.8306,1631
22.8333,1612
22.8361,1597
22.8389,1596
22.8417,1593
22.8444,1600
22.8472,1608
22.8500,1602
22.8528,1605
22.8556,1611
22.8583,1598
22.8611,1607
22.8639,1615
22.8667,1617
22.8694,1606
22.8722,1602
22.8750,1589
22.8778,1573
22.8806,1552
22.8833,1539
22.8861,1508
22.8889,1469
22.8917,1441
22.8944,1433
22.8972,1447
22.9000,1473
22.9028,1568
22.9056,1734
22.9083,1924
22.9111,2115
22.9139,2357
22.9167,2638
22.9194,2877
22.9222,3056
22.9250,3129
22.9278,3021
22.9306,2759
22.9333,2343
22.9361,1896
22.9389,1522
22.9417,1326
22.9444,1277
22.9472,1338
22.9500,1450
22.9528,1552
22.9556,1600
22.9583,1630
22.9611,1602
22.9639,1575
22.9667,1552
22.9694,1533
22.9722,1541
22.9750,1563
22.9778,1583
22.9806,1576
22.9833,1567
22.9861,1563
22.9889,1568
22.9917,1584
22.9944,1584
22.9972,1584
23.0000,1592
23.0028,1587
23.0056,1596
23.0083,1579
23.0111,1579
23.0139,1587
23.0167,1602
23.0194,1603
23.0222,1609
23.0250,1602
23.0278,1593
23.0306,1595
23.0333,1608
23.0361,1607
23.0389,1609
23.0417,1604
23.0444,1606
23.0472,1606
23.0500,1623
23.0528,1626
23.0556,1644
23.0583,1641
23.0611,1642
23.0639,1641
23.0667,1640
23.0694,1634
23.0722,1640
23.0750,1640
23.0778,1642
23.0806,1645
23.0833,1649
23.0861,1668
23.0889,1686
23.0917,1702
23.0944,1709
23.0972,1716
23.1000,1715
23.1028,1709
23.1056,1703
23.1083,1707
23.1111,1706
23.1139,1706
23.1167,1709
23.1194,1716
23.1222,1721
23.1250,1720
23.1278,1714
23.1306,1605
23.1333,1609
23.1361,1601
23.1389,1604
23.1417,1589
23.1444,1589
23.1472,1592
23.1500,1597
23.1528,1604
23.1556,1609
23.1583,1601
23.1611,1599
23.1639,1592
23.1667,1592
23.1694,1589
23.1722,1600
23.1750,1598
23.1778,1608
23.1806,1617
23.1833,1628
23.1861,1629
23.1889,1631
23.1917,1636
23.1944,1642
23.1972,1637
23.2000,1633
23.2028,1634
23.2056,1641
23.2083,1653
23.2111,1666
23.2139,1676
23.2167,1680
23.2194,1674
23.2222,1652
23.2250,1651
23.2278,1649
23.2306,1646
23.2333,1641
23.2361,1638
23.2389,1635
23.2417,1635
23.2444,1628
23.2472,1634
23.2500,1646
23.2528,1644
23.2556,1646
23.2583,1647
23.2611,1638
23.2639,1621
23.2667,1614
23.2694,1613
23.2722,1618
23.2750,1623
23.2778,1634
23.2806,1643
23.2833,1650
23.2861,1663
23.2889,1681
23.2917,1702
23.2944,1722
23.2972,1744
23.3000,1749
23.3028,1753
23.3056,1757
23.3083,1758
23.3111,1780
23.3139,1807
23.3167,1828
23.3194,1850
23.3222,1861
23.3250,1886
23.3278,1897
23.3306,1906
23.3333,1887
23.3361,1855
23.3389,1813
23.3417,1758
23.3444,1722
23.3472,1696
23.3500,1680
23.3528,1668
23.3556,1654
23.3583,1625
23.3611,1601
23.3639,1575
23.3667,1565
23.3694,1572
23.3722,1575
23.3750,1591
23.3778,1576
23.3806,1570
23.3833,1573
23.3861,1581
23.3889,1591
23.3917,1594
23.3944,1596
23.3972,1595
23.4000,1583
23.4028,1582
23.4056,1587
23.4083,1593
23.4111,1606
23.4139,1603
23.4167,1569
23.4194,1542
23.4222,1499
23.4250,1465
23.4278,1438
23.4306,1428
23.4333,1439
23.4361,1486
23.4389,1611
23.4417,1800
23.4444,2004
23.4472,2214
23.4500,2487
23.4528,2766
23.4556,2981
23.4583,3146
23.4611,3191
23.4639,3060
23.4667,2723
23.4694,2261
23.4722,1806
23.4750,1472
23.4778,1331
23.4806,1303
23.4833,1352
23.4861,1440
23.4889,1531
23.4917,1588
23.4944,1604
23.4972,1588
23.5000,1560
23.5028,1558
23.5056,1552
23.5083,1556
23.5111,1559
23.5139,1564
23.5167,1556
23.5194,1555
23.5222,1565
23.5250,1568
23.5278,1570
23.5306,1578
23.5333,1586
23.5361,1599
23.5389,1594
23.5417,1593
23.5444,1587
23.5472,1587
23.5500,1606
23.5528,1624
23.5556,1633
23.5583,1629
23.5611,1617
23.5639,1613
23.5667,1608
23.5694,1620
23.5722,1621
23.5750,1626
23.5778,1638
23.5806,1652
23.5833,1661
23.5861,1667
23.5889,1668
23.5917,1661
23.5944,1665
23.5972,1660
23.6000,1664
23.6028,1652
23.6056,1660
23.6083,1663
23.6111,1678
23.6139,1701
23.6167,1709
23.6194,1720
23.6222,1721
23.6250,1724
23.6278,1733
23.6306,1742
23.6333,1755
23.6361,1760
23.6389,1761
23.6417,1755
23.6444,1758
23.6472,1780
23.6500,1799
23.6528,1808
23.6556,1808
23.6583,1805
23.6611,1797
23.6639,1793
23.6667,1676
23.6694,1679
23.6722,1686
23.6750,1701
23.6778,1712
23.6806,1708
23.6833,1704
23.6861,1706
23.6889,1709
23.6917,1703
23.6944,1701
23.6972,1692
23.7000,1689
23.7028,1684
23.7056,1707
23.7083,1726
23.7111,1733
23.7139,1741
23.7167,1733
23.7194,1723
23.7222,1720
23.7250,1726
23.7278,1733
23.7306,1736
23.7333,1744
23.7361,1738
23.7389,1718
23.7417,1715
23.7444,1724
23.7472,1731
23.7500,1759
23.7528,1773
23.7556,1784
23.7583,1770
23.7611,1763
23.7639,1762
23.7667,1761
23.7694,1785
23.7722,1799
23.7750,1822
23.7778,1836
23.7806,1837
23.7833,1850
23.7861,1862
23.7889,1870
23.7917,1895
23.7944,1916
23.7972,1929
23.8000,1937
23.8028,1950
23.8056,1953
23.8083,1964
23.8111,1958
23.8139,1936
23.8167,1912
23.8194,1875
23.8222,1833
23.8250,1798
23.8278,1758
23.8306,1727
23.8333,1719
23.8361,1709
23.8389,1710
23.8417,1693
23.8444,1675
23.8472,1659
23.8500,1648
23.8528,1650
23.8556,1641
23.8583,1645
23.8611,1650
23.8639,1651
23.8667,1653
23.8694,1652
23.8722,1644
23.8750,1641
23.8778,1636
23.8806,1620
23.8833,1618
23.8861,1627
23.8889,1629
23.8917,1641
23.8944,1635
23.8972,1626
23.9000,1601
23.9028,1552
23.9056,1511
23.9083,1465
23.9111,1440
23.9139,1437
23.9167,1474
23.9194,1574
23.9222,1737
23.9250,1938
23.9278,2167
23.9306,2442
23.9333,2764
23.9361,3045
23.9389,3245
23.9417,3343
23.9444,3308
23.9472,3094
23.9500,2656
23.9528,2161
23.9556,1740
23.9583,1467
23.9611,1354
23.9639,1358
23.9667,1431
23.9694,1513
23.9722,1587
23.9750,1626
23.9778,1637
23.9806,1626
23.9833,1602
23.9861,1598
23.9889,1599
23.9917,1609
23.9944,1615
23.9972,1614
24.0000,1613
24.0028,1605
24.0056,1613
24.0083,1604
24.0111,1617
24.0139,1627
24.0167,1644
24.0194,1643
24.0222,1639
24.0250,1641
24.0278,1643
24.0306,1653
24.0333,1652
24.0361,1654
24.0389,1654
24.0417,1650
24.0444,1651
24.0472,1650
24.0500,1654
24.0528,1661
24.0556,1666
24.0583,1675
24.0611,1665
24.0639,1671
24.0667,1656
24.0694,1661
24.0722,1681
24.0750,1691
24.0778,1703
24.0806,1701
24.0833,1682
24.0861,1682
24.0889,1691
24.0917,1701
24.0944,1708
24.0972,1701
24.1000,1695
24.1028,1694
24.1056,1704
24.1083,1719
24.1111,1729
24.1139,1730
24.1167,1738
24.1194,1737
24.1222,1739
24.1250,1740
24.1278,1745
24.1306,1755
24.1333,1768
24.1361,1779
24.1389,1776
24.1417,1777
24.1444,1787
24.1472,1801
24.1500,1712
24.1528,1711
24.1556,1716
24.1583,1714
24.1611,1707
24.1639,1697
24.1667,1702
24.1694,1717
24.1722,1725
24.1750,1726
24.1778,1731
24.1806,1717
24.1833,1720
24.1861,1719
24.1889,1720
24.1917,1719
24.1944,1721
24.1972,1724
24.2000,1732
24.2028,1723
24.2056,1727
24.2083,1730
24.2111,1742
24.2139,1747
24.2167,1748
24.2194,1743
24.2222,1735
24.2250,1741
24.2278,1744
24.2306,1748
24.2333,1766
24.2361,1775
24.2389,1775
24.2417,1781
24.2444,1798
24.2472,1840
24.2500,1854
24.2528,1863
24.2556,1870
24.2583,1867
24.2611,1872
24.2639,1873
24.2667,1880
24.2694,1895
24.2722,1909
24.2750,1926
24.2778,1946
24.2806,1958
24.2833,1949
24.2861,1941
24.2889,1928
24.2917,1889
24.2944,1861
24.2972,1811
24.3000,1782
24.3028,1754
24.3056,1749
24.3083,1738
24.3111,1720
24.3139,1712
24.3167,1683
24.3194,1659
24.3222,1652
24.3250,1638
24.3278,1642
24.3306,1649
24.3333,1648
24.3361,1649
24.3389,1652
24.3417,1644
24.3444,1650
24.3472,1643
24.3500,1641
24.3528,1638
24.3556,1634
24.3583,1625
24.3611,1628
24.3639,1623
24.3667,1622
24.3694,1617
24.3722,1600
24.3750,1556
24.3778,1507
24.3806,1455
24.3833,1404
24.3861,1378
24.3889,1393
24.3917,1457
24.3944,1613
24.3972,1815
24.4000,2035
24.4028,2277
24.4056,2583
24.4083,2898
24.4111,3164
24.4139,3311
24.4167,3313
24.4194,3132
24.4222,2756
24.4250,2267
24.4278,1806
24.4306,1488
24.4333,1352
24.4361,1349
24.4389,1418
24.4417,1513
24.4444,1582
24.4472,1628
24.4500,1638
24.4528,1618
24.4556,1590
24.4583,1575
24.4611,1572
24.4639,1573
24.4667,1591
24.4694,1592
24.4722,1600
24.4750,1597
24.4778,1591
24.4806,1589
24.4833,1600
24.4861,1616
24.4889,1623
24.4917,1613
24.4944,1605
24.4972,1605
24.5000,1607
24.5028,1612
24.5056,1629
24.5083,1634
24.5111,1629
24.5139,1630
24.5167,1610
24.5194,1613
24.5222,1613
24.5250,1630
24.5278,1645
24.5306,1654
24.5333,1647
24.5361,1648
24.5389,1632
24.5417,1638
24.5444,1646
24.5472,1659
24.5500,1675
24.5528,1662
24.5556,1647
24.5583,1642
24.5611,1653
24.5639,1658
24.5667,1673
24.5694,1698
24.5722,1712
24.5750,1718
24.5778,1709
24.5806,1705
24.5833,1709
24.5861,1726
24.5889,1738
24.5917,1744
24.5944,1738
24.5972,1742
24.6000,1740
24.6028,1736
24.6056,1755
24.6083,1763
24.6111,1768
24.6139,1775
24.6167,1763
24.6194,1751
24.6222,1686
24.6250,1682
24.6278,1679
24.6306,1682
24.6333,1680
24.6361,1674
24.6389,1668
24.6417,1663
24.6444,1687
24.6472,1677
24.6500,1687
24.6528,1669
24.6556,1664
24.6583,1671
24.6611,1675
24.6639,1686
24.6667,1696
24.6694,1700
24.6722,1719
24.6750,1709
24.6778,1709
24.6806,1707
24.6833,1706
24.6861,1715
24.6889,1715
24.6917,1706
24.6944,1710
24.6972,1707
24.7000,1715
24.7028,1722
24.7056,1731
24.7083,1750
24.7111,1764
24.7139,1778
24.7167,1797
24.7194,1823
24.7222,1831
24.7250,1850
24.7278,1857
24.7306,1856
24.7333,1862
24.7361,1869
24.7389,1882
24.7417,1910
24.7444,1931
24.7472,1947
24.7500,1942
24.7528,1939
24.7556,1915
24.7583,1902
24.7611,1871
24.7639,1844
24.7667,1805
24.7694,1767
24.7722,1725
24.7750,1720
24.7778,1695
24.7806,1672
24.7833,1653
24.7861,1635
24.7889,1633
24.7917,1628
24.7944,1618
24.7972,1617
24.8000,1605
24.8028,1602
24.8056,1601
24.8083,1609
24.8111,1612
24.8139,1605
24.8167,1596
24.8194,1599
24.8222,1596
24.8250,1599
24.8278,1602
24.8306,1591
24.8333,1593
24.8361,1595
24.8389,1598
24.8417,1578
24.8444,1540
24.8472,1492
24.8500,1426
24.8528,1377
24.8556,1358
24.8583,1352
24.8611,1406
24.8639,1542
24.8667,1736
24.8694,1940
24.8722,2181
24.8750,2483
24.8778,2815
24.8806,3075
24.8833,3236
24.8861,3225
24.8889,3035
24.8917,2682
24.8944,2220
24.8972,1770
24.9000,1469
24.9028,1329
24.9056,1322
24.9083,1388
24.9111,1502
24.9139,1588
24.9167,1624
24.9194,1627
24.9222,1600
24.9250,1575
24.9278,1555
24.9306,1550
24.9333,1562
24.9361,1564
24.9389,1572
24.9417,1576
24.9444,1577
24.9472,1568
24.9500,1576
24.9528,1586
24.9556,1586
24.9583,1587
24.9611,1583
24.9639,1585
24.9667,1600
24.9694,1614
24.9722,1615
24.9750,1630
24.9778,1628
24.9806,1620
24.9833,1620
24.9861,1610
24.9889,1614
24.9917,1618
24.9944,1613
24.9972,1629
25.0000,1628
25.0028,1628
25.0056,1628
25.0083,1623
25.0111,1641
25.0139,1645
25.0167,1649
25.0194,1656
25.0222,1665
25.0250,1655
25.0278,1665
25.0306,1661
25.0333,1670
25.0361,1673
25.0389,1677
25.0417,1679
25.0444,1675
25.0472,1673
25.0500,1681
25.0528,1695
25.0556,1714
25.0583,1718
25.0611,1709
25.0639,1714
25.0667,1711
25.0694,1707
25.0722,1713
25.0750,1729
25.0778,1736
25.0806,1741
25.0833,1745
25.0861,1745
25.0889,1743
25.0917,1651
25.0944,1655
25.0972,1652
25.1000,1652
25.1028,1662
25.1056,1676
25.1083,1687
25.1111,1700
25.1139,1699
25.1167,1690
25.1194,1686
25.1222,1676
25.1250,1671
25.1278,1678
25.1306,1678
25.1333,1690
25.1361,1705
25.1389,1706
25.1417,1701
25.1444,1697
25.1472,1697
25.1500,1698
25.1528,1708
25.1556,1719
25.1583,1723
25.1611,1727
25.1639,1725
25.1667,1734
25.1694,1728
25.1722,1750
25.1750,1758
25.1778,1796
25.1806,1827
25.1833,1843
25.1861,1846
25.1889,1847
25.1917,1854
25.1944,1886
25.1972,1907
25.2000,1930
25.2028,1946
25.2056,1963
25.2083,1966
25.2111,1970
25.2139,1977
25.2167,1973
25.2194,1966
25.2222,1950
25.2250,1927
25.2278,1882
25.2306,1836
25.2333,1798
25.2361,1772
25.2389,1740
25.2417,1715
25.2444,1686
25.2472,1652
25.2500,1636
25.2528,1633
25.2556,1638
25.2583,1630
25.2611,1627
25.2639,1624
25.2667,1615
25.2694,1600
25.2722,1600
25.2750,1600
25.2778,1607
25.2806,1617
25.2833,1616
25.2861,1622
25.2889,1624
25.2917,1630
25.2944,1614
25.2972,1613
25.3000,1601
25.3028,1590
25.3056,1583
25.3083,1552
25.3111,1504
25.3139,1450
25.3167,1388
25.3194,1355
25.3222,1355
25.3250,1400
25.3278,1512
25.3306,1684
25.3333,1887
25.3361,2115
25.3389,2406
25.3417,2713
25.3444,2959
25.3472,3133
25.3500,3153
25.3528,3009
25.3556,2705
25.3583,2274
25.3611,1831
25.3639,1502
25.3667,1341
25.3694,1318
25.3722,1380
25.3750,1478
25.3778,1584
25.3806,1622
25.3833,1617
25.3861,1596
25.3889,1554
25.3917,1536
25.3944,1547
25.3972,1567
25.4000,1567
25.4028,1568
25.4056,1565
25.4083,1565
25.4111,1564
25.4139,1574
25.4167,1583
25.4194,1589
25.4222,1602
25.4250,1608
25.4278,1607
25.4306,1599
25.4333,1606
25.4361,1604
25.4389,1604
25.4417,1602
25.4444,1598
25.4472,1594
25.4500,1591
25.4528,1580
25.4556,1589
25.4583,1606
25.4611,1613
25.4639,1617
25.4667,1623
25.4694,1616
25.4722,1611
25.4750,1616
25.4778,1638
25.4806,1658
25.4833,1655
25.4861,1648
25.4889,1640
25.4917,1635
25.4944,1640
25.4972,1645
25.5000,1664
25.5028,1662
25.5056,1668
25.5083,1673
25.5111,1671
25.5139,1679
25.5167,1691
25.5194,1705
25.5222,1707
25.5250,1704
25.5278,1694
25.5306,1698
25.5333,1697
25.5361,1691
25.5389,1698
25.5417,1706
25.5444,1725
25.5472,1739
25.5500,1753
25.5528,1745
25.5556,1635
25.5583,1644
25.5611,1648
25.5639,1635
25.5667,1635
25.5694,1627
25.5722,1636
25.5750,1642
25.5778,1637
25.5806,1633
25.5833,1622
25.5861,1611
25.5889,1601
25.5917,1619
25.5944,1649
25.5972,1676
25.6000,1685
25.6028,1697
25.6056,1701
25.6083,1689
25.6111,1672
25.6139,1672
25.6167,1668
25.6194,1673
25.6222,1677
25.6250,1687
25.6278,1686
25.6306,1689
25.6333,1694
25.6361,1722
25.6389,1754
25.6417,1781
25.6444,1800
25.6472,1802
25.6500,1792
25.6528,1795
25.6556,1828
25.6583,1847
25.6611,1865
25.6639,1869
25.6667,1905
25.6694,1918
25.6722,1940
25.6750,1955
25.6778,1955
25.6806,1934
25.6833,1898
25.6861,1867
25.6889,1830
25.6917,1783
25.6944,1752
25.6972,1726
25.7000,1700
25.7028,1679
25.7056,1634
25.7083,1608
25.7111,1580
25.7139,1562
25.7167,1571
25.7194,1602
25.7222,1621
25.7250,1630
25.7278,1633
25.7306,1623
25.7333,1599
25.7361,1583
25.7389,1583
25.7417,1584
25.7444,1571
25.7472,1581
25.7500,1571
25.7528,1565
25.7556,1559
25.7583,1569
25.7611,1568
25.7639,1569
25.7667,1548
25.7694,1506
25.7722,1456
25.7750,1401
25.7778,1359
25.7806,1335
25.7833,1327
25.7861,1378
25.7889,1514
25.7917,1712
25.7944,1915
25.7972,2156
25.8000,2459
25.8028,2750
25.8056,2972
25.8083,3104
25.8111,3083
25.8139,2911
25.8167,2593
25.8194,2149
25.8222,1743
25.8250,1471
25.8278,1370
25.8306,1387
25.8333,1455
25.8361,1543
25.8389,1610
25.8417,1629
25.8444,1598
25.8472,1559
25.8500,1539
25.8528,1548
25.8556,1563
25.8583,1591
25.8611,1615
25.8639,1632
25.8667,1637
25.8694,1647
25.8722,1676
25.8750,1692
25.8778,1712
25.8806,1733
25.8833,1747
25.8861,1748
25.8889,1731
25.8917,1722
25.8944,1710
25.8972,1700
25.9000,1692
25.9028,1698
25.9056,1707
25.9083,1705
25.9111,1695
25.9139,1710
25.9167,1733
25.9194,1750
25.9222,1758
25.9250,1757
25.9278,1746
25.9306,1747
25.9333,1768
25.9361,1787
25.9389,1796
25.9417,1806
25.9444,1803
25.9472,1815
25.9500,1802
25.9528,1798
25.9556,1779
25.9583,1798
25.9611,1813
25.9639,1820
25.9667,1821
25.9694,1804
25.9722,1791
25.9750,1783
25.9778,1804
25.9806,1823
25.9833,1829
25.9861,1848
25.9889,1861
25.9917,1873
25.9944,1889
25.9972,1899
26.0000,1922
26.0028,1928
26.0056,1916
26.0083,1896
26.0111,1869
26.0139,1873
26.0167,1930
26.0194,1930
26.0222,1924
26.0250,1898
26.0278,1868
26.0306,1831
26.0333,1797
26.0361,1791
26.0389,1803
26.0417,1832
26.0444,1861
26.0472,1871
26.0500,1889
26.0528,1904
26.0556,1925
26.0583,1937
26.0611,1938
26.0639,1935
26.0667,1940
26.0694,1937
26.0722,1931
26.0750,1934
26.0778,1951
26.0806,1961
26.0833,1977
26.0861,1994
26.0889,1992
26.0917,1985
26.0944,1997
26.0972,2011
26.1000,2026
26.1028,2054
26.1056,2083
26.1083,2108
26.1111,2101
26.1139,2127
26.1167,2139
26.1194,2168
26.1222,2185
26.1250,2192
26.1278,2201
26.1306,2189
26.1333,2171
26.1361,2138
26.1389,2104
26.1417,2075
26.1444,2065
26.1472,2049
26.1500,2005
26.1528,1968
26.1556,1940
26.1583,1915
26.1611,1881
26.1639,1853
26.1667,1832
26.1694,1829
26.1722,1854
26.1750,1880
26.1778,1904
26.1806,1903
26.1833,1876
26.1861,1832
26.1889,1768
26.1917,1709
26.1944,1665
26.1972,1643
26.2000,1631
26.2028,1634
26.2056,1638
26.2083,1636
26.2111,1619
26.2139,1595
26.2167,1559
26.2194,1524
26.2222,1486
26.2250,1412
26.2278,1353
26.2306,1296
26.2333,1273
26.2361,1272
26.2389,1307
26.2417,1396
26.2444,1555
26.2472,1739
26.2500,1949
26.2528,2210
26.2556,2503
26.2583,2743
26.2611,2895
26.2639,2947
26.2667,2808
26.2694,2509
26.2722,2082
26.2750,1638
26.2778,1315
26.2806,1159
26.2833,1134
26.2861,1215
26.2889,1335
26.2917,1441
26.2944,1503
26.2972,1506
26.3000,1459
26.3028,1385
26.3056,1343
26.3083,1327
26.3111,1332
26.3139,1367
26.3167,1377
26.3194,1391
26.3222,1402
26.3250,1407
26.3278,1422
26.3306,1444
26.3333,1459
26.3361,1465
26.3389,1450
26.3417,1426
26.3444,1409
26.3472,1409
26.3500,1403
26.3528,1431
26.3556,1456
26.3583,1484
26.3611,1485
26.3639,1474
26.3667,1461
26.3694,1447
26.3722,1443
26.3750,1450
26.3778,1444
26.3806,1442
26.3833,1450
26.3861,1466
26.3889,1497
26.3917,1527
26.3944,1518
26.3972,1503
26.4000,1489
26.4028,1482
26.4056,1484
