Tiempo(s),Valor_ADC
0.0028,1963
0.0056,1644
0.0083,1494
0.0111,1471
0.0139,1522
0.0167,1575
0.0194,1625
0.0222,1646
0.0250,1614
0.0278,1547
0.0306,1497
0.0333,1470
0.0361,1467
0.0389,1492
0.0417,1520
0.0444,1506
0.0472,1465
0.0500,1402
0.0528,1351
0.0556,1351
0.0583,1377
0.0611,1398
0.0639,1399
0.0667,1382
0.0694,1367
0.0722,1352
0.0750,1322
0.0778,1308
0.0806,1308
0.0833,1332
0.0861,1375
0.0889,1405
0.0917,1375
0.0944,1322
0.0972,1291
0.1000,1316
0.1028,1349
0.1056,1352
0.1083,1319
0.1111,1267
0.1139,1219
0.1167,1201
0.1194,1200
0.1222,1210
0.1250,1202
0.1278,1176
0.1306,1169
0.1333,1192
0.1361,1230
0.1389,1280
0.1417,1320
0.1444,1324
0.1472,1274
0.1500,1175
0.1528,1088
0.1556,1050
0.1583,1073
0.1611,1115
0.1639,1145
0.1667,1148
0.1694,1128
0.1722,1096
0.1750,1108
0.1778,1141
0.1806,1173
0.1833,1185
0.1861,1167
0.1889,1149
0.1917,1118
0.1944,1081
0.1972,933
0.2000,939
0.2028,962
0.2056,948
0.2083,919
0.2111,876
0.2139,844
0.2167,835
0.2194,847
0.2222,856
0.2250,851
0.2278,857
0.2306,857
0.2333,855
0.2361,897
0.2389,939
0.2417,969
0.2444,955
0.2472,907
0.2500,844
0.2528,807
0.2556,801
0.2583,803
0.2611,798
0.2639,807
0.2667,821
0.2694,839
0.2722,833
0.2750,826
0.2778,825
0.2806,843
0.2833,872
0.2861,885
0.2889,854
0.2917,806
0.2944,779
0.2972,814
0.3000,848
0.3028,863
0.3056,840
0.3083,817
0.3111,807
0.3139,817
0.3167,866
0.3194,900
0.3222,911
0.3250,901
0.3278,866
0.3306,830
0.3333,841
0.3361,849
0.3389,874
0.3417,896
0.3444,894
0.3472,908
0.3500,910
0.3528,939
0.3556,974
0.3583,1005
0.3611,1012
0.3639,973
0.3667,930
0.3694,890
0.3722,846
0.3750,843
0.3778,864
0.3806,888
0.3833,897
0.3861,890
0.3889,872
0.3917,829
0.3944,765
0.3972,734
0.4000,766
0.4028,804
0.4056,829
0.4083,827
0.4111,844
0.4139,859
0.4167,858
0.4194,846
0.4222,843
0.4250,841
0.4278,833
0.4306,818
0.4333,807
0.4361,795
0.4389,789
0.4417,795
0.4444,867
0.4472,949
0.4500,1000
0.4528,955
0.4556,867
0.4583,759
0.4611,676
0.4639,643
0.4667,661
0.4694,699
0.4722,721
0.4750,719
0.4778,688
0.4806,676
0.4833,662
0.4861,653
0.4889,695
0.4917,735
0.4944,772
0.4972,802
0.5000,798
0.5028,772
0.5056,744
0.5083,744
0.5111,774
0.5139,815
0.5167,854
0.5194,891
0.5222,911
0.5250,911
0.5278,936
0.5306,1000
0.5333,1045
0.5361,1012
0.5389,922
0.5417,803
0.5444,752
0.5472,799
0.5500,939
0.5528,1132
0.5556,1328
0.5583,1504
0.5611,1674
0.5639,1913
0.5667,2190
0.5694,2333
0.5722,2293
0.5750,2005
0.5778,1573
0.5806,1155
0.5833,876
0.5861,781
0.5889,819
0.5917,910
0.5944,1018
0.5972,1075
0.6000,1075
0.6028,1031
0.6056,952
0.6083,893
0.6111,828
0.6139,791
0.6167,799
0.6194,819
0.6222,860
0.6250,878
0.6278,885
0.6306,895
0.6333,874
0.6361,858
0.6389,834
0.6417,833
0.6444,853
0.6472,875
0.6500,852
0.6528,820
0.6556,794
0.6583,797
0.6611,837
0.6639,871
0.6667,883
0.6694,878
0.6722,883
0.6750,890
0.6778,925
0.6806,942
0.6833,914
0.6861,871
0.6889,870
0.6917,922
0.6944,961
0.6972,988
0.7000,1000
0.7028,986
0.7056,1003
0.7083,1007
0.7111,1030
0.7139,1046
0.7167,1053
0.7194,1056
0.7222,1041
0.7250,996
0.7278,947
0.7306,906
0.7333,905
0.7361,942
0.7389,988
0.7417,1015
0.7444,984
0.7472,951
0.7500,951
0.7528,1004
0.7556,1045
0.7583,1092
0.7611,1124
0.7639,1121
0.7667,1139
0.7694,1173
0.7722,1193
0.7750,1311
0.7778,1320
0.7806,1322
0.7833,1307
0.7861,1267
0.7889,1214
0.7917,1168
0.7944,1182
0.7972,1249
0.8000,1339
0.8028,1365
0.8056,1364
0.8083,1339
0.8111,1339
0.8139,1352
0.8167,1390
0.8194,1435
0.8222,1460
0.8250,1480
0.8278,1483
0.8306,1490
0.8333,1486
0.8361,1506
0.8389,1544
0.8417,1575
0.8444,1597
0.8472,1582
0.8500,1571
0.8528,1572
0.8556,1587
0.8583,1672
0.8611,1757
0.8639,1819
0.8667,1815
0.8694,1739
0.8722,1600
0.8750,1468
0.8778,1420
0.8806,1421
0.8833,1460
0.8861,1499
0.8889,1506
0.8917,1521
0.8944,1517
0.8972,1536
0.9000,1540
0.9028,1543
0.9056,1565
0.9083,1566
0.9111,1578
0.9139,1570
0.9167,1535
0.9194,1520
0.9222,1527
0.9250,1550
0.9278,1583
0.9306,1608
0.9333,1631
0.9361,1661
0.9389,1697
0.9417,1719
0.9444,1688
0.9472,1604
0.9500,1524
0.9528,1491
0.9556,1511
0.9583,1548
0.9611,1563
0.9639,1552
0.9667,1525
0.9694,1509
0.9722,1486
0.9750,1501
0.9778,1527
0.9806,1556
0.9833,1556
0.9861,1535
0.9889,1526
0.9917,1533
0.9944,1523
0.9972,1490
1.0000,1434
1.0028,1369
1.0056,1344
1.0083,1342
1.0111,1369
1.0139,1384
1.0167,1384
1.0194,1361
1.0222,1338
1.0250,1316
1.0278,1301
1.0306,1301
1.0333,1291
1.0361,1299
1.0389,1329
1.0417,1377
1.0444,1385
1.0472,1380
1.0500,1355
1.0528,1336
1.0556,1334
1.0583,1339
1.0611,1335
1.0639,1338
1.0667,1330
1.0694,1327
1.0722,1338
1.0750,1354
1.0778,1357
1.0806,1336
1.0833,1316
1.0861,1303
1.0889,1303
1.0917,1294
1.0944,1290
1.0972,1311
1.1000,1346
1.1028,1436
1.1056,1539
1.1083,1657
1.1111,1814
1.1139,1990
1.1167,2213
1.1194,2460
1.1222,2733
1.1250,2939
1.1278,2983
1.1306,2831
1.1333,2457
1.1361,2017
1.1389,1658
1.1417,1437
1.1444,1380
1.1472,1418
1.1500,1521
1.1528,1610
1.1556,1676
1.1583,1681
1.1611,1668
1.1639,1640
1.1667,1608
1.1694,1594
1.1722,1599
1.1750,1645
1.1778,1694
1.1806,1712
1.1833,1696
1.1861,1678
1.1889,1667
1.1917,1677
1.1944,1700
1.1972,1724
1.2000,1742
1.2028,1744
1.2056,1742
1.2083,1737
1.2111,1721
1.2139,1712
1.2167,1733
1.2194,1751
1.2222,1744
1.2250,1724
1.2278,1736
1.2306,1765
1.2333,1779
1.2361,1761
1.2389,1735
1.2417,1667
1.2444,1616
1.2472,1597
1.2500,1588
1.2528,1590
1.2556,1568
1.2583,1553
1.2611,1544
1.2639,1563
1.2667,1595
1.2694,1620
1.2722,1646
1.2750,1672
1.2778,1664
1.2806,1636
1.2833,1599
1.2861,1576
1.2889,1582
1.2917,1596
1.2944,1633
1.2972,1670
1.3000,1677
1.3028,1655
1.3056,1634
1.3083,1610
1.3111,1610
1.3139,1631
1.3167,1701
1.3194,1766
1.3222,1793
1.3250,1764
1.3278,1724
1.3306,1678
1.3333,1609
1.3361,1624
1.3389,1656
1.3417,1697
1.3444,1700
1.3472,1654
1.3500,1588
1.3528,1536
1.3556,1503
1.3583,1463
1.3611,1436
1.3639,1425
1.3667,1421
1.3694,1434
1.3722,1459
1.3750,1465
1.3778,1448
1.3806,1429
1.3833,1404
1.3861,1397
1.3889,1394
1.3917,1419
1.3944,1438
1.3972,1455
1.4000,1436
1.4028,1419
1.4056,1419
1.4083,1416
1.4111,1403
1.4139,1388
1.4167,1390
1.4194,1412
1.4222,1453
1.4250,1480
1.4278,1495
1.4306,1492
1.4333,1480
1.4361,1451
1.4389,1405
1.4417,1353
1.4444,1321
1.4472,1312
1.4500,1323
1.4528,1366
1.4556,1415
1.4583,1442
1.4611,1470
1.4639,1490
1.4667,1496
1.4694,1475
1.4722,1470
1.4750,1463
1.4778,1468
1.4806,1474
1.4833,1501
1.4861,1542
1.4889,1582
1.4917,1574
1.4944,1540
1.4972,1511
1.5000,1508
1.5028,1527
1.5056,1545
1.5083,1536
1.5111,1519
1.5139,1489
1.5167,1451
1.5194,1429
1.5222,1419
1.5250,1433
1.5278,1463
1.5306,1489
1.5333,1512
1.5361,1541
1.5389,1563
1.5417,1582
1.5444,1580
1.5472,1564
1.5500,1544
1.5528,1517
1.5556,1506
1.5583,1495
1.5611,1501
1.5639,1499
1.5667,1538
1.5694,1566
1.5722,1592
1.5750,1588
1.5778,1572
1.5806,1563
1.5833,1560
1.5861,1545
1.5889,1537
1.5917,1556
1.5944,1588
1.5972,1590
1.6000,1546
1.6028,1484
1.6056,1413
1.6083,1351
1.6111,1336
1.6139,1366
1.6167,1405
1.6194,1446
1.6222,1441
1.6250,1445
1.6278,1467
1.6306,1487
1.6333,1505
1.6361,1525
1.6389,1529
1.6417,1547
1.6444,1553
1.6472,1542
1.6500,1500
1.6528,1483
1.6556,1467
1.6583,1459
1.6611,1456
1.6639,1445
1.6667,1457
1.6694,1499
1.6722,1549
1.6750,1572
1.6778,1562
1.6806,1554
1.6833,1554
1.6861,1570
1.6889,1568
1.6917,1544
1.6944,1503
1.6972,1491
1.7000,1484
1.7028,1530
1.7056,1645
1.7083,1778
1.7111,1898
1.7139,2039
1.7167,2193
1.7194,2373
1.7222,2557
1.7250,2780
1.7278,2948
1.7306,2978
1.7333,2809
1.7361,2473
1.7389,2100
1.7417,1783
1.7444,1615
1.7472,1572
1.7500,1605
1.7528,1671
1.7556,1735
1.7583,1767
1.7611,1721
1.7639,1649
1.7667,1556
1.7694,1497
1.7722,1481
1.7750,1539
1.7778,1592
1.7806,1650
1.7833,1660
1.7861,1627
1.7889,1595
1.7917,1554
1.7944,1536
1.7972,1548
1.8000,1569
1.8028,1596
1.8056,1626
1.8083,1610
1.8111,1607
1.8139,1623
1.8167,1652
1.8194,1676
1.8222,1703
1.8250,1691
1.8278,1672
1.8306,1655
1.8333,1670
1.8361,1687
1.8389,1716
1.8417,1785
1.8444,1825
1.8472,1831
1.8500,1811
1.8528,1770
1.8556,1742
1.8583,1715
1.8611,1720
1.8639,1760
1.8667,1803
1.8694,1829
1.8722,1833
1.8750,1840
1.8778,1841
1.8806,1856
1.8833,1869
1.8861,1880
1.8889,1885
1.8917,1879
1.8944,1881
1.8972,1892
1.9000,1904
1.9028,1915
1.9056,1892
1.9083,1875
1.9111,1906
1.9139,1980
1.9167,2061
1.9194,2103
1.9222,2105
1.9250,2133
1.9278,2136
1.9306,2134
1.9333,2330
1.9361,2347
1.9389,2383
1.9417,2396
1.9444,2371
1.9472,2350
1.9500,2311
1.9528,2279
1.9556,2275
1.9583,2279
1.9611,2272
1.9639,2311
1.9667,2373
1.9694,2428
1.9722,2454
1.9750,2465
1.9778,2455
1.9806,2445
1.9833,2408
1.9861,2375
1.9889,2386
1.9917,2394
1.9944,2406
1.9972,2430
2.0000,2465
2.0028,2496
2.0056,2512
2.0083,2507
2.0111,2492
2.0139,2481
2.0167,2471
2.0194,2465
2.0222,2466
2.0250,2454
2.0278,2459
2.0306,2494
2.0333,2515
2.0361,2529
2.0389,2513
2.0417,2507
2.0444,2497
2.0472,2542
2.0500,2586
2.0528,2618
2.0556,2603
2.0583,2586
2.0611,2560
2.0639,2508
2.0667,2462
2.0694,2452
2.0722,2484
2.0750,2511
2.0778,2516
2.0806,2499
2.0833,2459
2.0861,2411
2.0889,2375
2.0917,2365
2.0944,2365
2.0972,2374
2.1000,2378
2.1028,2378
2.1056,2397
2.1083,2417
2.1111,2413
2.1139,2397
2.1167,2387
2.1194,2363
2.1222,2343
2.1250,2328
2.1278,2328
2.1306,2315
2.1333,2325
2.1361,2313
2.1389,2290
2.1417,2271
2.1444,2277
2.1472,2297
2.1500,2313
2.1528,2333
2.1556,2328
2.1583,2336
2.1611,2317
2.1639,2262
2.1667,2223
2.1694,2210
2.1722,2241
2.1750,2258
2.1778,2267
2.1806,2247
2.1833,2226
2.1861,2239
2.1889,2241
2.1917,2228
2.1944,2232
2.1972,2237
2.2000,2239
2.2028,2238
2.2056,2217
2.2083,2173
2.2111,2145
2.2139,2150
2.2167,2182
2.2194,2208
2.2222,2212
2.2250,2204
2.2278,2220
2.2306,2197
2.2333,2191
2.2361,2174
2.2389,2151
2.2417,2133
2.2444,2123
2.2472,2134
2.2500,2149
2.2528,2113
2.2556,2055
2.2583,2027
2.2611,2033
2.2639,2000
2.2667,1952
2.2694,1935
2.2722,1936
2.2750,1941
2.2778,1962
2.2806,1970
2.2833,1958
2.2861,1973
2.2889,1972
2.2917,1966
2.2944,1969
2.2972,1985
2.3000,2004
2.3028,2023
2.3056,1997
2.3083,1982
2.3111,1951
2.3139,1926
2.3167,1933
2.3194,1966
2.3222,1997
2.3250,1978
2.3278,1937
2.3306,1907
2.3333,1909
2.3361,1961
2.3389,1992
2.3417,2017
2.3444,2001
2.3472,1954
2.3500,1905
2.3528,1926
2.3556,2034
2.3583,2174
2.3611,2317
2.3639,2456
2.3667,2589
2.3694,2736
2.3722,2914
2.3750,3096
2.3778,3170
2.3806,3109
2.3833,2871
2.3861,2508
2.3889,2173
2.3917,1938
2.3944,1825
2.3972,1809
2.4000,1829
2.4028,1873
2.4056,1940
2.4083,2014
2.4111,2051
2.4139,1992
2.4167,1910
2.4194,1817
2.4222,1753
2.4250,1716
2.4278,1747
2.4306,1808
2.4333,1849
2.4361,1867
2.4389,1855
2.4417,1837
2.4444,1836
2.4472,1859
2.4500,1886
2.4528,1886
2.4556,1874
2.4583,1858
2.4611,1840
2.4639,1803
2.4667,1788
2.4694,1793
2.4722,1800
2.4750,1804
2.4778,1815
2.4806,1825
2.4833,1821
2.4861,1796
2.4889,1779
2.4917,1750
2.4944,1733
2.4972,1729
2.5000,1754
2.5028,1793
2.5056,1850
2.5083,1888
2.5111,1925
2.5139,1922
2.5167,1886
2.5194,1893
2.5222,1900
2.5250,1939
2.5278,1956
2.5306,1973
2.5333,1959
2.5361,1944
2.5389,1943
2.5417,1927
2.5444,1921
2.5472,1913
2.5500,1965
2.5528,2030
2.5556,2077
2.5583,2082
2.5611,2091
2.5639,2088
2.5667,2084
2.5694,2069
2.5722,2049
2.5750,2058
2.5778,2102
2.5806,2186
2.5833,2237
2.5861,2253
2.5889,2255
2.5917,2214
2.5944,2138
2.5972,2069
2.6000,2038
2.6028,2040
2.6056,2047
2.6083,2071
2.6111,2112
2.6139,2107
2.6167,2088
2.6194,2042
2.6222,2041
2.6250,2038
2.6278,2064
2.6306,2075
2.6333,2081
2.6361,2082
2.6389,2098
2.6417,2107
2.6444,2127
2.6472,2121
2.6500,2115
2.6528,2103
2.6556,2095
2.6583,2108
2.6611,2094
2.6639,2089
2.6667,2067
2.6694,2029
2.6722,2035
2.6750,2052
2.6778,2081
2.6806,2101
2.6833,2098
2.6861,2090
2.6889,2092
2.6917,2125
2.6944,2148
2.6972,2140
2.7000,2137
2.7028,2129
2.7056,2128
2.7083,2114
2.7111,2099
2.7139,2068
2.7167,2041
2.7194,2038
2.7222,2045
2.7250,2055
2.7278,2100
2.7306,2135
2.7333,2166
2.7361,2189
2.7389,2180
2.7417,2158
2.7444,2127
2.7472,2091
2.7500,2072
2.7528,2063
2.7556,2046
2.7583,2032
2.7611,2034
2.7639,2046
2.7667,2055
2.7694,2059
2.7722,2044
2.7750,2017
2.7778,2012
2.7806,2022
2.7833,2024
2.7861,2041
2.7889,2020
2.7917,1995
2.7944,1994
2.7972,2006
2.8000,2015
2.8028,2045
2.8056,2063
2.8083,2093
2.8111,2124
2.8139,2139
2.8167,2133
2.8194,2101
2.8222,2055
2.8250,2023
2.8278,2001
2.8306,2001
2.8333,2026
2.8361,2063
2.8389,2106
2.8417,2123
2.8444,2106
2.8472,2068
2.8500,2015
2.8528,1990
2.8556,1979
2.8583,1959
2.8611,1970
2.8639,2011
2.8667,2052
2.8694,2093
2.8722,2091
2.8750,2065
2.8778,2030
2.8806,2020
2.8833,2038
2.8861,2057
2.8889,2093
2.8917,2124
2.8944,2159
2.8972,2192
2.9000,2185
2.9028,2162
2.9056,2133
2.9083,2104
2.9111,2069
2.9139,2030
2.9167,1997
2.9194,1967
2.9222,1938
2.9250,1892
2.9278,1830
2.9306,1823
2.9333,1832
2.9361,1884
2.9389,1919
2.9417,1930
2.9444,1929
2.9472,1932
2.9500,1911
2.9528,1903
2.9556,1884
2.9583,1885
2.9611,1889
2.9639,1883
2.9667,1882
2.9694,1862
2.9722,1837
2.9750,1830
2.9778,1854
2.9806,1877
2.9833,1877
2.9861,1845
2.9889,1817
2.9917,1804
2.9944,1791
2.9972,1778
3.0000,1791
3.0028,1843
3.0056,1942
3.0083,2050
3.0111,2132
3.0139,2206
3.0167,2314
3.0194,2463
3.0222,2668
3.0250,2925
3.0278,3147
3.0306,3220
3.0333,3078
3.0361,2740
3.0389,2307
3.0417,1948
3.0444,1743
3.0472,1677
3.0500,1745
3.0528,1836
3.0556,1882
3.0583,1880
3.0611,1831
3.0639,1771
3.0667,1742
3.0694,1713
3.0722,1657
3.0750,1625
3.0778,1606
3.0806,1620
3.0833,1640
3.0861,1637
3.0889,1629
3.0917,1623
3.0944,1626
3.0972,1615
3.1000,1620
3.1028,1629
3.1056,1619
3.1083,1615
3.1111,1605
3.1139,1598
3.1167,1619
3.1194,1645
3.1222,1641
3.1250,1610
3.1278,1575
3.1306,1551
3.1333,1539
3.1361,1582
3.1389,1636
3.1417,1688
3.1444,1686
3.1472,1607
3.1500,1511
3.1528,1485
3.1556,1518
3.1583,1581
3.1611,1649
3.1639,1662
3.1667,1618
3.1694,1543
3.1722,1467
3.1750,1464
3.1778,1482
3.1806,1516
3.1833,1544
3.1861,1565
3.1889,1578
3.1917,1566
3.1944,1578
3.1972,1591
3.2000,1610
3.2028,1614
3.2056,1602
3.2083,1552
3.2111,1524
3.2139,1527
3.2167,1563
3.2194,1577
3.2222,1572
3.2250,1593
3.2278,1610
3.2306,1650
3.2333,1674
3.2361,1606
3.2389,1615
3.2417,1598
3.2444,1577
3.2472,1558
3.2500,1525
3.2528,1515
3.2556,1528
3.2583,1557
3.2611,1561
3.2639,1544
3.2667,1500
3.2694,1479
3.2722,1482
3.2750,1486
3.2778,1506
3.2806,1486
3.2833,1441
3.2861,1451
3.2889,1499
3.2917,1547
3.2944,1556
3.2972,1534
3.3000,1513
3.3028,1505
3.3056,1443
3.3083,1393
3.3111,1372
3.3139,1399
3.3167,1431
3.3194,1478
3.3222,1504
3.3250,1530
3.3278,1543
3.3306,1525
3.3333,1497
3.3361,1462
3.3389,1460
3.3417,1474
3.3444,1504
3.3472,1503
3.3500,1492
3.3528,1459
3.3556,1398
3.3583,1370
3.3611,1394
3.3639,1455
3.3667,1488
3.3694,1471
3.3722,1501
3.3750,1551
3.3778,1585
3.3806,1589
3.3833,1574
3.3861,1558
3.3889,1535
3.3917,1488
3.3944,1452
3.3972,1421
3.4000,1427
3.4028,1444
3.4056,1437
3.4083,1435
3.4111,1439
3.4139,1438
3.4167,1431
3.4194,1393
3.4222,1374
3.4250,1408
3.4278,1471
3.4306,1516
3.4333,1521
3.4361,1496
3.4389,1486
3.4417,1488
3.4444,1482
3.4472,1475
3.4500,1485
3.4528,1477
3.4556,1475
3.4583,1455
3.4611,1424
3.4639,1400
3.4667,1397
3.4694,1406
3.4722,1434
3.4750,1466
3.4778,1495
3.4806,1492
3.4833,1463
3.4861,1414
3.4889,1370
3.4917,1329
3.4944,1255
3.4972,1231
3.5000,1289
3.5028,1383
3.5056,1460
3.5083,1505
3.5111,1534
3.5139,1574
3.5167,1561
3.5194,1525
3.5222,1488
3.5250,1514
3.5278,1578
3.5306,1604
3.5333,1594
3.5361,1546
3.5389,1514
3.5417,1504
3.5444,1530
3.5472,1565
3.5500,1593
3.5528,1621
3.5556,1628
3.5583,1650
3.5611,1617
3.5639,1569
3.5667,1529
3.5694,1508
3.5722,1521
3.5750,1555
3.5778,1575
3.5806,1578
3.5833,1563
3.5861,1549
3.5889,1538
3.5917,1527
3.5944,1516
3.5972,1510
3.6000,1491
3.6028,1440
3.6056,1425
3.6083,1391
3.6111,1387
3.6139,1428
3.6167,1495
3.6194,1549
3.6222,1552
3.6250,1504
3.6278,1461
3.6306,1443
3.6333,1435
3.6361,1433
3.6389,1438
3.6417,1454
3.6444,1459
3.6472,1440
3.6500,1449
3.6528,1441
3.6556,1448
3.6583,1447
3.6611,1449
3.6639,1452
3.6667,1452
3.6694,1450
3.6722,1429
3.6750,1428
3.6778,1464
3.6806,1527
3.6833,1583
3.6861,1605
3.6889,1590
3.6917,1515
3.6944,1429
3.6972,1440
3.7000,1525
3.7028,1652
3.7056,1748
3.7083,1870
3.7111,2045
3.7139,2254
3.7167,2486
3.7194,2734
3.7222,2849
3.7250,2779
3.7278,2484
3.7306,2068
3.7333,1685
3.7361,1438
3.7389,1345
3.7417,1372
3.7444,1472
3.7472,1535
3.7500,1582
3.7528,1589
3.7556,1552
3.7583,1494
3.7611,1458
3.7639,1423
3.7667,1399
3.7694,1389
3.7722,1375
3.7750,1326
3.7778,1312
3.7806,1318
3.7833,1365
3.7861,1418
3.7889,1455
3.7917,1436
3.7944,1394
3.7972,1369
3.8000,1346
3.8028,1320
3.8056,1313
3.8083,1361
3.8111,1402
3.8139,1411
3.8167,1396
3.8194,1378
3.8222,1341
3.8250,1312
3.8278,1326
3.8306,1371
3.8333,1412
3.8361,1442
3.8389,1469
3.8417,1463
3.8444,1473
3.8472,1470
3.8500,1431
3.8528,1374
3.8556,1342
3.8583,1341
3.8611,1349
3.8639,1338
3.8667,1320
3.8694,1329
3.8722,1378
3.8750,1447
3.8778,1483
3.8806,1485
3.8833,1450
3.8861,1430
3.8889,1438
3.8917,1469
3.8944,1497
3.8972,1492
3.9000,1476
3.9028,1462
3.9056,1445
3.9083,1438
3.9111,1444
3.9139,1460
3.9167,1483
3.9194,1498
3.9222,1487
3.9250,1490
3.9278,1542
3.9306,1554
3.9333,1543
3.9361,1537
3.9389,1524
3.9417,1506
3.9444,1475
3.9472,1473
3.9500,1461
3.9528,1474
3.9556,1506
3.9583,1528
3.9611,1515
3.9639,1485
3.9667,1469
3.9694,1441
3.9722,1423
3.9750,1392
3.9778,1397
3.9806,1409
3.9833,1415
3.9861,1405
3.9889,1418
3.9917,1447
3.9944,1446
3.9972,1381
4.0000,1304
4.0028,1234
4.0056,1267
4.0083,1329
4.0111,1392
4.0139,1425
4.0167,1414
4.0194,1384
4.0222,1389
4.0250,1393
4.0278,1395
4.0306,1387
4.0333,1356
4.0361,1355
4.0389,1420
4.0417,1457
4.0444,1464
4.0472,1454
4.0500,1447
4.0528,1430
4.0556,1416
4.0583,1387
4.0611,1371
4.0639,1371
4.0667,1389
4.0694,1409
4.0722,1445
4.0750,1455
4.0778,1449
4.0806,1429
4.0833,1414
4.0861,1409
4.0889,1400
4.0917,1381
4.0944,1358
4.0972,1345
4.1000,1313
4.1028,1268
4.1056,1274
4.1083,1347
4.1111,1420
4.1139,1436
4.1167,1409
4.1194,1362
4.1222,1312
4.1250,1281
4.1278,1284
4.1306,1302
4.1333,1316
4.1361,1338
4.1389,1359
4.1417,1379
4.1444,1396
4.1472,1373
4.1500,1357
4.1528,1362
4.1556,1360
4.1583,1363
4.1611,1365
4.1639,1355
4.1667,1360
4.1694,1357
4.1722,1337
4.1750,1323
4.1778,1307
4.1806,1274
4.1833,1219
4.1861,1192
4.1889,1233
4.1917,1294
4.1944,1362
4.1972,1399
4.2000,1382
4.2028,1360
4.2056,1345
4.2083,1327
4.2111,1329
4.2139,1329
4.2167,1322
4.2194,1313
4.2222,1322
4.2250,1330
4.2278,1337
4.2306,1369
4.2333,1394
4.2361,1406
4.2389,1390
4.2417,1327
4.2444,1281
4.2472,1256
4.2500,1254
4.2528,1266
4.2556,1289
4.2583,1339
4.2611,1406
4.2639,1438
4.2667,1434
4.2694,1439
4.2722,1413
4.2750,1367
4.2778,1340
4.2806,1332
4.2833,1331
4.2861,1330
4.2889,1324
4.2917,1336
4.2944,1358
4.2972,1363
4.3000,1340
4.3028,1313
4.3056,1277
4.3083,1256
4.3111,1263
4.3139,1272
4.3167,1286
4.3194,1308
4.3222,1306
4.3250,1303
4.3278,1320
4.3306,1331
4.3333,1341
4.3361,1364
4.3389,1377
4.3417,1377
4.3444,1382
4.3472,1397
4.3500,1385
4.3528,1350
4.3556,1316
4.3583,1298
4.3611,1293
4.3639,1319
4.3667,1367
4.3694,1403
4.3722,1386
4.3750,1367
4.3778,1334
4.3806,1336
4.3833,1346
4.3861,1345
4.3889,1328
4.3917,1298
4.3944,1275
4.3972,1299
4.4000,1414
4.4028,1580
4.4056,1721
4.4083,1855
4.4111,1999
4.4139,2176
4.4167,2345
4.4194,2557
4.4222,2678
4.4250,2662
4.4278,2483
4.4306,2159
4.4333,1788
4.4361,1469
4.4389,1290
4.4417,1228
4.4444,1244
4.4472,1316
4.4500,1383
4.4528,1415
4.4556,1415
4.4583,1403
4.4611,1410
4.4639,1402
4.4667,1388
4.4694,1381
4.4722,1368
4.4750,1343
4.4778,1308
4.4806,1219
4.4833,1196
4.4861,1230
4.4889,1290
4.4917,1341
4.4944,1346
4.4972,1351
4.5000,1355
4.5028,1361
4.5056,1361
4.5083,1368
4.5111,1370
4.5139,1404
4.5167,1441
4.5194,1445
4.5222,1414
4.5250,1376
4.5278,1344
4.5306,1344
4.5333,1379
4.5361,1405
4.5389,1382
4.5417,1358
4.5444,1348
4.5472,1398
4.5500,1445
4.5528,1458
4.5556,1452
4.5583,1456
4.5611,1447
4.5639,1445
4.5667,1414
4.5694,1383
4.5722,1406
4.5750,1419
4.5778,1418
4.5806,1406
4.5833,1398
4.5861,1407
4.5889,1431
4.5917,1441
4.5944,1454
4.5972,1481
4.6000,1524
4.6028,1573
4.6056,1583
4.6083,1544
4.6111,1524
4.6139,1557
4.6167,1616
4.6194,1657
4.6222,1680
4.6250,1683
4.6278,1749
4.6306,1755
4.6333,1748
4.6361,1719
4.6389,1671
4.6417,1649
4.6444,1645
4.6472,1644
4.6500,1665
4.6528,1698
4.6556,1698
4.6583,1674
4.6611,1620
4.6639,1561
4.6667,1529
4.6694,1540
4.6722,1565
4.6750,1589
4.6778,1599
4.6806,1606
4.6833,1605
4.6861,1615
4.6889,1665
4.6917,1707
4.6944,1741
4.6972,1762
4.7000,1763
4.7028,1731
4.7056,1677
4.7083,1618
4.7111,1561
4.7139,1540
4.7167,1549
4.7194,1592
4.7222,1640
4.7250,1683
4.7278,1702
4.7306,1724
4.7333,1765
4.7361,1776
4.7389,1744
4.7417,1695
4.7444,1664
4.7472,1661
4.7500,1677
4.7528,1704
4.7556,1714
4.7583,1738
4.7611,1771
4.7639,1784
4.7667,1784
4.7694,1808
4.7722,1814
4.7750,1837
4.7778,1840
4.7806,1791
4.7833,1716
4.7861,1673
4.7889,1700
4.7917,1750
4.7944,1771
4.7972,1814
4.8000,1847
4.8028,1845
4.8056,1820
4.8083,1802
4.8111,1773
4.8139,1748
4.8167,1749
4.8194,1742
4.8222,1763
4.8250,1777
4.8278,1793
4.8306,1808
4.8333,1807
4.8361,1758
4.8389,1724
4.8417,1720
4.8444,1762
4.8472,1797
4.8500,1845
4.8528,1855
4.8556,1846
4.8583,1831
4.8611,1818
4.8639,1781
4.8667,1784
4.8694,1817
4.8722,1866
4.8750,1881
4.8778,1877
4.8806,1854
4.8833,1814
4.8861,1775
4.8889,1743
4.8917,1747
4.8944,1771
4.8972,1802
4.9000,1820
4.9028,1808
4.9056,1792
4.9083,1806
4.9111,1851
4.9139,1886
4.9167,1910
4.9194,1899
4.9222,1878
4.9250,1874
4.9278,1881
4.9306,1870
4.9333,1890
4.9361,1917
4.9389,1958
4.9417,1973
4.9444,1962
4.9472,1923
4.9500,1875
4.9528,1849
4.9556,1852
4.9583,1883
4.9611,1917
4.9639,1949
4.9667,1977
4.9694,1958
4.9722,1911
4.9750,1844
4.9778,1814
4.9806,1812
4.9833,1861
4.9861,1915
4.9889,1954
4.9917,1969
4.9944,1954
4.9972,1911
5.0000,1888
5.0028,1867
5.0056,1858
5.0083,1872
5.0111,1883
5.0139,1889
5.0167,1881
5.0194,1906
5.0222,1937
5.0250,1959
5.0278,1962
5.0306,1931
5.0333,1870
5.0361,1825
5.0389,1813
5.0417,1832
5.0444,1875
5.0472,1899
5.0500,1906
5.0528,1912
5.0556,1921
5.0583,1904
5.0611,1885
5.0639,1875
5.0667,1894
5.0694,1902
5.0722,1898
5.0750,1897
5.0778,1901
5.0806,1881
5.0833,1850
5.0861,1832
5.0889,1891
5.0917,1999
5.0944,2129
5.0972,2268
5.1000,2430
5.1028,2600
5.1056,2763
5.1083,2970
5.1111,3182
5.1139,3283
5.1167,3231
5.1194,2988
5.1222,2606
5.1250,2234
5.1278,1981
5.1306,1879
5.1333,1861
5.1361,1905
5.1389,1977
5.1417,2042
5.1444,2097
5.1472,2077
5.1500,1999
5.1528,1919
5.1556,1888
5.1583,1895
5.1611,1930
5.1639,1916
5.1667,1884
5.1694,1812
5.1722,1756
5.1750,1750
5.1778,1775
5.1806,1827
5.1833,1875
5.1861,1906
5.1889,1919
5.1917,1935
5.1944,1920
5.1972,1893
5.2000,1848
5.2028,1822
5.2056,1815
5.2083,1845
5.2111,1869
5.2139,1881
5.2167,1877
5.2194,1884
5.2222,1892
5.2250,1898
5.2278,1919
5.2306,1930
5.2333,1920
5.2361,1910
5.2389,1896
5.2417,1899
5.2444,1905
5.2472,1904
5.2500,1907
5.2528,1954
5.2556,2006
5.2583,2039
5.2611,2053
5.2639,2049
5.2667,2032
5.2694,2032
5.2722,2072
5.2750,2119
5.2778,2171
5.2806,2207
5.2833,2239
5.2861,2266
5.2889,2278
5.2917,2280
5.2944,2266
5.2972,2267
5.3000,2256
5.3028,2246
5.3056,2229
5.3083,2253
5.3111,2278
5.3139,2315
5.3167,2357
5.3194,2322
5.3222,2339
5.3250,2326
5.3278,2287
5.3306,2259
5.3333,2198
5.3361,2166
5.3389,2163
5.3417,2173
5.3444,2195
5.3472,2202
5.3500,2189
5.3528,2157
5.3556,2132
5.3583,2103
5.3611,2084
5.3639,2077
5.3667,2063
5.3694,2031
5.3722,2017
5.3750,2043
5.3778,2064
5.3806,2078
5.3833,2076
5.3861,2072
5.3889,2065
5.3917,2061
5.3944,2075
5.3972,2079
5.4000,2087
5.4028,2107
5.4056,2100
5.4083,2079
5.4111,2051
5.4139,2033
5.4167,2039
5.4194,2031
5.4222,2018
5.4250,2002
5.4278,1988
5.4306,1983
5.4333,1997
5.4361,2026
5.4389,2054
5.4417,2063
5.4444,2069
5.4472,2048
5.4500,2009
5.4528,1969
5.4556,1945
5.4583,1949
5.4611,1950
5.4639,1970
5.4667,2002
5.4694,2038
5.4722,2053
5.4750,2025
5.4778,1980
5.4806,1940
5.4833,1947
5.4861,1979
5.4889,2020
5.4917,2024
5.4944,2002
5.4972,1987
5.5000,2012
5.5028,2034
5.5056,2062
5.5083,2050
5.5111,2000
5.5139,1931
5.5167,1865
5.5194,1849
5.5222,1879
5.5250,1932
5.5278,1968
5.5306,1981
5.5333,1957
5.5361,1912
5.5389,1872
5.5417,1848
5.5444,1854
5.5472,1859
5.5500,1872
5.5528,1897
5.5556,1927
5.5583,1930
5.5611,1911
5.5639,1885
5.5667,1860
5.5694,1864
5.5722,1861
5.5750,1866
5.5778,1842
5.5806,1835
5.5833,1815
5.5861,1783
5.5889,1766
5.5917,1760
5.5944,1816
5.5972,1894
5.6000,1960
5.6028,1992
5.6056,1981
5.6083,1972
5.6111,1966
5.6139,1965
5.6167,1941
5.6194,1891
5.6222,1865
5.6250,1856
5.6278,1889
5.6306,1899
5.6333,1901
5.6361,1896
5.6389,1908
5.6417,1898
5.6444,1880
5.6472,1854
5.6500,1822
5.6528,1792
5.6556,1800
5.6583,1827
5.6611,1868
5.6639,1903
5.6667,1918
5.6694,1907
5.6722,1898
5.6750,1881
5.6778,1865
5.6806,1860
5.6833,1846
5.6861,1816
5.6889,1781
5.6917,1787
5.6944,1802
5.6972,1809
5.7000,1810
5.7028,1819
5.7056,1831
5.7083,1820
5.7111,1809
5.7139,1789
5.7167,1758
5.7194,1748
5.7222,1755
5.7250,1806
5.7278,1852
5.7306,1875
5.7333,1864
5.7361,1829
5.7389,1778
5.7417,1739
5.7444,1714
5.7472,1680
5.7500,1652
5.7528,1642
5.7556,1662
5.7583,1715
5.7611,1741
5.7639,1746
5.7667,1720
5.7694,1690
5.7722,1683
5.7750,1708
5.7778,1748
5.7806,1811
5.7833,1899
5.7861,1992
5.7889,2111
5.7917,2273
5.7944,2435
5.7972,2604
5.8000,2824
5.8028,3051
5.8056,3144
5.8083,3052
5.8111,2736
5.8139,2311
5.8167,1913
5.8194,1678
5.8222,1609
5.8250,1654
5.8278,1731
5.8306,1793
5.8333,1817
5.8361,1798
5.8389,1750
5.8417,1679
5.8444,1617
5.8472,1582
5.8500,1576
5.8528,1599
5.8556,1623
5.8583,1618
5.8611,1588
5.8639,1581
5.8667,1597
5.8694,1614
5.8722,1642
5.8750,1656
5.8778,1674
5.8806,1682
5.8833,1674
5.8861,1664
5.8889,1686
5.8917,1710
5.8944,1731
5.8972,1721
5.9000,1702
5.9028,1654
5.9056,1604
5.9083,1572
5.9111,1569
5.9139,1593
5.9167,1618
5.9194,1617
5.9222,1599
5.9250,1594
5.9278,1586
5.9306,1590
5.9333,1616
5.9361,1629
5.9389,1650
5.9417,1684
5.9444,1712
5.9472,1730
5.9500,1711
5.9528,1672
5.9556,1628
5.9583,1590
5.9611,1578
5.9639,1591
5.9667,1620
5.9694,1652
5.9722,1668
5.9750,1683
5.9778,1689
5.9806,1668
5.9833,1650
5.9861,1647
5.9889,1674
5.9917,1681
5.9944,1694
5.9972,1726
6.0000,1792
6.0028,1855
6.0056,1851
6.0083,1821
6.0111,1803
6.0139,1807
6.0167,1794
6.0194,1796
6.0222,1776
6.0250,1773
6.0278,1770
6.0306,1757
6.0333,1712
6.0361,1642
6.0389,1605
6.0417,1603
6.0444,1661
6.0472,1726
6.0500,1750
6.0528,1751
6.0556,1718
6.0583,1673
6.0611,1622
6.0639,1594
6.0667,1606
6.0694,1620
6.0722,1643
6.0750,1668
6.0778,1672
6.0806,1650
6.0833,1625
6.0861,1633
6.0889,1652
6.0917,1672
6.0944,1704
6.0972,1724
6.1000,1730
6.1028,1700
6.1056,1656
6.1083,1612
6.1111,1595
6.1139,1599
6.1167,1629
6.1194,1658
6.1222,1683
6.1250,1682
6.1278,1672
6.1306,1662
6.1333,1682
6.1361,1699
6.1389,1719
6.1417,1696
6.1444,1649
6.1472,1625
6.1500,1639
6.1528,1672
6.1556,1716
6.1583,1751
6.1611,1755
6.1639,1740
6.1667,1701
6.1694,1666
6.1722,1652
6.1750,1670
6.1778,1676
6.1806,1663
6.1833,1638
6.1861,1610
6.1889,1587
6.1917,1574
6.1944,1569
6.1972,1600
6.2000,1634
6.2028,1652
6.2056,1663
6.2083,1654
6.2111,1651
6.2139,1671
6.2167,1685
6.2194,1691
6.2222,1678
6.2250,1676
6.2278,1673
6.2306,1678
6.2333,1692
6.2361,1724
6.2389,1729
6.2417,1711
6.2444,1678
6.2472,1632
6.2500,1601
6.2528,1582
6.2556,1576
6.2583,1606
6.2611,1672
6.2639,1721
6.2667,1739
6.2694,1708
6.2722,1648
6.2750,1604
6.2778,1591
6.2806,1589
6.2833,1610
6.2861,1628
6.2889,1629
6.2917,1627
6.2944,1645
6.2972,1664
6.3000,1679
6.3028,1688
6.3056,1677
6.3083,1668
6.3111,1663
6.3139,1681
6.3167,1697
6.3194,1717
6.3222,1703
6.3250,1712
6.3278,1728
6.3306,1752
6.3333,1800
6.3361,1828
6.3389,1808
6.3417,1734
6.3444,1661
6.3472,1617
6.3500,1616
6.3528,1642
6.3556,1666
6.3583,1670
6.3611,1650
6.3639,1640
6.3667,1635
6.3694,1643
6.3722,1663
6.3750,1691
6.3778,1679
6.3806,1660
6.3833,1653
6.3861,1664
6.3889,1679
6.3917,1714
6.3944,1763
6.3972,1763
6.4000,1731
6.4028,1691
6.4056,1663
6.4083,1652
6.4111,1634
6.4139,1635
6.4167,1645
6.4194,1665
6.4222,1685
6.4250,1694
6.4278,1683
6.4306,1656
6.4333,1635
6.4361,1598
6.4389,1605
6.4417,1622
6.4444,1640
6.4472,1650
6.4500,1651
6.4528,1637
6.4556,1627
6.4583,1624
6.4611,1632
6.4639,1655
6.4667,1658
6.4694,1607
6.4722,1573
6.4750,1597
6.4778,1699
6.4806,1840
6.4833,1971
6.4861,2115
6.4889,2283
6.4917,2444
6.4944,2612
6.4972,2855
6.5000,3047
6.5028,3076
6.5056,2887
6.5083,2498
6.5111,2076
6.5139,1746
6.5167,1594
6.5194,1549
6.5222,1590
6.5250,1651
6.5278,1712
6.5306,1747
6.5333,1739
6.5361,1700
6.5389,1634
6.5417,1577
6.5444,1537
6.5472,1533
6.5500,1550
6.5528,1569
6.5556,1574
6.5583,1560
6.5611,1544
6.5639,1547
6.5667,1566
6.5694,1574
6.5722,1573
6.5750,1578
6.5778,1584
6.5806,1603
6.5833,1611
6.5861,1614
6.5889,1632
6.5917,1655
6.5944,1669
6.5972,1659
6.6000,1660
6.6028,1672
6.6056,1681
6.6083,1656
6.6111,1636
6.6139,1638
6.6167,1643
6.6194,1659
6.6222,1676
6.6250,1671
6.6278,1660
6.6306,1647
6.6333,1639
6.6361,1629
6.6389,1622
6.6417,1597
6.6444,1574
6.6472,1582
6.6500,1612
6.6528,1636
6.6556,1637
6.6583,1623
6.6611,1609
6.6639,1615
6.6667,1649
6.6694,1697
6.6722,1729
6.6750,1736
6.6778,1732
6.6806,1737
6.6833,1733
6.6861,1739
6.6889,1744
6.6917,1739
6.6944,1714
6.6972,1701
6.7000,1700
6.7028,1690
6.7056,1723
6.7083,1733
6.7111,1732
6.7139,1702
6.7167,1695
6.7194,1717
6.7222,1729
6.7250,1738
6.7278,1714
6.7306,1685
6.7333,1654
6.7361,1635
6.7389,1594
6.7417,1549
6.7444,1542
6.7472,1578
6.7500,1629
6.7528,1673
6.7556,1691
6.7583,1698
6.7611,1701
6.7639,1665
6.7667,1634
6.7694,1633
6.7722,1645
6.7750,1661
6.7778,1654
6.7806,1607
6.7833,1579
6.7861,1573
6.7889,1606
6.7917,1650
6.7944,1678
6.7972,1693
6.8000,1692
6.8028,1679
6.8056,1692
6.8083,1707
6.8111,1697
6.8139,1699
6.8167,1683
6.8194,1647
6.8222,1625
6.8250,1640
6.8278,1684
6.8306,1716
6.8333,1724
6.8361,1705
6.8389,1635
6.8417,1585
6.8444,1601
6.8472,1624
6.8500,1644
6.8528,1665
6.8556,1677
6.8583,1667
6.8611,1649
6.8639,1629
6.8667,1621
6.8694,1648
6.8722,1676
6.8750,1698
6.8778,1745
6.8806,1785
6.8833,1781
6.8861,1726
6.8889,1650
6.8917,1605
6.8944,1592
6.8972,1610
6.9000,1649
6.9028,1684
6.9056,1702
6.9083,1688
6.9111,1631
6.9139,1593
6.9167,1581
6.9194,1593
6.9222,1599
6.9250,1613
6.9278,1619
6.9306,1630
6.9333,1628
6.9361,1608
6.9389,1599
6.9417,1603
6.9444,1606
6.9472,1624
6.9500,1629
6.9528,1626
6.9556,1601
6.9583,1571
6.9611,1573
6.9639,1581
6.9667,1611
6.9694,1649
6.9722,1687
6.9750,1725
6.9778,1713
6.9806,1680
6.9833,1620
6.9861,1595
6.9889,1628
6.9917,1676
6.9944,1697
6.9972,1691
7.0000,1660
7.0028,1633
7.0056,1634
7.0083,1623
7.0111,1614
7.0139,1613
7.0167,1622
7.0194,1612
7.0222,1626
7.0250,1633
7.0278,1622
7.0306,1616
7.0333,1605
7.0361,1611
7.0389,1672
7.0417,1718
7.0444,1729
7.0472,1718
7.0500,1681
7.0528,1655
7.0556,1631
7.0583,1636
7.0611,1653
7.0639,1683
7.0667,1697
7.0694,1680
7.0722,1651
7.0750,1639
7.0778,1603
7.0806,1573
7.0833,1527
7.0861,1482
7.0889,1482
7.0917,1522
7.0944,1567
7.0972,1593
7.1000,1604
7.1028,1606
7.1056,1608
7.1083,1627
7.1111,1636
7.1139,1629
7.1167,1603
7.1194,1562
7.1222,1529
7.1250,1520
7.1278,1534
7.1306,1539
7.1333,1534
7.1361,1552
7.1389,1560
7.1417,1553
7.1444,1542
7.1472,1530
7.1500,1537
7.1528,1558
7.1556,1580
7.1583,1575
7.1611,1555
7.1639,1551
7.1667,1571
7.1694,1667
7.1722,1797
7.1750,1933
7.1778,2069
7.1806,2193
7.1833,2313
7.1861,2508
7.1889,2765
7.1917,2930
7.1944,2897
7.1972,2656
7.2000,2241
7.2028,1853
7.2056,1608
7.2083,1535
7.2111,1569
7.2139,1611
7.2167,1649
7.2194,1655
7.2222,1668
7.2250,1656
7.2278,1626
7.2306,1583
7.2333,1549
7.2361,1532
7.2389,1522
7.2417,1520
7.2444,1515
7.2472,1523
7.2500,1532
7.2528,1556
7.2556,1564
7.2583,1603
7.2611,1629
7.2639,1631
7.2667,1580
7.2694,1501
7.2722,1434
7.2750,1420
7.2778,1465
7.2806,1555
7.2833,1665
7.2861,1713
7.2889,1698
7.2917,1645
7.2944,1619
7.2972,1584
7.3000,1589
7.3028,1593
7.3056,1604
7.3083,1604
7.3111,1622
7.3139,1633
7.3167,1652
7.3194,1647
7.3222,1625
7.3250,1579
7.3278,1536
7.3306,1502
7.3333,1512
7.3361,1523
7.3389,1533
7.3417,1568
7.3444,1610
7.3472,1640
7.3500,1664
7.3528,1697
7.3556,1714
7.3583,1705
7.3611,1700
7.3639,1698
7.3667,1685
7.3694,1663
7.3722,1649
7.3750,1672
7.3778,1675
7.3806,1687
7.3833,1682
7.3861,1644
7.3889,1628
7.3917,1678
7.3944,1746
7.3972,1858
7.4000,1856
7.4028,1848
7.4056,1842
7.4083,1842
7.4111,1831
7.4139,1795
7.4167,1800
7.4194,1814
7.4222,1854
7.4250,1874
7.4278,1851
7.4306,1821
7.4333,1799
7.4361,1798
7.4389,1831
7.4417,1841
7.4444,1831
7.4472,1809
7.4500,1808
7.4528,1844
7.4556,1883
7.4583,1905
7.4611,1887
7.4639,1866
7.4667,1849
7.4694,1818
7.4722,1788
7.4750,1760
7.4778,1741
7.4806,1755
7.4833,1779
7.4861,1778
7.4889,1766
7.4917,1748
7.4944,1728
7.4972,1719
7.5000,1738
7.5028,1750
7.5056,1739
7.5083,1772
7.5111,1807
7.5139,1845
7.5167,1836
7.5194,1802
7.5222,1751
7.5250,1701
7.5278,1674
7.5306,1652
7.5333,1678
7.5361,1727
7.5389,1788
7.5417,1847
7.5444,1865
7.5472,1851
7.5500,1800
7.5528,1741
7.5556,1679
7.5583,1630
7.5611,1605
7.5639,1618
7.5667,1659
7.5694,1711
7.5722,1747
7.5750,1737
7.5778,1688
7.5806,1656
7.5833,1680
7.5861,1739
7.5889,1787
7.5917,1793
7.5944,1743
7.5972,1655
7.6000,1567
7.6028,1549
7.6056,1589
7.6083,1642
7.6111,1680
7.6139,1683
7.6167,1693
7.6194,1699
7.6222,1688
7.6250,1663
7.6278,1645
7.6306,1619
7.6333,1590
7.6361,1588
7.6389,1600
7.6417,1624
7.6444,1641
7.6472,1628
7.6500,1623
7.6528,1616
7.6556,1617
7.6583,1644
7.6611,1693
7.6639,1709
7.6667,1691
7.6694,1636
7.6722,1607
7.6750,1607
7.6778,1615
7.6806,1618
7.6833,1593
7.6861,1569
7.6889,1543
7.6917,1569
7.6944,1595
7.6972,1604
7.7000,1591
7.7028,1562
7.7056,1559
7.7083,1569
7.7111,1591
7.7139,1610
7.7167,1611
7.7194,1627
7.7222,1633
7.7250,1619
7.7278,1604
7.7306,1589
7.7333,1572
7.7361,1560
7.7389,1559
7.7417,1567
7.7444,1591
7.7472,1617
7.7500,1611
7.7528,1574
7.7556,1531
7.7583,1493
7.7611,1469
7.7639,1479
7.7667,1488
7.7694,1524
7.7722,1550
7.7750,1567
7.7778,1561
7.7806,1543
7.7833,1527
7.7861,1501
7.7889,1492
7.7917,1508
7.7944,1543
7.7972,1573
7.8000,1635
7.8028,1668
7.8056,1658
7.8083,1613
7.8111,1544
7.8139,1491
7.8167,1474
7.8194,1467
7.8222,1460
7.8250,1477
7.8278,1524
7.8306,1566
7.8333,1646
7.8361,1735
7.8389,1822
7.8417,1919
7.8444,2007
7.8472,2127
7.8500,2276
7.8528,2449
7.8556,2639
7.8583,2731
7.8611,2660
7.8639,2399
7.8667,2014
7.8694,1676
7.8722,1490
7.8750,1463
7.8778,1491
7.8806,1543
7.8833,1570
7.8861,1615
7.8889,1646
7.8917,1662
7.8944,1609
7.8972,1501
7.9000,1407
7.9028,1378
7.9056,1394
7.9083,1446
7.9111,1518
7.9139,1547
7.9167,1504
7.9194,1436
7.9222,1365
7.9250,1324
7.9278,1352
7.9306,1412
7.9333,1489
7.9361,1534
7.9389,1536
7.9417,1551
7.9444,1568
7.9472,1551
7.9500,1521
7.9528,1500
7.9556,1505
7.9583,1533
7.9611,1574
7.9639,1593
7.9667,1584
7.9694,1542
7.9722,1522
7.9750,1517
7.9778,1541
7.9806,1556
7.9833,1576
7.9861,1590
7.9889,1572
7.9917,1538
7.9944,1503
7.9972,1489
8.0000,1483
8.0028,1476
8.0056,1481
8.0083,1474
8.0111,1447
8.0139,1463
8.0167,1477
8.0194,1512
8.0222,1544
8.0250,1601
8.0278,1641
8.0306,1642
8.0333,1618
8.0361,1570
8.0389,1528
8.0417,1512
8.0444,1501
8.0472,1515
8.0500,1569
8.0528,1643
8.0556,1735
8.0583,1766
8.0611,1743
8.0639,1716
8.0667,1730
8.0694,1709
8.0722,1657
8.0750,1588
8.0778,1549
8.0806,1531
8.0833,1532
8.0861,1562
8.0889,1586
8.0917,1607
8.0944,1590
8.0972,1561
8.1000,1556
8.1028,1572
8.1056,1602
8.1083,1643
8.1111,1662
8.1139,1666
8.1167,1660
8.1194,1639
8.1222,1638
8.1250,1603
8.1278,1568
8.1306,1524
8.1333,1504
8.1361,1486
8.1389,1526
8.1417,1593
8.1444,1634
8.1472,1632
8.1500,1610
8.1528,1554
8.1556,1524
8.1583,1507
8.1611,1522
8.1639,1590
8.1667,1641
8.1694,1664
8.1722,1651
8.1750,1651
8.1778,1644
8.1806,1652
8.1833,1654
8.1861,1651
8.1889,1635
8.1917,1636
8.1944,1642
8.1972,1624
8.2000,1606
8.2028,1607
8.2056,1630
8.2083,1649
8.2111,1647
8.2139,1629
8.2167,1615
8.2194,1565
8.2222,1536
8.2250,1568
8.2278,1610
8.2306,1641
8.2333,1648
8.2361,1627
8.2389,1613
8.2417,1610
8.2444,1606
8.2472,1587
8.2500,1563
8.2528,1562
8.2556,1590
8.2583,1618
8.2611,1630
8.2639,1625
8.2667,1623
8.2694,1607
8.2722,1593
8.2750,1577
8.2778,1557
8.2806,1575
8.2833,1601
8.2861,1641
8.2889,1679
8.2917,1714
8.2944,1724
8.2972,1701
8.3000,1671
8.3028,1619
8.3056,1578
8.3083,1589
8.3111,1612
8.3139,1618
8.3167,1623
8.3194,1676
8.3222,1701
8.3250,1707
8.3278,1693
8.3306,1657
8.3333,1625
8.3361,1609
8.3389,1611
8.3417,1651
8.3444,1682
8.3472,1703
8.3500,1711
8.3528,1715
8.3556,1703
8.3583,1672
8.3611,1645
8.3639,1621
8.3667,1620
8.3694,1621
8.3722,1632
8.3750,1656
8.3778,1616
8.3806,1574
8.3833,1527
8.3861,1524
8.3889,1546
8.3917,1560
8.3944,1544
8.3972,1567
8.4000,1599
8.4028,1619
8.4056,1625
8.4083,1670
8.4111,1701
8.4139,1701
8.4167,1683
8.4194,1666
8.4222,1681
8.4250,1711
8.4278,1718
8.4306,1695
8.4333,1616
8.4361,1559
8.4389,1543
8.4417,1561
8.4444,1583
8.4472,1602
8.4500,1613
8.4528,1617
8.4556,1656
8.4583,1683
8.4611,1686
8.4639,1653
8.4667,1662
8.4694,1733
8.4722,1819
8.4750,1924
8.4778,2075
8.4806,2247
8.4833,2412
8.4861,2549
8.4889,2713
8.4917,2833
8.4944,2860
8.4972,2709
8.5000,2386
8.5028,2016
8.5056,1720
8.5083,1576
8.5111,1531
8.5139,1526
8.5167,1605
8.5194,1709
8.5222,1753
8.5250,1716
8.5278,1667
8.5306,1653
8.5333,1651
8.5361,1621
8.5389,1606
8.5417,1640
8.5444,1709
8.5472,1735
8.5500,1692
8.5528,1621
8.5556,1585
8.5583,1577
8.5611,1566
8.5639,1544
8.5667,1538
8.5694,1552
8.5722,1612
8.5750,1678
8.5778,1698
8.5806,1705
8.5833,1700
8.5861,1645
8.5889,1565
8.5917,1499
8.5944,1523
8.5972,1560
8.6000,1621
8.6028,1659
8.6056,1668
8.6083,1670
8.6111,1642
8.6139,1610
8.6167,1590
8.6194,1614
8.6222,1664
8.6250,1684
8.6278,1666
8.6306,1631
8.6333,1625
8.6361,1632
8.6389,1637
8.6417,1620
8.6444,1604
8.6472,1607
8.6500,1608
8.6528,1627
8.6556,1633
8.6583,1660
8.6611,1685
8.6639,1704
8.6667,1699
8.6694,1698
8.6722,1695
8.6750,1668
8.6778,1635
8.6806,1658
8.6833,1725
8.6861,1815
8.6889,1858
8.6917,1837
8.6944,1761
8.6972,1805
8.7000,1805
8.7028,1813
8.7056,1818
8.7083,1791
8.7111,1728
8.7139,1639
8.7167,1592
8.7194,1593
8.7222,1595
8.7250,1598
8.7278,1617
8.7306,1616
8.7333,1642
8.7361,1712
8.7389,1756
8.7417,1768
8.7444,1741
8.7472,1698
8.7500,1686
8.7528,1668
8.7556,1678
8.7583,1710
8.7611,1722
8.7639,1720
8.7667,1703
8.7694,1671
8.7722,1617
8.7750,1588
8.7778,1587
8.7806,1610
8.7833,1616
8.7861,1642
8.7889,1682
8.7917,1689
8.7944,1664
8.7972,1641
8.8000,1628
8.8028,1662
8.8056,1712
8.8083,1747
8.8111,1756
8.8139,1732
8.8167,1707
8.8194,1684
8.8222,1682
8.8250,1672
8.8278,1653
8.8306,1648
8.8333,1666
8.8361,1692
8.8389,1702
8.8417,1714
8.8444,1719
8.8472,1732
8.8500,1736
8.8528,1731
8.8556,1686
8.8583,1651
8.8611,1642
8.8639,1662
8.8667,1660
8.8694,1655
8.8722,1647
8.8750,1669
8.8778,1647
8.8806,1581
8.8833,1530
8.8861,1507
8.8889,1533
8.8917,1576
8.8944,1619
8.8972,1615
8.9000,1585
8.9028,1593
8.9056,1635
8.9083,1651
8.9111,1620
8.9139,1597
8.9167,1581
8.9194,1594
8.9222,1638
8.9250,1717
8.9278,1766
8.9306,1794
8.9333,1772
8.9361,1692
8.9389,1631
8.9417,1593
8.9444,1560
8.9472,1541
8.9500,1562
8.9528,1585
8.9556,1584
8.9583,1561
8.9611,1559
8.9639,1559
8.9667,1565
8.9694,1606
8.9722,1658
8.9750,1671
8.9778,1622
8.9806,1532
8.9833,1497
8.9861,1520
8.9889,1543
8.9917,1565
8.9944,1589
8.9972,1592
9.0000,1580
9.0028,1570
9.0056,1533
9.0083,1506
9.0111,1510
9.0139,1514
9.0167,1525
9.0194,1523
9.0222,1551
9.0250,1609
9.0278,1642
9.0306,1655
9.0333,1619
9.0361,1576
9.0389,1540
9.0417,1498
9.0444,1501
9.0472,1521
9.0500,1501
9.0528,1522
9.0556,1563
9.0583,1585
9.0611,1606
9.0639,1611
9.0667,1586
9.0694,1555
9.0722,1526
9.0750,1508
9.0778,1524
9.0806,1509
9.0833,1482
9.0861,1480
9.0889,1496
9.0917,1519
9.0944,1547
9.0972,1600
9.1000,1689
9.1028,1806
9.1056,1935
9.1083,2056
9.1111,2197
9.1139,2368
9.1167,2609
9.1194,2889
9.1222,3076
9.1250,3081
9.1278,2878
9.1306,2476
9.1333,2008
9.1361,1663
9.1389,1508
9.1417,1495
9.1444,1536
9.1472,1605
9.1500,1649
9.1528,1627
9.1556,1592
9.1583,1577
9.1611,1535
9.1639,1479
9.1667,1466
9.1694,1484
9.1722,1479
9.1750,1458
9.1778,1442
9.1806,1438
9.1833,1442
9.1861,1475
9.1889,1506
9.1917,1553
9.1944,1567
9.1972,1545
9.2000,1469
9.2028,1422
9.2056,1395
9.2083,1423
9.2111,1448
9.2139,1481
9.2167,1459
9.2194,1407
9.2222,1380
9.2250,1360
9.2278,1394
9.2306,1435
9.2333,1450
9.2361,1497
9.2389,1551
9.2417,1589
9.2444,1583
9.2472,1504
9.2500,1415
9.2528,1396
9.2556,1441
9.2583,1508
9.2611,1544
9.2639,1544
9.2667,1568
9.2694,1592
9.2722,1601
9.2750,1566
9.2778,1506
9.2806,1462
9.2833,1422
9.2861,1397
9.2889,1434
9.2917,1480
9.2944,1551
9.2972,1628
9.3000,1655
9.3028,1648
9.3056,1635
9.3083,1625
9.3111,1605
9.3139,1581
9.3167,1588
9.3194,1611
9.3222,1648
9.3250,1643
9.3278,1729
9.3306,1724
9.3333,1728
9.3361,1700
9.3389,1682
9.3417,1656
9.3444,1610
9.3472,1543
9.3500,1514
9.3528,1548
9.3556,1580
9.3583,1556
9.3611,1526
9.3639,1512
9.3667,1527
9.3694,1534
9.3722,1520
9.3750,1536
9.3778,1574
9.3806,1610
9.3833,1605
9.3861,1591
9.3889,1591
9.3917,1601
9.3944,1594
9.3972,1604
9.4000,1630
9.4028,1662
9.4056,1681
9.4083,1689
9.4111,1663
9.4139,1598
9.4167,1555
9.4194,1511
9.4222,1490
9.4250,1499
9.4278,1519
9.4306,1529
9.4333,1550
9.4361,1566
9.4389,1541
9.4417,1523
9.4444,1487
9.4472,1510
9.4500,1556
9.4528,1575
9.4556,1564
9.4583,1518
9.4611,1533
9.4639,1588
9.4667,1631
9.4694,1631
9.4722,1622
9.4750,1635
9.4778,1642
9.4806,1621
9.4833,1627
9.4861,1660
9.4889,1683
9.4917,1680
9.4944,1633
9.4972,1629
9.5000,1680
9.5028,1701
9.5056,1677
9.5083,1603
9.5111,1531
9.5139,1520
9.5167,1540
9.5194,1552
9.5222,1561
9.5250,1553
9.5278,1562
9.5306,1585
9.5333,1615
9.5361,1647
9.5389,1652
9.5417,1606
9.5444,1582
9.5472,1594
9.5500,1627
9.5528,1663
9.5556,1708
9.5583,1725
9.5611,1703
9.5639,1685
9.5667,1651
9.5694,1636
9.5722,1625
9.5750,1622
9.5778,1635
9.5806,1603
9.5833,1596
9.5861,1603
9.5889,1630
9.5917,1654
9.5944,1670
9.5972,1672
9.6000,1655
9.6028,1618
9.6056,1594
9.6083,1553
9.6111,1548
9.6139,1598
9.6167,1610
9.6194,1611
9.6222,1594
9.6250,1589
9.6278,1586
9.6306,1577
9.6333,1567
9.6361,1563
9.6389,1562
9.6417,1546
9.6444,1511
9.6472,1490
9.6500,1492
9.6528,1505
9.6556,1540
9.6583,1580
9.6611,1631
9.6639,1663
9.6667,1641
9.6694,1617
9.6722,1610
9.6750,1582
9.6778,1564
9.6806,1564
9.6833,1574
9.6861,1577
9.6889,1549
9.6917,1502
9.6944,1461
9.6972,1436
9.7000,1442
9.7028,1422
9.7056,1412
9.7083,1431
9.7111,1476
9.7139,1546
9.7167,1573
9.7194,1534
9.7222,1481
9.7250,1486
9.7278,1527
9.7306,1632
9.7333,1785
9.7361,1946
9.7389,2116
9.7417,2289
9.7444,2481
9.7472,2700
9.7500,2863
9.7528,2883
9.7556,2707
9.7583,2347
9.7611,1930
9.7639,1619
9.7667,1451
9.7694,1435
9.7722,1469
9.7750,1511
9.7778,1558
9.7806,1582
9.7833,1589
9.7861,1543
9.7889,1473
9.7917,1408
9.7944,1365
9.7972,1384
9.8000,1441
9.8028,1457
9.8056,1430
9.8083,1387
9.8111,1395
9.8139,1415
9.8167,1470
9.8194,1507
9.8222,1500
9.8250,1478
9.8278,1483
9.8306,1490
9.8333,1480
9.8361,1476
9.8389,1450
9.8417,1394
9.8444,1387
9.8472,1448
9.8500,1470
9.8528,1495
9.8556,1496
9.8583,1479
9.8611,1470
9.8639,1475
9.8667,1468
9.8694,1429
9.8722,1395
9.8750,1418
9.8778,1457
9.8806,1498
9.8833,1528
9.8861,1510
9.8889,1461
9.8917,1422
9.8944,1464
9.8972,1511
9.9000,1533
9.9028,1499
9.9056,1495
9.9083,1486
9.9111,1492
9.9139,1498
9.9167,1506
9.9194,1512
9.9222,1521
9.9250,1553
9.9278,1593
9.9306,1618
9.9333,1612
9.9361,1599
9.9389,1570
9.9417,1549
9.9444,1549
9.9472,1582
9.9500,1607
9.9528,1619
9.9556,1757
9.9583,1748
9.9611,1680
9.9639,1628
9.9667,1592
9.9694,1543
9.9722,1490
9.9750,1456
9.9778,1446
9.9806,1486
9.9833,1548
9.9861,1581
9.9889,1570
9.9917,1526
9.9944,1472
9.9972,1441
10.0000,1463
10.0028,1500
10.0056,1526
10.0083,1522
10.0111,1505
10.0139,1501
10.0167,1474
10.0194,1470
10.0222,1492
10.0250,1492
10.0278,1494
10.0306,1533
10.0333,1549
10.0361,1560
10.0389,1553
10.0417,1542
10.0444,1539
10.0472,1529
10.0500,1505
10.0528,1442
10.0556,1404
10.0583,1420
10.0611,1440
10.0639,1463
10.0667,1454
10.0694,1429
10.0722,1425
10.0750,1461
10.0778,1494
10.0806,1519
10.0833,1531
10.0861,1513
10.0889,1444
10.0917,1399
10.0944,1395
10.0972,1442
10.1000,1493
10.1028,1527
10.1056,1536
10.1083,1519
10.1111,1511
10.1139,1520
10.1167,1513
10.1194,1503
10.1222,1475
10.1250,1448
10.1278,1440
10.1306,1463
10.1333,1482
10.1361,1472
10.1389,1467
10.1417,1485
10.1444,1477
10.1472,1463
10.1500,1445
10.1528,1451
10.1556,1430
10.1583,1423
10.1611,1450
10.1639,1453
10.1667,1448
10.1694,1451
10.1722,1453
10.1750,1450
10.1778,1486
10.1806,1523
10.1833,1519
10.1861,1464
10.1889,1433
10.1917,1420
10.1944,1402
10.1972,1383
10.2000,1377
10.2028,1377
10.2056,1366
10.2083,1360
10.2111,1378
10.2139,1416
10.2167,1422
10.2194,1426
10.2222,1464
10.2250,1494
10.2278,1527
10.2306,1589
10.2333,1625
10.2361,1614
10.2389,1581
10.2417,1539
10.2444,1495
10.2472,1486
10.2500,1467
10.2528,1451
10.2556,1417
10.2583,1388
10.2611,1376
10.2639,1381
10.2667,1430
10.2694,1463
10.2722,1478
10.2750,1471
10.2778,1476
10.2806,1469
10.2833,1465
10.2861,1434
10.2889,1415
10.2917,1382
10.2944,1392
10.2972,1448
10.3000,1492
10.3028,1519
10.3056,1525
10.3083,1512
10.3111,1468
10.3139,1409
10.3167,1370
10.3194,1366
10.3222,1405
10.3250,1441
10.3278,1483
10.3306,1481
10.3333,1465
10.3361,1441
10.3389,1446
10.3417,1439
10.3444,1429
10.3472,1416
10.3500,1413
10.3528,1385
10.3556,1353
10.3583,1344
10.3611,1380
10.3639,1434
10.3667,1443
10.3694,1426
10.3722,1377
10.3750,1356
10.3778,1352
10.3806,1371
10.3833,1423
10.3861,1476
10.3889,1499
10.3917,1504
10.3944,1456
10.3972,1409
10.4000,1408
10.4028,1453
10.4056,1557
10.4083,1690
10.4111,1826
10.4139,1929
10.4167,2048
10.4194,2196
10.4222,2358
10.4250,2546
10.4278,2703
10.4306,2753
10.4333,2614
10.4361,2290
10.4389,1925
10.4417,1619
10.4444,1437
10.4472,1380
10.4500,1407
10.4528,1467
10.4556,1519
10.4583,1556
10.4611,1573
10.4639,1528
10.4667,1458
10.4694,1376
10.4722,1331
10.4750,1344
10.4778,1412
10.4806,1467
10.4833,1498
10.4861,1477
10.4889,1461
10.4917,1451
10.4944,1455
10.4972,1472
10.5000,1482
10.5028,1450
10.5056,1381
10.5083,1327
10.5111,1327
10.5139,1351
10.5167,1381
10.5194,1413
10.5222,1409
10.5250,1413
10.5278,1455
10.5306,1487
10.5333,1508
10.5361,1497
10.5389,1483
10.5417,1474
10.5444,1459
10.5472,1441
10.5500,1427
10.5528,1460
10.5556,1482
10.5583,1489
10.5611,1478
10.5639,1448
10.5667,1430
10.5694,1417
10.5722,1442
10.5750,1489
10.5778,1516
10.5806,1472
10.5833,1427
10.5861,1402
10.5889,1427
10.5917,1469
10.5944,1527
10.5972,1588
10.6000,1627
10.6028,1614
10.6056,1569
10.6083,1503
10.6111,1472
10.6139,1480
10.6167,1500
10.6194,1509
10.6222,1546
10.6250,1573
10.6278,1603
10.6306,1614
10.6333,1610
10.6361,1631
10.6389,1633
10.6417,1603
10.6444,1574
10.6472,1562
10.6500,1547
10.6528,1498
10.6556,1492
10.6583,1560
10.6611,1634
10.6639,1653
10.6667,1615
10.6694,1587
10.6722,1574
10.6750,1568
10.6778,1559
10.6806,1602
10.6833,1643
10.6861,1662
10.6889,1652
10.6917,1613
10.6944,1572
10.6972,1546
10.7000,1539
10.7028,1569
10.7056,1609
10.7083,1641
10.7111,1643
10.7139,1624
10.7167,1619
10.7194,1592
10.7222,1557
10.7250,1523
10.7278,1547
10.7306,1611
10.7333,1665
10.7361,1673
10.7389,1645
10.7417,1592
10.7444,1536
10.7472,1538
10.7500,1577
10.7528,1643
10.7556,1701
10.7583,1721
10.7611,1718
10.7639,1694
10.7667,1671
10.7694,1646
10.7722,1655
10.7750,1677
10.7778,1704
10.7806,1697
10.7833,1645
10.7861,1594
10.7889,1593
10.7917,1616
10.7944,1631
10.7972,1657
10.8000,1685
10.8028,1711
10.8056,1712
10.8083,1712
10.8111,1720
10.8139,1716
10.8167,1709
10.8194,1704
10.8222,1713
10.8250,1706
10.8278,1701
10.8306,1674
10.8333,1651
10.8361,1656
10.8389,1675
10.8417,1704
10.8444,1724
10.8472,1721
10.8500,1708
10.8528,1692
10.8556,1684
10.8583,1700
10.8611,1709
10.8639,1714
10.8667,1712
10.8694,1691
10.8722,1669
10.8750,1644
10.8778,1619
10.8806,1624
10.8833,1634
10.8861,1680
10.8889,1742
10.8917,1799
10.8944,1817
10.8972,1835
10.9000,1866
10.9028,1870
10.9056,1820
10.9083,1750
10.9111,1690
10.9139,1662
10.9167,1629
10.9194,1621
10.9222,1657
10.9250,1706
10.9278,1736
10.9306,1759
10.9333,1755
10.9361,1749
10.9389,1749
10.9417,1738
10.9444,1743
10.9472,1761
10.9500,1758
10.9528,1764
10.9556,1743
10.9583,1729
10.9611,1728
10.9639,1741
10.9667,1762
10.9694,1757
10.9722,1745
10.9750,1748
10.9778,1730
10.9806,1691
10.9833,1699
10.9861,1742
10.9889,1764
10.9917,1775
10.9944,1807
10.9972,1810
11.0000,1806
11.0028,1822
11.0056,1811
11.0083,1783
11.0111,1773
11.0139,1785
11.0167,1816
11.0194,1838
11.0222,1841
11.0250,1819
11.0278,1791
11.0306,1762
11.0333,1731
11.0361,1722
11.0389,1746
11.0417,1780
11.0444,1814
11.0472,1814
11.0500,1792
11.0528,1754
11.0556,1706
11.0583,1693
11.0611,1732
11.0639,1752
11.0667,1739
11.0694,1708
11.0722,1690
11.0750,1690
11.0778,1699
11.0806,1726
11.0833,1712
11.0861,1707
11.0889,1696
11.0917,1694
11.0944,1715
11.0972,1732
11.1000,1741
11.1028,1774
11.1056,1806
11.1083,1809
11.1111,1784
11.1139,1743
11.1167,1712
11.1194,1721
11.1222,1754
11.1250,1825
11.1278,1915
11.1306,2037
11.1333,2124
11.1361,2218
11.1389,2308
11.1417,2435
11.1444,2639
11.1472,2875
11.1500,2991
11.1528,2946
11.1556,2681
11.1583,2314
11.1611,1957
11.1639,1726
11.1667,1635
11.1694,1655
11.1722,1741
11.1750,1802
11.1778,1811
11.1806,1784
11.1833,1748
11.1861,1695
11.1889,1646
11.1917,1618
11.1944,1624
11.1972,1665
11.2000,1685
11.2028,1677
11.2056,1645
11.2083,1621
11.2111,1635
11.2139,1659
11.2167,1671
11.2194,1681
11.2222,1679
11.2250,1658
11.2278,1630
11.2306,1584
11.2333,1545
11.2361,1549
11.2389,1564
11.2417,1609
11.2444,1633
11.2472,1678
11.2500,1668
11.2528,1643
11.2556,1631
11.2583,1651
11.2611,1667
11.2639,1664
11.2667,1628
11.2694,1594
11.2722,1602
11.2750,1654
11.2778,1703
11.2806,1718
11.2833,1740
11.2861,1786
11.2889,1796
11.2917,1757
11.2944,1715
11.2972,1692
11.3000,1690
11.3028,1671
11.3056,1664
11.3083,1639
11.3111,1618
11.3139,1655
11.3167,1707
11.3194,1771
11.3222,1793
11.3250,1807
11.3278,1789
11.3306,1758
11.3333,1731
11.3361,1711
11.3389,1713
11.3417,1707
11.3444,1690
11.3472,1699
11.3500,1733
11.3528,1790
11.3556,1842
11.3583,1850
11.3611,1815
11.3639,1776
11.3667,1767
11.3694,1768
11.3722,1754
11.3750,1717
11.3778,1695
11.3806,1731
11.3833,1779
11.3861,1802
11.3889,1807
11.3917,1776
11.3944,1747
11.3972,1750
11.4000,1767
11.4028,1768
11.4056,1738
11.4083,1740
11.4111,1738
11.4139,1730
11.4167,1732
11.4194,1746
11.4222,1780
11.4250,1790
11.4278,1769
11.4306,1754
11.4333,1741
11.4361,1711
11.4389,1669
11.4417,1644
11.4444,1662
11.4472,1728
11.4500,1795
11.4528,1853
11.4556,1894
11.4583,1917
11.4611,1866
11.4639,1777
11.4667,1684
11.4694,1648
11.4722,1660
11.4750,1692
11.4778,1714
11.4806,1737
11.4833,1746
11.4861,1737
11.4889,1727
11.4917,1734
11.4944,1753
11.4972,1785
11.5000,1795
11.5028,1781
11.5056,1794
11.5083,1798
11.5111,1797
11.5139,1815
11.5167,1825
11.5194,1820
11.5222,1813
11.5250,1840
11.5278,1868
11.5306,1860
11.5333,1806
11.5361,1744
11.5389,1709
11.5417,1693
11.5444,1692
11.5472,1732
11.5500,1769
11.5528,1784
11.5556,1804
11.5583,1790
11.5611,1768
11.5639,1752
11.5667,1753
11.5694,1768
11.5722,1768
11.5750,1771
11.5778,1758
11.5806,1765
11.5833,1765
11.5861,1765
11.5889,1750
11.5917,1728
11.5944,1698
11.5972,1704
11.6000,1706
11.6028,1701
11.6056,1717
11.6083,1734
11.6111,1752
11.6139,1749
11.6167,1737
11.6194,1723
11.6222,1706
11.6250,1676
11.6278,1677
11.6306,1732
11.6333,1787
11.6361,1810
11.6389,1775
11.6417,1708
11.6444,1660
11.6472,1657
11.6500,1691
11.6528,1742
11.6556,1797
11.6583,1807
11.6611,1785
11.6639,1779
11.6667,1759
11.6694,1733
11.6722,1692
11.6750,1675
11.6778,1699
11.6806,1741
11.6833,1761
11.6861,1783
11.6889,1783
11.6917,1784
11.6944,1768
11.6972,1755
11.7000,1754
11.7028,1774
11.7056,1776
11.7083,1766
11.7111,1744
11.7139,1763
11.7167,1784
11.7194,1812
11.7222,1823
11.7250,1838
11.7278,1839
11.7306,1816
11.7333,1793
11.7361,1791
11.7389,1812
11.7417,1837
11.7444,1842
11.7472,1842
11.7500,1806
11.7528,1763
11.7556,1729
11.7583,1741
11.7611,1780
11.7639,1809
11.7667,1799
11.7694,1778
11.7722,1760
11.7750,1746
11.7778,1754
11.7806,1775
11.7833,1777
11.7861,1748
11.7889,1728
11.7917,1714
11.7944,1735
11.7972,1778
11.8000,1815
11.8028,1817
11.8056,1791
11.8083,1741
11.8111,1721
11.8139,1775
11.8167,1829
11.8194,1852
11.8222,1844
11.8250,1812
11.8278,1755
11.8306,1715
11.8333,1720
11.8361,1705
11.8389,1678
11.8417,1676
11.8444,1710
11.8472,1739
11.8500,1750
11.8528,1766
11.8556,1799
11.8583,1820
11.8611,1842
11.8639,1836
11.8667,1805
11.8694,1773
11.8722,1757
11.8750,1727
11.8778,1725
11.8806,1752
11.8833,1833
11.8861,1955
11.8889,2058
11.8917,2118
11.8944,2206
11.8972,2360
11.9000,2559
11.9028,2785
11.9056,3019
11.9083,3103
11.9111,2992
11.9139,2706
11.9167,2335
11.9194,1999
11.9222,1782
11.9250,1689
11.9278,1680
11.9306,1719
11.9333,1756
11.9361,1776
11.9389,1755
11.9417,1730
11.9444,1665
11.9472,1611
11.9500,1612
11.9528,1641
11.9556,1684
11.9583,1714
11.9611,1707
11.9639,1679
11.9667,1626
11.9694,1597
11.9722,1602
11.9750,1648
11.9778,1689
11.9806,1698
11.9833,1650
11.9861,1605
11.9889,1620
11.9917,1654
11.9944,1680
11.9972,1665
12.0000,1624
12.0028,1600
12.0056,1589
12.0083,1593
12.0111,1601
12.0139,1607
12.0167,1627
12.0194,1657
12.0222,1660
12.0250,1663
12.0278,1633
12.0306,1603
12.0333,1599
12.0361,1608
12.0389,1619
12.0417,1612
12.0444,1640
12.0472,1672
12.0500,1706
12.0528,1704
12.0556,1682
12.0583,1647
12.0611,1647
12.0639,1666
12.0667,1673
12.0694,1711
12.0722,1720
12.0750,1714
12.0778,1693
12.0806,1721
12.0833,1733
12.0861,1713
12.0889,1661
12.0917,1640
12.0944,1679
12.0972,1737
12.1000,1779
12.1028,1788
12.1056,1781
12.1083,1776
12.1111,1770
12.1139,1804
12.1167,1806
12.1194,1842
12.1222,1836
12.1250,1811
12.1278,1778
12.1306,1761
12.1333,1753
12.1361,1761
12.1389,1765
12.1417,1742
12.1444,1700
12.1472,1653
12.1500,1634
12.1528,1632
12.1556,1643
12.1583,1645
12.1611,1660
12.1639,1673
12.1667,1681
12.1694,1655
12.1722,1623
12.1750,1619
12.1778,1654
12.1806,1707
12.1833,1744
12.1861,1749
12.1889,1721
12.1917,1685
12.1944,1657
12.1972,1667
12.2000,1688
12.2028,1710
12.2056,1730
12.2083,1732
12.2111,1721
12.2139,1692
12.2167,1667
12.2194,1663
12.2222,1673
12.2250,1679
12.2278,1648
12.2306,1603
12.2333,1610
12.2361,1652
12.2389,1677
12.2417,1692
12.2444,1686
12.2472,1691
12.2500,1690
12.2528,1687
12.2556,1704
12.2583,1708
12.2611,1711
12.2639,1707
12.2667,1694
12.2694,1718
12.2722,1731
12.2750,1741
12.2778,1750
12.2806,1748
12.2833,1747
12.2861,1743
12.2889,1714
12.2917,1679
12.2944,1648
12.2972,1632
12.3000,1613
12.3028,1618
12.3056,1639
12.3083,1680
12.3111,1685
12.3139,1651
12.3167,1626
12.3194,1616
12.3222,1610
12.3250,1630
12.3278,1655
12.3306,1682
12.3333,1711
12.3361,1726
12.3389,1719
12.3417,1709
12.3444,1676
12.3472,1664
12.3500,1666
12.3528,1672
12.3556,1693
12.3583,1684
12.3611,1677
12.3639,1678
12.3667,1698
12.3694,1702
12.3722,1695
12.3750,1666
12.3778,1628
12.3806,1610
12.3833,1602
12.3861,1610
12.3889,1625
12.3917,1636
12.3944,1629
12.3972,1595
12.4000,1591
12.4028,1606
12.4056,1639
12.4083,1676
12.4111,1697
12.4139,1692
12.4167,1712
12.4194,1722
12.4222,1681
12.4250,1615
12.4278,1584
12.4306,1601
12.4333,1639
12.4361,1682
12.4389,1707
12.4417,1705
12.4444,1705
12.4472,1713
12.4500,1724
12.4528,1717
12.4556,1708
12.4583,1670
12.4611,1653
12.4639,1627
12.4667,1616
12.4694,1608
12.4722,1628
12.4750,1674
12.4778,1724
12.4806,1730
12.4833,1707
12.4861,1698
12.4889,1703
12.4917,1716
12.4944,1739
12.4972,1746
12.5000,1731
12.5028,1732
12.5056,1718
12.5083,1706
12.5111,1699
12.5139,1692
12.5167,1678
12.5194,1653
12.5222,1654
12.5250,1657
12.5278,1680
12.5306,1681
12.5333,1653
12.5361,1613
12.5389,1602
12.5417,1600
12.5444,1600
12.5472,1607
12.5500,1599
12.5528,1603
12.5556,1630
12.5583,1654
12.5611,1674
12.5639,1691
12.5667,1684
12.5694,1652
12.5722,1622
12.5750,1621
12.5778,1625
12.5806,1604
12.5833,1611
12.5861,1636
12.5889,1661
12.5917,1673
12.5944,1685
12.5972,1666
12.6000,1638
12.6028,1627
12.6056,1615
12.6083,1598
12.6111,1600
12.6139,1612
12.6167,1685
12.6194,1779
12.6222,1882
12.6250,1954
12.6278,2048
12.6306,2195
12.6333,2359
12.6361,2543
12.6389,2734
12.6417,2808
12.6444,2746
12.6472,2516
12.6500,2160
12.6528,1831
12.6556,1609
12.6583,1516
12.6611,1517
12.6639,1583
12.6667,1633
12.6694,1664
12.6722,1662
12.6750,1634
12.6778,1579
12.6806,1537
12.6833,1500
12.6861,1490
12.6889,1493
12.6917,1508
12.6944,1561
12.6972,1608
12.7000,1601
12.7028,1559
12.7056,1554
12.7083,1561
12.7111,1584
12.7139,1601
12.7167,1566
12.7194,1532
12.7222,1509
12.7250,1484
12.7278,1489
12.7306,1499
12.7333,1519
12.7361,1544
12.7389,1542
12.7417,1550
12.7444,1554
12.7472,1558
12.7500,1562
12.7528,1580
12.7556,1588
12.7583,1603
12.7611,1627
12.7639,1634
12.7667,1614
12.7694,1582
12.7722,1569
12.7750,1538
12.7778,1494
12.7806,1495
12.7833,1494
12.7861,1486
12.7889,1481
12.7917,1495
12.7944,1537
12.7972,1564
12.8000,1580
12.8028,1589
12.8056,1590
12.8083,1575
12.8111,1583
12.8139,1580
12.8167,1576
12.8194,1608
12.8222,1635
12.8250,1649
12.8278,1657
12.8306,1658
12.8333,1649
12.8361,1641
12.8389,1633
12.8417,1651
12.8444,1680
12.8472,1724
12.8500,1732
12.8528,1776
12.8556,1827
12.8583,1832
12.8611,1789
12.8639,1721
12.8667,1648
12.8694,1593
12.8722,1577
12.8750,1573
12.8778,1594
12.8806,1604
12.8833,1614
12.8861,1612
12.8889,1605
12.8917,1583
12.8944,1572
12.8972,1569
12.9000,1547
12.9028,1528
12.9056,1514
12.9083,1543
12.9111,1572
12.9139,1609
12.9167,1632
12.9194,1621
12.9222,1599
12.9250,1588
12.9278,1579
12.9306,1563
12.9333,1537
12.9361,1532
12.9389,1565
12.9417,1602
12.9444,1630
12.9472,1649
12.9500,1646
12.9528,1632
12.9556,1610
12.9583,1587
12.9611,1606
12.9639,1648
12.9667,1695
12.9694,1710
12.9722,1687
12.9750,1663
12.9778,1630
12.9806,1624
12.9833,1636
12.9861,1634
12.9889,1611
12.9917,1583
12.9944,1575
12.9972,1578
13.0000,1590
13.0028,1605
13.0056,1644
13.0083,1670
13.0111,1665
13.0139,1678
13.0167,1690
13.0194,1677
13.0222,1666
13.0250,1646
13.0278,1642
13.0306,1640
13.0333,1627
13.0361,1650
13.0389,1647
13.0417,1656
13.0444,1659
13.0472,1648
13.0500,1648
13.0528,1668
13.0556,1672
13.0583,1659
13.0611,1631
13.0639,1603
13.0667,1557
13.0694,1527
13.0722,1552
13.0750,1562
13.0778,1575
13.0806,1580
13.0833,1618
13.0861,1656
13.0889,1662
13.0917,1649
13.0944,1625
13.0972,1610
13.1000,1600
13.1028,1608
13.1056,1634
13.1083,1672
13.1111,1684
13.1139,1679
13.1167,1671
13.1194,1666
13.1222,1650
13.1250,1632
13.1278,1624
13.1306,1624
13.1333,1628
13.1361,1600
13.1389,1592
13.1417,1620
13.1444,1706
13.1472,1748
13.1500,1748
13.1528,1716
13.1556,1705
13.1583,1704
13.1611,1699
13.1639,1675
13.1667,1663
13.1694,1634
13.1722,1637
13.1750,1645
13.1778,1657
13.1806,1650
13.1833,1633
13.1861,1631
13.1889,1622
13.1917,1646
13.1944,1653
13.1972,1643
13.2000,1657
13.2028,1674
13.2056,1713
13.2083,1736
13.2111,1738
13.2139,1715
13.2167,1678
13.2194,1638
13.2222,1603
13.2250,1586
13.2278,1574
13.2306,1584
13.2333,1583
13.2361,1601
13.2389,1625
13.2417,1663
13.2444,1719
13.2472,1753
13.2500,1744
13.2528,1727
13.2556,1683
13.2583,1634
13.2611,1587
13.2639,1574
13.2667,1602
13.2694,1623
13.2722,1621
13.2750,1600
13.2778,1605
13.2806,1633
13.2833,1631
13.2861,1606
13.2889,1597
13.2917,1596
13.2944,1606
13.2972,1631
13.3000,1640
13.3028,1647
13.3056,1643
13.3083,1631
13.3111,1609
13.3139,1584
13.3167,1589
13.3194,1600
13.3222,1613
13.3250,1680
13.3278,1784
13.3306,1930
13.3333,2082
13.3361,2229
13.3389,2353
13.3417,2480
13.3444,2629
13.3472,2800
13.3500,2947
13.3528,2961
13.3556,2804
13.3583,2475
13.3611,2086
13.3639,1773
13.3667,1588
13.3694,1535
13.3722,1540
13.3750,1607
13.3778,1669
13.3806,1695
13.3833,1697
13.3861,1648
13.3889,1577
13.3917,1526
13.3944,1512
13.3972,1539
13.4000,1599
13.4028,1645
13.4056,1656
13.4083,1669
13.4111,1677
13.4139,1678
13.4167,1667
13.4194,1647
13.4222,1618
13.4250,1617
13.4278,1609
13.4306,1598
13.4333,1585
13.4361,1589
13.4389,1602
13.4417,1605
13.4444,1608
13.4472,1603
13.4500,1581
13.4528,1562
13.4556,1548
13.4583,1542
13.4611,1539
13.4639,1539
13.4667,1544
13.4694,1542
13.4722,1565
13.4750,1588
13.4778,1610
13.4806,1627
13.4833,1613
13.4861,1626
13.4889,1627
13.4917,1617
13.4944,1603
13.4972,1588
13.5000,1594
13.5028,1618
13.5056,1630
13.5083,1649
13.5111,1684
13.5139,1707
13.5167,1729
13.5194,1722
13.5222,1702
13.5250,1652
13.5278,1595
13.5306,1569
13.5333,1556
13.5361,1570
13.5389,1590
13.5417,1618
13.5444,1659
13.5472,1694
13.5500,1737
13.5528,1791
13.5556,1792
13.5583,1725
13.5611,1724
13.5639,1683
13.5667,1656
13.5694,1653
13.5722,1658
13.5750,1679
13.5778,1718
13.5806,1741
13.5833,1739
13.5861,1734
13.5889,1698
13.5917,1665
13.5944,1632
13.5972,1614
13.6000,1607
13.6028,1632
13.6056,1664
13.6083,1680
13.6111,1682
13.6139,1661
13.6167,1605
13.6194,1596
13.6222,1603
13.6250,1629
13.6278,1617
13.6306,1608
13.6333,1612
13.6361,1621
13.6389,1622
13.6417,1622
13.6444,1614
13.6472,1617
13.6500,1613
13.6528,1617
13.6556,1639
13.6583,1674
13.6611,1719
13.6639,1734
13.6667,1728
13.6694,1720
13.6722,1713
13.6750,1678
13.6778,1648
13.6806,1630
13.6833,1612
13.6861,1623
13.6889,1655
13.6917,1677
13.6944,1682
13.6972,1684
13.7000,1670
13.7028,1635
13.7056,1606
13.7083,1603
13.7111,1638
13.7139,1655
13.7167,1683
13.7194,1702
13.7222,1704
13.7250,1667
13.7278,1629
13.7306,1603
13.7333,1577
13.7361,1553
13.7389,1566
13.7417,1625
13.7444,1658
13.7472,1666
13.7500,1662
13.7528,1637
13.7556,1622
13.7583,1629
13.7611,1645
13.7639,1669
13.7667,1665
13.7694,1641
13.7722,1608
13.7750,1600
13.7778,1625
13.7806,1646
13.7833,1687
13.7861,1702
13.7889,1668
13.7917,1633
13.7944,1601
13.7972,1570
13.8000,1574
13.8028,1607
13.8056,1627
13.8083,1621
13.8111,1612
13.8139,1591
13.8167,1555
13.8194,1533
13.8222,1550
13.8250,1559
13.8278,1586
13.8306,1615
13.8333,1655
13.8361,1685
13.8389,1688
13.8417,1691
13.8444,1695
13.8472,1685
13.8500,1640
13.8528,1605
13.8556,1595
13.8583,1570
13.8611,1544
13.8639,1565
13.8667,1611
13.8694,1638
13.8722,1663
13.8750,1666
13.8778,1655
13.8806,1632
13.8833,1634
13.8861,1652
13.8889,1674
13.8917,1679
13.8944,1691
13.8972,1702
13.9000,1692
13.9028,1656
13.9056,1660
13.9083,1695
13.9111,1722
13.9139,1731
13.9167,1709
13.9194,1673
13.9222,1657
13.9250,1665
13.9278,1679
13.9306,1658
13.9333,1628
13.9361,1645
13.9389,1676
13.9417,1685
13.9444,1666
13.9472,1661
13.9500,1662
13.9528,1658
13.9556,1683
13.9583,1700
13.9611,1688
13.9639,1639
13.9667,1581
13.9694,1542
13.9722,1534
13.9750,1554
13.9778,1609
13.9806,1657
13.9833,1660
13.9861,1664
13.9889,1635
13.9917,1593
13.9944,1571
13.9972,1588
14.0000,1631
14.0028,1664
14.0056,1667
14.0083,1654
14.0111,1663
14.0139,1666
14.0167,1653
14.0194,1627
14.0222,1622
14.0250,1641
14.0278,1674
14.0306,1702
14.0333,1717
14.0361,1698
14.0389,1673
14.0417,1656
14.0444,1627
14.0472,1598
14.0500,1632
14.0528,1736
14.0556,1857
14.0583,1976
14.0611,2067
14.0639,2141
14.0667,2221
14.0694,2358
14.0722,2563
14.0750,2816
14.0778,2986
14.0806,2995
14.0833,2777
14.0861,2397
14.0889,1988
14.0917,1703
14.0944,1534
14.0972,1517
14.1000,1598
14.1028,1683
14.1056,1740
14.1083,1743
14.1111,1687
14.1139,1652
14.1167,1640
14.1194,1614
14.1222,1574
14.1250,1568
14.1278,1599
14.1306,1621
14.1333,1615
14.1361,1585
14.1389,1531
14.1417,1494
14.1444,1467
14.1472,1484
14.1500,1529
14.1528,1597
14.1556,1594
14.1583,1576
14.1611,1553
14.1639,1551
14.1667,1599
14.1694,1647
14.1722,1680
14.1750,1660
14.1778,1622
14.1806,1584
14.1833,1580
14.1861,1601
14.1889,1632
14.1917,1654
14.1944,1637
14.1972,1608
14.2000,1599
14.2028,1589
14.2056,1585
14.2083,1582
14.2111,1590
14.2139,1592
14.2167,1597
14.2194,1598
14.2222,1612
14.2250,1641
14.2278,1661
14.2306,1658
14.2333,1621
14.2361,1622
14.2389,1642
14.2417,1680
14.2444,1707
14.2472,1695
14.2500,1661
14.2528,1643
14.2556,1659
14.2583,1678
14.2611,1695
14.2639,1713
14.2667,1705
14.2694,1693
14.2722,1709
14.2750,1734
14.2778,1737
14.2806,1746
14.2833,1771
14.2861,1774
14.2889,1706
14.2917,1668
14.2944,1655
14.2972,1688
14.3000,1711
14.3028,1708
14.3056,1702
14.3083,1669
14.3111,1644
14.3139,1637
14.3167,1656
14.3194,1679
14.3222,1726
14.3250,1740
14.3278,1720
14.3306,1669
14.3333,1632
14.3361,1614
14.3389,1623
14.3417,1649
14.3444,1685
14.3472,1677
14.3500,1636
14.3528,1575
14.3556,1527
14.3583,1530
14.3611,1538
14.3639,1569
14.3667,1613
14.3694,1670
14.3722,1698
14.3750,1677
14.3778,1662
14.3806,1659
14.3833,1674
14.3861,1682
14.3889,1722
14.3917,1760
14.3944,1755
14.3972,1720
14.4000,1676
14.4028,1651
14.4056,1602
14.4083,1589
14.4111,1608
14.4139,1648
14.4167,1681
14.4194,1685
14.4222,1690
14.4250,1704
14.4278,1727
14.4306,1702
14.4333,1691
14.4361,1683
14.4389,1678
14.4417,1673
14.4444,1658
14.4472,1654
14.4500,1658
14.4528,1653
14.4556,1657
14.4583,1668
14.4611,1643
14.4639,1624
14.4667,1634
14.4694,1658
14.4722,1675
14.4750,1685
14.4778,1672
14.4806,1640
14.4833,1600
14.4861,1588
14.4889,1604
14.4917,1631
14.4944,1643
14.4972,1656
14.5000,1649
14.5028,1624
14.5056,1604
14.5083,1645
14.5111,1701
14.5139,1713
14.5167,1719
14.5194,1694
14.5222,1664
14.5250,1654
14.5278,1654
14.5306,1649
14.5333,1637
14.5361,1604
14.5389,1567
14.5417,1568
14.5444,1583
14.5472,1612
14.5500,1612
14.5528,1597
14.5556,1553
14.5583,1539
14.5611,1552
14.5639,1597
14.5667,1662
14.5694,1692
14.5722,1704
14.5750,1684
14.5778,1640
14.5806,1598
14.5833,1569
14.5861,1563
14.5889,1580
14.5917,1632
14.5944,1653
14.5972,1663
14.6000,1654
14.6028,1645
14.6056,1648
14.6083,1641
14.6111,1619
14.6139,1624
14.6167,1661
14.6194,1670
14.6222,1642
14.6250,1637
14.6278,1674
14.6306,1704
14.6333,1696
14.6361,1677
14.6389,1657
14.6417,1615
14.6444,1612
14.6472,1644
14.6500,1665
14.6528,1690
14.6556,1682
14.6583,1684
14.6611,1694
14.6639,1709
14.6667,1713
14.6694,1686
14.6722,1638
14.6750,1608
14.6778,1614
14.6806,1647
14.6833,1671
14.6861,1701
14.6889,1719
14.6917,1717
14.6944,1706
14.6972,1682
14.7000,1653
14.7028,1600
14.7056,1550
14.7083,1517
14.7111,1538
14.7139,1573
14.7167,1602
14.7194,1641
14.7222,1688
14.7250,1701
14.7278,1682
14.7306,1641
14.7333,1604
14.7361,1577
14.7389,1565
14.7417,1559
14.7444,1559
14.7472,1561
14.7500,1579
14.7528,1623
14.7556,1676
14.7583,1692
14.7611,1648
14.7639,1591
14.7667,1563
14.7694,1578
14.7722,1612
14.7750,1633
14.7778,1629
14.7806,1606
14.7833,1590
14.7861,1592
14.7889,1602
14.7917,1606
14.7944,1587
14.7972,1588
14.8000,1605
14.8028,1675
14.8056,1769
14.8083,1853
14.8111,1962
14.8139,2103
14.8167,2284
14.8194,2472
14.8222,2713
14.8250,2906
14.8278,2971
14.8306,2839
14.8333,2526
14.8361,2108
14.8389,1768
14.8417,1580
14.8444,1529
14.8472,1541
14.8500,1586
14.8528,1647
14.8556,1707
14.8583,1711
14.8611,1650
14.8639,1570
14.8667,1495
14.8694,1440
14.8722,1447
14.8750,1496
14.8778,1540
14.8806,1553
14.8833,1528
14.8861,1511
14.8889,1485
14.8917,1486
14.8944,1501
14.8972,1526
14.9000,1535
14.9028,1513
14.9056,1487
14.9083,1484
14.9111,1468
14.9139,1468
14.9167,1491
14.9194,1518
14.9222,1529
14.9250,1516
14.9278,1521
14.9306,1534
14.9333,1551
14.9361,1534
14.9389,1500
14.9417,1490
14.9444,1505
14.9472,1515
14.9500,1533
14.9528,1578
14.9556,1590
14.9583,1587
14.9611,1553
14.9639,1534
14.9667,1534
14.9694,1559
14.9722,1600
14.9750,1598
14.9778,1565
14.9806,1519
14.9833,1488
14.9861,1477
14.9889,1503
14.9917,1570
14.9944,1626
14.9972,1635
15.0000,1638
15.0028,1618
15.0056,1602
15.0083,1586
15.0111,1574
15.0139,1554
15.0167,1574
15.0194,1629
15.0222,1684
15.0250,1734
15.0278,1758
15.0306,1772
15.0333,1732
15.0361,1730
15.0389,1704
15.0417,1708
15.0444,1674
15.0472,1665
15.0500,1667
15.0528,1668
15.0556,1651
15.0583,1604
15.0611,1574
15.0639,1566
15.0667,1590
15.0694,1637
15.0722,1637
15.0750,1589
15.0778,1559
15.0806,1568
15.0833,1585
15.0861,1599
15.0889,1616
15.0917,1607
15.0944,1583
15.0972,1596
15.1000,1616
15.1028,1628
15.1056,1601
15.1083,1567
15.1111,1549
15.1139,1553
15.1167,1595
15.1194,1616
15.1222,1643
15.1250,1620
15.1278,1577
15.1306,1559
15.1333,1560
15.1361,1584
15.1389,1604
15.1417,1623
15.1444,1626
15.1472,1610
15.1500,1583
15.1528,1584
15.1556,1603
15.1583,1613
15.1611,1620
15.1639,1681
15.1667,1741
15.1694,1743
15.1722,1687
15.1750,1606
15.1778,1568
15.1806,1571
15.1833,1580
15.1861,1583
15.1889,1609
15.1917,1642
15.1944,1654
15.1972,1629
15.2000,1598
15.2028,1570
15.2056,1567
15.2083,1590
15.2111,1584
15.2139,1567
15.2167,1545
15.2194,1565
15.2222,1626
15.2250,1663
15.2278,1662
15.2306,1646
15.2333,1634
15.2361,1614
15.2389,1600
15.2417,1587
15.2444,1563
15.2472,1559
15.2500,1567
15.2528,1588
15.2556,1615
15.2583,1625
15.2611,1616
15.2639,1597
15.2667,1577
15.2694,1574
15.2722,1603
15.2750,1619
15.2778,1602
15.2806,1582
15.2833,1543
15.2861,1511
15.2889,1500
15.2917,1501
15.2944,1515
15.2972,1548
15.3000,1569
15.3028,1596
15.3056,1623
15.3083,1636
15.3111,1620
15.3139,1568
15.3167,1528
15.3194,1525
15.3222,1537
15.3250,1537
15.3278,1527
15.3306,1509
15.3333,1532
15.3361,1576
15.3389,1605
15.3417,1576
15.3444,1492
15.3472,1441
15.3500,1476
15.3528,1594
15.3556,1679
15.3583,1732
15.3611,1723
15.3639,1681
15.3667,1626
15.3694,1564
15.3722,1514
15.3750,1482
15.3778,1516
15.3806,1568
15.3833,1616
15.3861,1631
15.3889,1613
15.3917,1589
15.3944,1573
15.3972,1550
15.4000,1540
15.4028,1549
15.4056,1579
15.4083,1603
15.4111,1610
15.4139,1580
15.4167,1550
15.4194,1546
15.4222,1554
15.4250,1556
15.4278,1590
15.4306,1599
15.4333,1618
15.4361,1621
15.4389,1610
15.4417,1616
15.4444,1608
15.4472,1593
15.4500,1588
15.4528,1564
15.4556,1541
15.4583,1505
15.4611,1483
15.4639,1472
15.4667,1517
15.4694,1565
15.4722,1576
15.4750,1582
15.4778,1559
15.4806,1531
15.4833,1531
15.4861,1551
15.4889,1552
15.4917,1554
15.4944,1540
15.4972,1519
15.5000,1524
15.5028,1557
15.5056,1558
15.5083,1550
15.5111,1533
15.5139,1528
15.5167,1517
15.5194,1498
15.5222,1478
15.5250,1477
15.5278,1478
15.5306,1488
15.5333,1508
15.5361,1551
15.5389,1583
15.5417,1583
15.5444,1557
15.5472,1541
15.5500,1522
15.5528,1498
15.5556,1497
15.5583,1552
15.5611,1673
15.5639,1829
15.5667,1964
15.5694,2087
15.5722,2248
15.5750,2451
15.5778,2669
15.5806,2791
15.5833,2787
15.5861,2609
15.5889,2271
15.5917,1909
15.5944,1609
15.5972,1423
15.6000,1371
15.6028,1425
15.6056,1487
15.6083,1537
15.6111,1547
15.6139,1518
15.6167,1461
15.6194,1442
15.6222,1451
15.6250,1446
15.6278,1439
15.6306,1406
15.6333,1365
15.6361,1322
15.6389,1283
15.6417,1281
15.6444,1336
15.6472,1380
15.6500,1427
15.6528,1450
15.6556,1459
15.6583,1462
15.6611,1472
15.6639,1462
15.6667,1422
15.6694,1403
15.6722,1397
15.6750,1371
15.6778,1354
15.6806,1366
15.6833,1380
15.6861,1391
15.6889,1421
15.6917,1435
15.6944,1425
15.6972,1386
15.7000,1317
15.7028,1294
15.7056,1342
15.7083,1400
15.7111,1441
15.7139,1473
15.7167,1483
15.7194,1460
15.7222,1422
15.7250,1402
15.7278,1394
15.7306,1422
15.7333,1469
15.7361,1507
15.7389,1511
15.7417,1453
15.7444,1408
15.7472,1394
15.7500,1395
15.7528,1388
15.7556,1415
15.7583,1461
15.7611,1461
15.7639,1468
15.7667,1484
15.7694,1498
15.7722,1502
15.7750,1520
15.7778,1508
15.7806,1499
15.7833,1461
15.7861,1483
15.7889,1558
15.7917,1562
15.7944,1562
15.7972,1561
15.8000,1551
15.8028,1522
15.8056,1478
15.8083,1460
15.8111,1484
15.8139,1503
15.8167,1489
15.8194,1462
15.8222,1421
15.8250,1359
15.8278,1345
15.8306,1384
15.8333,1434
15.8361,1475
15.8389,1499
15.8417,1509
15.8444,1493
15.8472,1440
15.8500,1382
15.8528,1337
15.8556,1353
15.8583,1416
15.8611,1505
15.8639,1561
15.8667,1563
15.8694,1541
15.8722,1496
15.8750,1465
15.8778,1449
15.8806,1441
15.8833,1426
15.8861,1435
15.8889,1460
15.8917,1477
15.8944,1503
15.8972,1499
15.9000,1473
15.9028,1444
15.9056,1423
15.9083,1431
15.9111,1455
15.9139,1507
15.9167,1556
15.9194,1548
15.9222,1509
15.9250,1458
15.9278,1427
15.9306,1446
15.9333,1478
15.9361,1494
15.9389,1477
15.9417,1476
15.9444,1500
15.9472,1519
15.9500,1550
15.9528,1566
15.9556,1552
15.9583,1528
15.9611,1522
15.9639,1545
15.9667,1556
15.9694,1552
15.9722,1535
15.9750,1536
15.9778,1544
15.9806,1555
15.9833,1575
15.9861,1560
15.9889,1553
15.9917,1529
15.9944,1466
15.9972,1400
16.0000,1405
16.0028,1450
16.0056,1492
16.0083,1514
16.0111,1543
16.0139,1550
16.0167,1530
16.0194,1508
16.0222,1506
16.0250,1499
16.0278,1523
16.0306,1551
16.0333,1584
16.0361,1613
16.0389,1626
16.0417,1624
16.0444,1581
16.0472,1546
16.0500,1510
16.0528,1503
16.0556,1513
16.0583,1545
16.0611,1560
16.0639,1550
16.0667,1554
16.0694,1581
16.0722,1617
16.0750,1647
16.0778,1670
16.0806,1654
16.0833,1648
16.0861,1621
16.0889,1601
16.0917,1595
16.0944,1573
16.0972,1592
16.1000,1623
16.1028,1642
16.1056,1659
16.1083,1669
16.1111,1664
16.1139,1668
16.1167,1664
16.1194,1657
16.1222,1624
16.1250,1609
16.1278,1617
16.1306,1621
16.1333,1638
16.1361,1668
16.1389,1703
16.1417,1702
16.1444,1667
16.1472,1640
16.1500,1650
16.1528,1651
16.1556,1649
16.1583,1629
16.1611,1627
16.1639,1639
16.1667,1685
16.1694,1739
16.1722,1759
16.1750,1742
16.1778,1700
16.1806,1645
16.1833,1573
16.1861,1580
16.1889,1649
16.1917,1707
16.1944,1731
16.1972,1765
16.2000,1764
16.2028,1728
16.2056,1669
16.2083,1628
16.2111,1595
16.2139,1565
16.2167,1606
16.2194,1677
16.2222,1739
16.2250,1752
16.2278,1754
16.2306,1732
16.2333,1707
16.2361,1693
16.2389,1667
16.2417,1680
16.2444,1777
16.2472,1877
16.2500,1972
16.2528,2062
16.2556,2167
16.2583,2296
16.2611,2439
16.2639,2637
16.2667,2837
16.2694,2916
16.2722,2852
16.2750,2589
16.2778,2238
16.2806,1919
16.2833,1760
16.2861,1699
16.2889,1692
16.2917,1722
16.2944,1772
16.2972,1796
16.3000,1786
16.3028,1761
16.3056,1729
16.3083,1686
16.3111,1604
16.3139,1565
16.3167,1591
16.3194,1659
16.3222,1723
16.3250,1730
16.3278,1666
16.3306,1566
16.3333,1525
16.3361,1558
16.3389,1626
16.3417,1711
16.3444,1756
16.3472,1753
16.3500,1759
16.3528,1770
16.3556,1761
16.3583,1729
16.3611,1712
16.3639,1706
16.3667,1714
16.3694,1727
16.3722,1735
16.3750,1723
16.3778,1672
16.3806,1652
16.3833,1650
16.3861,1656
16.3889,1675
16.3917,1690
16.3944,1699
16.3972,1652
16.4000,1622
16.4028,1612
16.4056,1611
16.4083,1631
16.4111,1672
16.4139,1702
16.4167,1732
16.4194,1744
16.4222,1753
16.4250,1703
16.4278,1684
16.4306,1721
16.4333,1786
16.4361,1859
16.4389,1924
16.4417,1929
16.4444,1900
16.4472,1861
16.4500,1836
16.4528,1836
16.4556,1861
16.4583,1890
16.4611,1919
16.4639,1913
16.4667,1886
16.4694,1876
16.4722,1877
16.4750,1813
16.4778,1821
16.4806,1839
16.4833,1837
16.4861,1874
16.4889,1915
16.4917,1925
16.4944,1930
16.4972,1910
16.5000,1887
16.5028,1877
16.5056,1863
16.5083,1833
16.5111,1809
16.5139,1807
16.5167,1801
16.5194,1801
16.5222,1798
16.5250,1794
16.5278,1795
16.5306,1815
16.5333,1811
16.5361,1795
16.5389,1779
16.5417,1796
16.5444,1825
16.5472,1878
16.5500,1901
16.5528,1884
16.5556,1825
16.5583,1766
16.5611,1741
16.5639,1765
16.5667,1795
16.5694,1805
16.5722,1801
16.5750,1793
16.5778,1793
16.5806,1802
16.5833,1793
16.5861,1732
16.5889,1711
16.5917,1750
16.5944,1823
16.5972,1848
16.6000,1866
16.6028,1853
16.6056,1841
16.6083,1826
16.6111,1779
16.6139,1740
16.6167,1744
16.6194,1795
16.6222,1863
16.6250,1897
16.6278,1892
16.6306,1869
16.6333,1832
16.6361,1815
16.6389,1807
16.6417,1814
16.6444,1806
16.6472,1814
16.6500,1835
16.6528,1868
16.6556,1883
16.6583,1892
16.6611,1866
16.6639,1825
16.6667,1795
16.6694,1784
16.6722,1798
16.6750,1841
16.6778,1858
16.6806,1829
16.6833,1787
16.6861,1791
16.6889,1840
16.6917,1887
16.6944,1895
16.6972,1873
16.7000,1812
16.7028,1742
16.7056,1703
16.7083,1739
16.7111,1786
16.7139,1820
16.7167,1837
16.7194,1819
16.7222,1834
16.7250,1849
16.7278,1866
16.7306,1849
16.7333,1824
16.7361,1806
16.7389,1787
16.7417,1798
16.7444,1813
16.7472,1834
16.7500,1843
16.7528,1848
16.7556,1847
16.7583,1834
16.7611,1829
16.7639,1839
16.7667,1812
16.7694,1818
16.7722,1815
16.7750,1824
16.7778,1810
16.7806,1802
16.7833,1800
16.7861,1821
16.7889,1847
16.7917,1840
16.7944,1822
16.7972,1807
16.8000,1817
16.8028,1846
16.8056,1882
16.8083,1876
16.8111,1815
16.8139,1732
16.8167,1675
16.8194,1682
16.8222,1715
16.8250,1759
16.8278,1785
16.8306,1777
16.8333,1736
16.8361,1706
16.8389,1690
16.8417,1739
16.8444,1805
16.8472,1815
16.8500,1817
16.8528,1839
16.8556,1870
16.8583,1870
16.8611,1836
16.8639,1772
16.8667,1724
16.8694,1692
16.8722,1700
16.8750,1743
16.8778,1831
16.8806,1949
16.8833,2067
16.8861,2196
16.8889,2331
16.8917,2455
16.8944,2609
16.8972,2813
16.9000,2973
16.9028,2978
16.9056,2826
16.9083,2444
16.9111,2045
16.9139,1783
16.9167,1686
16.9194,1713
16.9222,1754
16.9250,1811
16.9278,1848
16.9306,1847
16.9333,1839
16.9361,1821
16.9389,1824
16.9417,1787
16.9444,1714
16.9472,1671
16.9500,1673
16.9528,1708
16.9556,1750
16.9583,1753
16.9611,1749
16.9639,1728
16.9667,1705
16.9694,1689
16.9722,1668
16.9750,1696
16.9778,1749
16.9806,1799
16.9833,1818
16.9861,1787
16.9889,1766
16.9917,1729
16.9944,1666
16.9972,1611
17.0000,1594
17.0028,1583
17.0056,1583
17.0083,1607
17.0111,1663
17.0139,1692
17.0167,1694
17.0194,1685
17.0222,1682
17.0250,1685
17.0278,1705
17.0306,1721
17.0333,1737
17.0361,1734
17.0389,1714
17.0417,1731
17.0444,1747
17.0472,1746
17.0500,1743
17.0528,1740
17.0556,1730
17.0583,1733
17.0611,1732
17.0639,1740
17.0667,1759
17.0694,1822
17.0722,1873
17.0750,1884
17.0778,1846
17.0806,1756
17.0833,1678
17.0861,1660
17.0889,1693
17.0917,1740
17.0944,1775
17.0972,1791
17.1000,1795
17.1028,1801
17.1056,1936
17.1083,1928
17.1111,1905
17.1139,1848
17.1167,1814
17.1194,1785
17.1222,1778
17.1250,1774
17.1278,1771
17.1306,1765
17.1333,1750
17.1361,1711
17.1389,1653
17.1417,1637
17.1444,1656
17.1472,1694
17.1500,1698
17.1528,1704
17.1556,1732
17.1583,1744
17.1611,1733
17.1639,1715
17.1667,1680
17.1694,1667
17.1722,1673
17.1750,1694
17.1778,1733
17.1806,1757
17.1833,1763
17.1861,1759
17.1889,1762
17.1917,1758
17.1944,1748
17.1972,1737
17.2000,1722
17.2028,1727
17.2056,1712
17.2083,1686
17.2111,1663
17.2139,1657
17.2167,1666
17.2194,1705
17.2222,1729
17.2250,1748
17.2278,1734
17.2306,1718
17.2333,1721
17.2361,1725
17.2389,1716
17.2417,1721
17.2444,1703
17.2472,1722
17.2500,1748
17.2528,1776
17.2556,1806
17.2583,1805
17.2611,1797
17.2639,1770
17.2667,1724
17.2694,1659
17.2722,1601
17.2750,1585
17.2778,1642
17.2806,1719
17.2833,1775
17.2861,1801
17.2889,1812
17.2917,1841
17.2944,1863
17.2972,1846
17.3000,1793
17.3028,1745
17.3056,1718
17.3083,1731
17.3111,1767
17.3139,1823
17.3167,1863
17.3194,1881
17.3222,1863
17.3250,1801
17.3278,1730
17.3306,1689
17.3333,1673
17.3361,1669
17.3389,1672
17.3417,1707
17.3444,1753
17.3472,1787
17.3500,1782
17.3528,1764
17.3556,1754
17.3583,1764
17.3611,1766
17.3639,1755
17.3667,1750
17.3694,1738
17.3722,1734
17.3750,1715
17.3778,1692
17.3806,1671
17.3833,1668
17.3861,1690
17.3889,1724
17.3917,1741
17.3944,1748
17.3972,1747
17.4000,1724
17.4028,1689
17.4056,1655
17.4083,1633
17.4111,1626
17.4139,1646
17.4167,1655
17.4194,1653
17.4222,1679
17.4250,1717
17.4278,1741
17.4306,1788
17.4333,1804
17.4361,1769
17.4389,1737
17.4417,1707
17.4444,1672
17.4472,1631
17.4500,1606
17.4528,1622
17.4556,1654
17.4583,1680
17.4611,1682
17.4639,1682
17.4667,1670
17.4694,1662
17.4722,1657
17.4750,1643
17.4778,1624
17.4806,1617
17.4833,1614
17.4861,1684
17.4889,1812
17.4917,1956
17.4944,2118
17.4972,2268
17.5000,2395
17.5028,2523
17.5056,2685
17.5083,2924
17.5111,3106
17.5139,3076
17.5167,2790
17.5194,2332
17.5222,1907
17.5250,1642
17.5278,1551
17.5306,1581
17.5333,1659
17.5361,1731
17.5389,1775
17.5417,1764
17.5444,1728
17.5472,1653
17.5500,1588
17.5528,1542
17.5556,1525
17.5583,1548
17.5611,1606
17.5639,1645
17.5667,1656
17.5694,1637
17.5722,1620
17.5750,1613
17.5778,1620
17.5806,1624
17.5833,1630
17.5861,1609
17.5889,1563
17.5917,1539
17.5944,1563
17.5972,1598
17.6000,1621
17.6028,1642
17.6056,1678
17.6083,1674
17.6111,1682
17.6139,1664
17.6167,1616
17.6194,1592
17.6222,1596
17.6250,1608
17.6278,1628
17.6306,1627
17.6333,1624
17.6361,1637
17.6389,1658
17.6417,1658
17.6444,1649
17.6472,1648
17.6500,1657
17.6528,1682
17.6556,1705
17.6583,1707
17.6611,1702
17.6639,1696
17.6667,1695
17.6694,1709
17.6722,1710
17.6750,1713
17.6778,1709
17.6806,1687
17.6833,1676
17.6861,1677
17.6889,1687
17.6917,1707
17.6944,1713
17.6972,1728
17.7000,1751
17.7028,1780
17.7056,1807
17.7083,1811
17.7111,1780
17.7139,1765
17.7167,1847
17.7194,1855
17.7222,1855
17.7250,1849
17.7278,1849
17.7306,1834
17.7333,1793
17.7361,1723
17.7389,1693
17.7417,1708
17.7444,1722
17.7472,1735
17.7500,1724
17.7528,1719
17.7556,1719
17.7583,1732
17.7611,1742
17.7639,1720
17.7667,1681
17.7694,1640
17.7722,1643
17.7750,1664
17.7778,1729
17.7806,1776
17.7833,1784
17.7861,1772
17.7889,1728
17.7917,1697
17.7944,1681
17.7972,1710
17.8000,1745
17.8028,1766
17.8056,1771
17.8083,1757
17.8111,1739
17.8139,1713
17.8167,1720
17.8194,1739
17.8222,1737
17.8250,1713
17.8278,1701
17.8306,1696
17.8333,1701
17.8361,1705
17.8389,1709
17.8417,1720
17.8444,1728
17.8472,1743
17.8500,1748
17.8528,1727
17.8556,1745
17.8583,1778
17.8611,1801
17.8639,1809
17.8667,1814
17.8694,1809
17.8722,1772
17.8750,1753
17.8778,1730
17.8806,1744
17.8833,1761
17.8861,1773
17.8889,1765
17.8917,1720
17.8944,1695
17.8972,1666
17.9000,1682
17.9028,1688
17.9056,1705
17.9083,1745
17.9111,1790
17.9139,1835
17.9167,1850
17.9194,1871
17.9222,1882
17.9250,1894
17.9278,1890
17.9306,1887
17.9333,1880
17.9361,1881
17.9389,1885
17.9417,1872
17.9444,1834
17.9472,1813
17.9500,1817
17.9528,1819
17.9556,1812
17.9583,1781
17.9611,1755
17.9639,1718
17.9667,1707
17.9694,1700
17.9722,1694
17.9750,1694
17.9778,1670
17.9806,1657
17.9833,1645
17.9861,1642
17.9889,1625
17.9917,1644
17.9944,1646
17.9972,1640
18.0000,1636
18.0028,1653
18.0056,1690
18.0083,1702
18.0111,1703
18.0139,1693
18.0167,1677
18.0194,1672
18.0222,1667
18.0250,1645
18.0278,1602
18.0306,1577
18.0333,1591
18.0361,1651
18.0389,1720
18.0417,1779
18.0444,1786
18.0472,1711
18.0500,1636
18.0528,1566
18.0556,1504
18.0583,1503
18.0611,1547
18.0639,1600
18.0667,1623
18.0694,1622
18.0722,1597
18.0750,1578
18.0778,1593
18.0806,1606
18.0833,1616
18.0861,1619
18.0889,1636
18.0917,1656
18.0944,1710
18.0972,1789
18.1000,1874
18.1028,1965
18.1056,2071
18.1083,2220
18.1111,2425
18.1139,2683
18.1167,2971
18.1194,3168
18.1222,3153
18.1250,2907
18.1278,2444
18.1306,1946
18.1333,1595
18.1361,1430
18.1389,1417
18.1417,1509
18.1444,1613
18.1472,1660
18.1500,1664
18.1528,1629
18.1556,1566
18.1583,1519
18.1611,1469
18.1639,1448
18.1667,1469
18.1694,1519
18.1722,1575
18.1750,1566
18.1778,1533
18.1806,1498
18.1833,1517
18.1861,1544
18.1889,1580
18.1917,1595
18.1944,1574
18.1972,1549
18.2000,1517
18.2028,1502
18.2056,1538
18.2083,1603
18.2111,1626
18.2139,1616
18.2167,1541
18.2194,1438
18.2222,1380
18.2250,1404
18.2278,1459
18.2306,1527
18.2333,1567
18.2361,1564
18.2389,1517
18.2417,1465
18.2444,1428
18.2472,1453
18.2500,1514
18.2528,1526
18.2556,1529
18.2583,1524
18.2611,1541
18.2639,1547
18.2667,1543
18.2694,1535
18.2722,1534
18.2750,1557
18.2778,1569
18.2806,1578
18.2833,1586
18.2861,1600
18.2889,1579
18.2917,1544
18.2944,1527
18.2972,1516
18.3000,1552
18.3028,1582
18.3056,1608
18.3083,1611
18.3111,1637
18.3139,1663
18.3167,1692
18.3194,1692
18.3222,1649
18.3250,1574
18.3278,1584
18.3306,1545
18.3333,1531
18.3361,1541
18.3389,1526
18.3417,1524
18.3444,1506
18.3472,1467
18.3500,1455
18.3528,1475
18.3556,1477
18.3583,1471
18.3611,1455
18.3639,1449
18.3667,1454
18.3694,1452
18.3722,1436
18.3750,1428
18.3778,1409
18.3806,1388
18.3833,1381
18.3861,1401
18.3889,1401
18.3917,1406
18.3944,1423
18.3972,1446
18.4000,1466
18.4028,1456
18.4056,1426
18.4083,1411
18.4111,1421
18.4139,1410
18.4167,1383
18.4194,1380
18.4222,1400
18.4250,1396
18.4278,1377
18.4306,1410
18.4333,1460
18.4361,1488
18.4389,1499
18.4417,1474
18.4444,1470
18.4472,1457
18.4500,1434
18.4528,1411
18.4556,1383
18.4583,1363
18.4611,1379
18.4639,1418
18.4667,1463
18.4694,1487
18.4722,1485
18.4750,1463
18.4778,1445
18.4806,1434
18.4833,1438
18.4861,1435
18.4889,1426
18.4917,1425
18.4944,1433
18.4972,1406
18.5000,1352
18.5028,1304
18.5056,1323
18.5083,1364
18.5111,1401
18.5139,1405
18.5167,1395
18.5194,1394
18.5222,1377
18.5250,1358
18.5278,1371
18.5306,1417
18.5333,1463
18.5361,1464
18.5389,1433
18.5417,1406
18.5444,1377
18.5472,1358
18.5500,1348
18.5528,1353
18.5556,1389
18.5583,1428
18.5611,1453
18.5639,1462
18.5667,1419
18.5694,1363
18.5722,1348
18.5750,1368
18.5778,1393
18.5806,1391
18.5833,1385
18.5861,1395
18.5889,1451
18.5917,1485
18.5944,1480
18.5972,1424
18.6000,1398
18.6028,1396
18.6056,1387
18.6083,1375
18.6111,1365
18.6139,1370
18.6167,1381
18.6194,1390
18.6222,1361
18.6250,1347
18.6278,1364
18.6306,1390
18.6333,1399
18.6361,1397
18.6389,1409
18.6417,1420
18.6444,1418
18.6472,1412
18.6500,1412
18.6528,1440
18.6556,1424
18.6583,1384
18.6611,1363
18.6639,1374
18.6667,1386
18.6694,1397
18.6722,1408
18.6750,1384
18.6778,1366
18.6806,1349
18.6833,1338
18.6861,1323
18.6889,1347
18.6917,1375
18.6944,1394
18.6972,1392
18.7000,1383
18.7028,1348
18.7056,1320
18.7083,1286
18.7111,1268
18.7139,1289
18.7167,1343
18.7194,1356
18.7222,1325
18.7250,1278
18.7278,1249
18.7306,1305
18.7333,1372
18.7361,1412
18.7389,1407
18.7417,1378
18.7444,1381
18.7472,1388
18.7500,1418
18.7528,1418
18.7556,1411
18.7583,1388
18.7611,1372
18.7639,1384
18.7667,1389
18.7694,1398
18.7722,1447
18.7750,1545
18.7778,1642
18.7806,1727
18.7833,1863
18.7861,2046
18.7889,2270
18.7917,2514
18.7944,2749
18.7972,2861
18.8000,2782
18.8028,2493
18.8056,2096
18.8083,1711
18.8111,1436
18.8139,1305
18.8167,1281
18.8194,1325
18.8222,1371
18.8250,1403
18.8278,1400
18.8306,1358
18.8333,1339
18.8361,1355
18.8389,1419
18.8417,1473
18.8444,1497
18.8472,1480
18.8500,1419
18.8528,1356
18.8556,1314
18.8583,1330
18.8611,1390
18.8639,1428
18.8667,1446
18.8694,1460
18.8722,1472
18.8750,1461
18.8778,1442
18.8806,1431
18.8833,1423
18.8861,1421
18.8889,1415
18.8917,1415
18.8944,1406
18.8972,1387
18.9000,1367
18.9028,1417
18.9056,1489
18.9083,1546
18.9111,1544
18.9139,1507
18.9167,1454
18.9194,1421
18.9222,1409
18.9250,1439
18.9278,1486
18.9306,1526
18.9333,1545
18.9361,1555
18.9389,1553
18.9417,1553
18.9444,1565
18.9472,1582
18.9500,1589
18.9528,1534
18.9556,1479
18.9583,1475
18.9611,1544
18.9639,1621
18.9667,1648
18.9694,1623
18.9722,1578
18.9750,1539
18.9778,1525
18.9806,1545
18.9833,1570
18.9861,1602
18.9889,1637
18.9917,1675
18.9944,1712
18.9972,1737
19.0000,1777
19.0028,1881
19.0056,1888
19.0083,1858
19.0111,1820
19.0139,1807
19.0167,1787
19.0194,1774
19.0222,1755
19.0250,1765
19.0278,1779
19.0306,1790
19.0333,1765
19.0361,1722
19.0389,1703
19.0417,1699
19.0444,1743
19.0472,1775
19.0500,1798
19.0528,1798
19.0556,1793
19.0583,1804
19.0611,1791
19.0639,1766
19.0667,1775
19.0694,1804
19.0722,1822
19.0750,1820
19.0778,1814
19.0806,1817
19.0833,1852
19.0861,1868
19.0889,1857
19.0917,1832
19.0944,1814
19.0972,1797
19.1000,1793
19.1028,1793
19.1056,1802
19.1083,1843
19.1111,1886
19.1139,1904
19.1167,1896
19.1194,1863
19.1222,1834
19.1250,1818
19.1278,1822
19.1306,1840
19.1333,1878
19.1361,1907
19.1389,1911
19.1417,1888
19.1444,1875
19.1472,1888
19.1500,1913
19.1528,1908
19.1556,1897
19.1583,1896
19.1611,1925
19.1639,1949
19.1667,1952
19.1694,1967
19.1722,1988
19.1750,2019
19.1778,2030
19.1806,2021
19.1833,1993
19.1861,1965
19.1889,1944
19.1917,1917
19.1944,1894
19.1972,1909
19.2000,1938
19.2028,1970
19.2056,1951
19.2083,1931
19.2111,1942
19.2139,1961
19.2167,1988
19.2194,1997
19.2222,2009
19.2250,2012
19.2278,1999
19.2306,1971
19.2333,1943
19.2361,1932
19.2389,1932
19.2417,1973
19.2444,1991
19.2472,1993
19.2500,2010
19.2528,2022
19.2556,2038
19.2583,2047
19.2611,2052
19.2639,2023
19.2667,1991
19.2694,1978
19.2722,1987
19.2750,1972
19.2778,1946
19.2806,1932
19.2833,1936
19.2861,1943
19.2889,1951
19.2917,1979
19.2944,2020
19.2972,2029
19.3000,2023
19.3028,1993
19.3056,1976
19.3083,1968
19.3111,1994
19.3139,2022
19.3167,2040
19.3194,2051
19.3222,2036
19.3250,2030
19.3278,2006
19.3306,2000
19.3333,2000
19.3361,1998
19.3389,2023
19.3417,2071
19.3444,2122
19.3472,2158
19.3500,2163
19.3528,2120
19.3556,2065
19.3583,2016
19.3611,2007
19.3639,2017
19.3667,2044
19.3694,2056
19.3722,2069
19.3750,2086
19.3778,2111
19.3806,2111
19.3833,2106
19.3861,2085
19.3889,2064
19.3917,2058
19.3944,2046
19.3972,2043
19.4000,2047
19.4028,2071
19.4056,2104
19.4083,2116
19.4111,2104
19.4139,2068
19.4167,2027
19.4194,2006
19.4222,2007
19.4250,2030
19.4278,2059
19.4306,2070
19.4333,2064
19.4361,2038
19.4389,2012
19.4417,2020
19.4444,2054
19.4472,2073
19.4500,2089
19.4528,2107
19.4556,2101
19.4583,2062
19.4611,2016
19.4639,1991
19.4667,1987
19.4694,1978
19.4722,1975
19.4750,1974
19.4778,2015
19.4806,2027
19.4833,2024
19.4861,2017
19.4889,2006
19.4917,2010
19.4944,2042
19.4972,2090
19.5000,2120
19.5028,2119
19.5056,2077
19.5083,2032
19.5111,2018
19.5139,2038
19.5167,2112
19.5194,2211
19.5222,2338
19.5250,2487
19.5278,2619
19.5306,2747
19.5333,2918
19.5361,3165
19.5389,3337
19.5417,3344
19.5444,3287
19.5472,2982
19.5500,2538
19.5528,2156
19.5556,1941
19.5583,1876
19.5611,1895
19.5639,1971
19.5667,2076
19.5694,2147
19.5722,2162
19.5750,2121
19.5778,2037
19.5806,1947
19.5833,1899
19.5861,1919
19.5889,1959
19.5917,1979
19.5944,1944
19.5972,1909
19.6000,1883
19.6028,1877
19.6056,1888
19.6083,1935
19.6111,1998
19.6139,2010
19.6167,2015
19.6194,1987
19.6222,1962
19.6250,1957
19.6278,1948
19.6306,1946
19.6333,1934
19.6361,1926
19.6389,1950
19.6417,1968
19.6444,1988
19.6472,2013
19.6500,2005
19.6528,1957
19.6556,1898
19.6583,1846
19.6611,1828
19.6639,1830
19.6667,1861
19.6694,1923
19.6722,1975
19.6750,1996
19.6778,1972
19.6806,1947
19.6833,1962
19.6861,2004
19.6889,2057
19.6917,2051
19.6944,1998
19.6972,1903
19.7000,1856
19.7028,1855
19.7056,1893
19.7083,1952
19.7111,2008
19.7139,2049
19.7167,2037
19.7194,2025
19.7222,2014
19.7250,2012
19.7278,2032
19.7306,2022
19.7333,1983
19.7361,1972
19.7389,1973
19.7417,2020
19.7444,2060
19.7472,2058
19.7500,2059
19.7528,2038
19.7556,2059
19.7583,2061
19.7611,2041
19.7639,1991
19.7667,1949
19.7694,1917
19.7722,1875
19.7750,1815
19.7778,1793
19.7806,1849
19.7833,1939
19.7861,1978
19.7889,1972
19.7917,1972
19.7944,1998
19.7972,2024
19.8000,2020
19.8028,1982
19.8056,1963
19.8083,1935
19.8111,1933
19.8139,1951
19.8167,1973
19.8194,1984
19.8222,1977
19.8250,1969
19.8278,1956
19.8306,1936
19.8333,1912
19.8361,1888
19.8389,1867
19.8417,1880
19.8444,1905
19.8472,1934
19.8500,1958
19.8528,1961
19.8556,1952
19.8583,1917
19.8611,1895
19.8639,1878
19.8667,1878
19.8694,1897
19.8722,1925
19.8750,1935
19.8778,1916
19.8806,1874
19.8833,1851
19.8861,1860
19.8889,1867
19.8917,1900
19.8944,1931
19.8972,1963
19.9000,1976
19.9028,1968
19.9056,1941
19.9083,1909
19.9111,1895
19.9139,1889
19.9167,1882
19.9194,1865
19.9222,1867
19.9250,1887
19.9278,1913
19.9306,1928
19.9333,1936
19.9361,1928
19.9389,1912
19.9417,1866
19.9444,1819
19.9472,1789
19.9500,1800
19.9528,1823
19.9556,1816
19.9583,1803
19.9611,1807
19.9639,1839
19.9667,1874
19.9694,1891
19.9722,1882
19.9750,1877
19.9778,1870
19.9806,1859
19.9833,1840
19.9861,1795
19.9889,1779
19.9917,1768
19.9944,1787
19.9972,1796
20.0000,1803
20.0028,1809
20.0056,1781
20.0083,1749
20.0111,1740
20.0139,1754
20.0167,1802
20.0194,1844
20.0222,1865
20.0250,1869
20.0278,1848
20.0306,1805
20.0333,1765
20.0361,1740
20.0389,1742
20.0417,1744
20.0444,1710
20.0472,1685
20.0500,1688
20.0528,1734
20.0556,1799
20.0583,1830
20.0611,1844
20.0639,1844
20.0667,1848
20.0694,1854
20.0722,1857
20.0750,1852
20.0778,1832
20.0806,1785
20.0833,1745
20.0861,1732
20.0889,1752
20.0917,1819
20.0944,1881
20.0972,1913
20.1000,1901
20.1028,1888
20.1056,1873
20.1083,1860
20.1111,1852
20.1139,1849
20.1167,1833
20.1194,1811
20.1222,1797
20.1250,1772
20.1278,1729
20.1306,1690
20.1333,1698
20.1361,1731
20.1389,1792
20.1417,1833
20.1444,1851
20.1472,1854
20.1500,1833
20.1528,1808
20.1556,1802
20.1583,1797
20.1611,1787
20.1639,1760
20.1667,1732
20.1694,1694
20.1722,1681
20.1750,1695
20.1778,1731
20.1806,1758
20.1833,1756
20.1861,1742
20.1889,1725
20.1917,1727
20.1944,1718
20.1972,1705
20.2000,1687
20.2028,1697
20.2056,1717
20.2083,1735
20.2111,1739
20.2139,1727
20.2167,1716
20.2194,1719
20.2222,1718
20.2250,1716
20.2278,1733
20.2306,1738
20.2333,1738
20.2361,1736
20.2389,1718
20.2417,1731
20.2444,1752
20.2472,1760
20.2500,1747
20.2528,1724
20.2556,1718
20.2583,1703
20.2611,1675
20.2639,1664
20.2667,1707
20.2694,1810
20.2722,1917
20.2750,2017
20.2778,2147
20.2806,2288
20.2833,2470
20.2861,2698
20.2889,2919
20.2917,3039
20.2944,2966
20.2972,2688
20.3000,2294
20.3028,1933
20.3056,1703
20.3083,1610
20.3111,1596
20.3139,1633
20.3167,1675
20.3194,1696
20.3222,1684
20.3250,1645
20.3278,1620
20.3306,1620
20.3333,1617
20.3361,1625
20.3389,1614
20.3417,1588
20.3444,1554
20.3472,1543
20.3500,1552
20.3528,1576
20.3556,1583
20.3583,1606
20.3611,1615
20.3639,1626
20.3667,1604
20.3694,1603
20.3722,1609
20.3750,1631
20.3778,1651
20.3806,1637
20.3833,1631
20.3861,1627
20.3889,1607
20.3917,1576
20.3944,1565
20.3972,1570
20.4000,1596
20.4028,1593
20.4056,1574
20.4083,1536
20.4111,1509
20.4139,1484
20.4167,1521
20.4194,1569
20.4222,1593
20.4250,1603
20.4278,1603
20.4306,1614
20.4333,1641
20.4361,1660
20.4389,1671
20.4417,1649
20.4444,1623
20.4472,1584
20.4500,1551
20.4528,1503
20.4556,1535
20.4583,1602
20.4611,1678
20.4639,1720
20.4667,1719
20.4694,1668
20.4722,1608
20.4750,1547
20.4778,1502
20.4806,1554
20.4833,1650
20.4861,1750
20.4889,1782
20.4917,1766
20.4944,1732
20.4972,1742
20.5000,1740
20.5028,1719
20.5056,1679
20.5083,1626
20.5111,1575
20.5139,1554
20.5167,1582
20.5194,1611
20.5222,1625
20.5250,1642
20.5278,1648
20.5306,1655
20.5333,1660
20.5361,1654
20.5389,1612
20.5417,1567
20.5444,1564
20.5472,1576
20.5500,1593
20.5528,1581
20.5556,1577
20.5583,1562
20.5611,1557
20.5639,1568
20.5667,1612
20.5694,1651
20.5722,1684
20.5750,1691
20.5778,1668
20.5806,1653
20.5833,1640
20.5861,1631
20.5889,1629
20.5917,1621
20.5944,1616
20.5972,1590
20.6000,1561
20.6028,1568
20.6056,1596
20.6083,1622
20.6111,1628
20.6139,1622
20.6167,1602
20.6194,1590
20.6222,1593
20.6250,1622
20.6278,1659
20.6306,1662
20.6333,1661
20.6361,1654
20.6389,1656
20.6417,1672
20.6444,1648
20.6472,1591
20.6500,1552
20.6528,1539
20.6556,1564
20.6583,1609
20.6611,1659
20.6639,1670
20.6667,1658
20.6694,1614
20.6722,1529
20.6750,1494
20.6778,1541
20.6806,1615
20.6833,1669
20.6861,1681
20.6889,1655
20.6917,1612
20.6944,1616
20.6972,1649
20.7000,1671
20.7028,1666
20.7056,1652
20.7083,1622
20.7111,1591
20.7139,1582
20.7167,1599
20.7194,1615
20.7222,1650
20.7250,1666
20.7278,1672
20.7306,1675
20.7333,1647
20.7361,1616
20.7389,1605
20.7417,1607
20.7444,1604
20.7472,1600
20.7500,1584
20.7528,1577
20.7556,1563
20.7583,1572
20.7611,1568
20.7639,1569
20.7667,1590
20.7694,1581
20.7722,1569
20.7750,1550
20.7778,1511
20.7806,1497
20.7833,1544
20.7861,1609
20.7889,1663
20.7917,1697
20.7944,1706
20.7972,1714
20.8000,1700
20.8028,1682
20.8056,1649
20.8083,1630
20.8111,1629
20.8139,1643
20.8167,1669
20.8194,1698
20.8222,1680
20.8250,1661
20.8278,1632
20.8306,1631
20.8333,1626
20.8361,1615
20.8389,1606
20.8417,1600
20.8444,1599
20.8472,1606
20.8500,1634
20.8528,1648
20.8556,1639
20.8583,1607
20.8611,1591
20.8639,1617
20.8667,1638
20.8694,1645
20.8722,1646
20.8750,1653
20.8778,1645
20.8806,1633
20.8833,1646
20.8861,1663
20.8889,1646
20.8917,1620
20.8944,1584
20.8972,1548
20.9000,1526
20.9028,1530
20.9056,1558
20.9083,1588
20.9111,1605
20.9139,1604
20.9167,1612
20.9194,1613
20.9222,1602
20.9250,1586
20.9278,1560
20.9306,1565
20.9333,1588
20.9361,1584
20.9389,1578
20.9417,1560
20.9444,1527
20.9472,1500
20.9500,1510
20.9528,1546
20.9556,1561
20.9583,1598
20.9611,1604
20.9639,1618
20.9667,1618
20.9694,1622
20.9722,1616
20.9750,1618
20.9778,1596
20.9806,1555
20.9833,1544
20.9861,1567
20.9889,1630
20.9917,1738
20.9944,1833
20.9972,1946
21.0000,2062
21.0028,2204
21.0056,2370
21.0083,2568
21.0111,2776
21.0139,2838
21.0167,2741
21.0194,2462
21.0222,2088
21.0250,1746
21.0278,1532
21.0306,1446
21.0333,1431
21.0361,1481
21.0389,1546
21.0417,1587
21.0444,1595
21.0472,1602
21.0500,1590
21.0528,1561
21.0556,1543
21.0583,1535
21.0611,1552
21.0639,1570
21.0667,1590
21.0694,1588
21.0722,1558
21.0750,1515
21.0778,1470
21.0806,1427
21.0833,1388
21.0861,1363
21.0889,1359
21.0917,1391
21.0944,1439
21.0972,1476
21.1000,1511
21.1028,1515
21.1056,1495
21.1083,1476
21.1111,1463
21.1139,1483
21.1167,1492
21.1194,1512
21.1222,1536
21.1250,1542
21.1278,1524
21.1306,1506
21.1333,1500
21.1361,1528
21.1389,1536
21.1417,1510
21.1444,1480
21.1472,1448
21.1500,1432
21.1528,1452
21.1556,1489
21.1583,1548
21.1611,1624
21.1639,1648
21.1667,1628
21.1694,1557
21.1722,1488
21.1750,1435
21.1778,1428
21.1806,1440
21.1833,1466
21.1861,1502
21.1889,1519
21.1917,1547
21.1944,1564
21.1972,1571
21.2000,1564
21.2028,1582
21.2056,1589
21.2083,1587
21.2111,1584
21.2139,1582
21.2167,1560
21.2194,1618
21.2222,1621
21.2250,1607
21.2278,1607
21.2306,1612
21.2333,1604
21.2361,1561
21.2389,1528
21.2417,1482
21.2444,1491
21.2472,1523
21.2500,1554
21.2528,1554
21.2556,1532
21.2583,1495
21.2611,1477
21.2639,1454
21.2667,1460
21.2694,1456
21.2722,1475
21.2750,1476
21.2778,1472
21.2806,1458
21.2833,1458
21.2861,1463
21.2889,1476
21.2917,1510
21.2944,1519
21.2972,1503
21.3000,1471
21.3028,1498
21.3056,1534
21.3083,1530
21.3111,1523
21.3139,1474
21.3167,1431
21.3194,1410
21.3222,1410
21.3250,1444
21.3278,1477
21.3306,1511
21.3333,1542
21.3361,1550
21.3389,1555
21.3417,1553
21.3444,1541
21.3472,1513
21.3500,1491
21.3528,1493
21.3556,1493
21.3583,1499
21.3611,1491
21.3639,1481
21.3667,1469
21.3694,1473
21.3722,1476
21.3750,1478
21.3778,1474
21.3806,1483
21.3833,1489
21.3861,1487
21.3889,1486
21.3917,1515
21.3944,1524
21.3972,1528
21.4000,1528
21.4028,1534
21.4056,1522
21.4083,1489
21.4111,1455
21.4139,1443
21.4167,1456
21.4194,1502
21.4222,1551
21.4250,1603
21.4278,1623
21.4306,1629
21.4333,1590
21.4361,1544
21.4389,1498
21.4417,1481
21.4444,1466
21.4472,1451
21.4500,1449
21.4528,1468
21.4556,1468
21.4583,1468
21.4611,1484
21.4639,1497
21.4667,1515
21.4694,1548
21.4722,1557
21.4750,1539
21.4778,1520
21.4806,1503
21.4833,1495
21.4861,1531
21.4889,1571
21.4917,1574
21.4944,1563
21.4972,1541
21.5000,1516
21.5028,1509
21.5056,1519
21.5083,1548
21.5111,1551
21.5139,1535
21.5167,1524
21.5194,1506
21.5222,1496
21.5250,1514
21.5278,1516
21.5306,1488
21.5333,1482
21.5361,1529
21.5389,1572
21.5417,1606
21.5444,1620
21.5472,1592
21.5500,1560
21.5528,1540
21.5556,1537
21.5583,1576
21.5611,1614
21.5639,1646
21.5667,1624
21.5694,1588
21.5722,1525
21.5750,1495
21.5778,1507
21.5806,1554
21.5833,1603
21.5861,1635
21.5889,1633
21.5917,1611
21.5944,1591
21.5972,1581
21.6000,1584
21.6028,1578
21.6056,1566
21.6083,1550
21.6111,1547
21.6139,1527
21.6167,1501
21.6194,1484
21.6222,1488
21.6250,1486
21.6278,1493
21.6306,1512
21.6333,1544
21.6361,1565
21.6389,1570
21.6417,1556
21.6444,1545
21.6472,1521
21.6500,1523
21.6528,1528
21.6556,1531
21.6583,1554
21.6611,1550
21.6639,1552
21.6667,1558
21.6694,1551
21.6722,1552
21.6750,1556
21.6778,1562
21.6806,1590
21.6833,1611
21.6861,1587
21.6889,1588
21.6917,1586
21.6944,1593
21.6972,1591
21.7000,1556
21.7028,1528
21.7056,1540
21.7083,1628
21.7111,1770
21.7139,1910
21.7167,2035
21.7194,2137
21.7222,2238
21.7250,2361
21.7278,2525
21.7306,2738
21.7333,2848
21.7361,2819
21.7389,2602
21.7417,2251
21.7444,1903
21.7472,1646
21.7500,1526
21.7528,1499
21.7556,1542
21.7583,1586
21.7611,1649
21.7639,1671
21.7667,1656
21.7694,1617
21.7722,1577
21.7750,1556
21.7778,1558
21.7806,1586
21.7833,1586
21.7861,1584
21.7889,1570
21.7917,1531
21.7944,1514
21.7972,1507
21.8000,1523
21.8028,1551
21.8056,1554
21.8083,1534
21.8111,1486
21.8139,1461
21.8167,1455
21.8194,1468
21.8222,1508
21.8250,1532
21.8278,1538
21.8306,1540
21.8333,1511
21.8361,1502
21.8389,1507
21.8417,1551
21.8444,1575
21.8472,1607
21.8500,1631
21.8528,1636
21.8556,1651
21.8583,1640
21.8611,1633
21.8639,1605
21.8667,1583
21.8694,1559
21.8722,1552
21.8750,1549
21.8778,1543
21.8806,1548
21.8833,1567
21.8861,1609
21.8889,1636
21.8917,1646
21.8944,1621
21.8972,1609
21.9000,1604
21.9028,1610
21.9056,1649
21.9083,1673
21.9111,1675
21.9139,1659
21.9167,1635
21.9194,1630
21.9222,1663
21.9250,1687
21.9278,1709
21.9306,1710
21.9333,1729
21.9361,1768
21.9389,1819
21.9417,1825
21.9444,1838
21.9472,1798
21.9500,1743
21.9528,1701
21.9556,1686
21.9583,1712
21.9611,1741
21.9639,1755
21.9667,1757
21.9694,1728
21.9722,1685
21.9750,1668
21.9778,1637
21.9806,1637
21.9833,1667
21.9861,1662
21.9889,1656
21.9917,1641
21.9944,1628
21.9972,1627
22.0000,1623
22.0028,1617
22.0056,1624
22.0083,1635
22.0111,1657
22.0139,1683
22.0167,1702
22.0194,1694
22.0222,1687
22.0250,1679
22.0278,1673
22.0306,1667
22.0333,1667
22.0361,1661
22.0389,1657
22.0417,1659
22.0444,1674
22.0472,1673
22.0500,1668
22.0528,1666
22.0556,1669
22.0583,1672
22.0611,1682
22.0639,1717
22.0667,1720
22.0694,1690
22.0722,1641
22.0750,1600
22.0778,1584
22.0806,1586
22.0833,1625
22.0861,1675
22.0889,1705
22.0917,1731
22.0944,1741
22.0972,1716
22.1000,1696
22.1028,1655
22.1056,1645
22.1083,1654
22.1111,1677
22.1139,1686
22.1167,1704
22.1194,1710
22.1222,1706
22.1250,1698
22.1278,1688
22.1306,1683
22.1333,1699
22.1361,1718
22.1389,1706
22.1417,1692
22.1444,1702
22.1472,1704
22.1500,1689
22.1528,1661
22.1556,1650
22.1583,1641
22.1611,1632
22.1639,1619
22.1667,1626
22.1694,1636
22.1722,1651
22.1750,1663
22.1778,1671
22.1806,1685
22.1833,1689
22.1861,1672
22.1889,1638
22.1917,1620
22.1944,1605
22.1972,1607
22.2000,1618
22.2028,1626
22.2056,1613
22.2083,1628
22.2111,1654
22.2139,1683
22.2167,1682
22.2194,1669
22.2222,1641
22.2250,1623
22.2278,1634
22.2306,1622
22.2333,1629
22.2361,1636
22.2389,1643
22.2417,1636
22.2444,1636
22.2472,1658
22.2500,1666
22.2528,1680
22.2556,1695
22.2583,1696
22.2611,1698
22.2639,1691
22.2667,1677
22.2694,1672
22.2722,1657
22.2750,1643
22.2778,1652
22.2806,1652
22.2833,1623
22.2861,1607
22.2889,1623
22.2917,1667
22.2944,1696
22.2972,1705
22.3000,1712
22.3028,1707
22.3056,1695
22.3083,1674
22.3111,1638
22.3139,1588
22.3167,1573
22.3194,1585
22.3222,1649
22.3250,1688
22.3278,1679
22.3306,1614
22.3333,1583
22.3361,1561
22.3389,1579
22.3417,1614
22.3444,1626
22.3472,1630
22.3500,1613
22.3528,1601
22.3556,1582
22.3583,1554
22.3611,1523
22.3639,1537
22.3667,1562
22.3694,1579
22.3722,1592
22.3750,1602
22.3778,1621
22.3806,1646
22.3833,1649
22.3861,1620
22.3889,1621
22.3917,1631
22.3944,1644
22.3972,1656
22.4000,1637
22.4028,1613
22.4056,1602
22.4083,1592
22.4111,1602
22.4139,1597
22.4167,1601
22.4194,1585
22.4222,1561
22.4250,1593
22.4278,1689
22.4306,1808
22.4333,1940
22.4361,2080
22.4389,2227
22.4417,2361
22.4444,2539
22.4472,2741
22.4500,2863
22.4528,2863
22.4556,2714
22.4583,2390
22.4611,2027
22.4639,1745
22.4667,1614
22.4694,1594
22.4722,1629
22.4750,1680
22.4778,1727
22.4806,1729
22.4833,1700
22.4861,1640
22.4889,1570
22.4917,1523
22.4944,1509
22.4972,1517
22.5000,1528
22.5028,1550
22.5056,1551
22.5083,1522
22.5111,1502
22.5139,1505
22.5167,1531
22.5194,1542
22.5222,1562
22.5250,1519
22.5278,1466
22.5306,1477
22.5333,1525
22.5361,1590
22.5389,1644
22.5417,1644
22.5444,1633
22.5472,1597
22.5500,1545
22.5528,1536
22.5556,1534
22.5583,1557
22.5611,1592
22.5639,1626
22.5667,1655
22.5694,1672
22.5722,1622
22.5750,1555
22.5778,1501
22.5806,1498
22.5833,1516
22.5861,1536
22.5889,1550
22.5917,1568
22.5944,1618
22.5972,1631
22.6000,1636
22.6028,1648
22.6056,1649
22.6083,1621
22.6111,1588
22.6139,1579
22.6167,1591
22.6194,1633
22.6222,1686
22.6250,1712
22.6278,1711
22.6306,1703
22.6333,1711
22.6361,1716
22.6389,1723
22.6417,1717
22.6444,1720
22.6472,1703
22.6500,1709
22.6528,1721
22.6556,1923
22.6583,1921
22.6611,1894
22.6639,1827
22.6667,1771
22.6694,1736
22.6722,1714
22.6750,1701
22.6778,1712
22.6806,1745
22.6833,1760
22.6861,1753
22.6889,1721
22.6917,1711
22.6944,1704
22.6972,1711
22.7000,1706
22.7028,1686
22.7056,1671
22.7083,1685
22.7111,1692
22.7139,1695
22.7167,1709
22.7194,1730
22.7222,1730
22.7250,1729
22.7278,1747
22.7306,1781
22.7333,1816
22.7361,1823
22.7389,1813
22.7417,1772
22.7444,1727
22.7472,1694
22.7500,1696
22.7528,1700
22.7556,1703
22.7583,1701
22.7611,1701
22.7639,1730
22.7667,1779
22.7694,1802
22.7722,1775
22.7750,1718
22.7778,1656
22.7806,1645
22.7833,1660
22.7861,1696
22.7889,1734
22.7917,1778
22.7944,1804
22.7972,1804
22.8000,1786
22.8028,1746
22.8056,1752
22.8083,1758
22.8111,1781
22.8139,1803
22.8167,1815
22.8194,1840
22.8222,1877
22.8250,1903
22.8278,1898
22.8306,1845
22.8333,1767
22.8361,1709
22.8389,1696
22.8417,1729
22.8444,1774
22.8472,1811
22.8500,1812
22.8528,1817
22.8556,1802
22.8583,1784
22.8611,1754
22.8639,1756
22.8667,1776
22.8694,1795
22.8722,1796
22.8750,1778
22.8778,1757
22.8806,1769
22.8833,1788
22.8861,1814
22.8889,1829
22.8917,1815
22.8944,1810
22.8972,1823
22.9000,1852
22.9028,1881
22.9056,1906
22.9083,1904
22.9111,1866
22.9139,1841
22.9167,1832
22.9194,1791
22.9222,1777
22.9250,1794
22.9278,1853
22.9306,1904
22.9333,1904
22.9361,1885
22.9389,1860
22.9417,1844
22.9444,1824
22.9472,1808
22.9500,1780
22.9528,1774
22.9556,1788
22.9583,1801
22.9611,1826
22.9639,1843
22.9667,1885
22.9694,1908
22.9722,1934
22.9750,1924
22.9778,1922
22.9806,1939
22.9833,1948
22.9861,1944
22.9889,1949
22.9917,1955
22.9944,1950
22.9972,1955
23.0000,1968
23.0028,1974
23.0056,1970
23.0083,1963
23.0111,1928
23.0139,1903
23.0167,1920
23.0194,1939
23.0222,1970
23.0250,1977
23.0278,1939
23.0306,1878
23.0333,1839
23.0361,1808
23.0389,1843
23.0417,1894
23.0444,1923
23.0472,1920
23.0500,1873
23.0528,1839
23.0556,1845
23.0583,1890
23.0611,1924
23.0639,1948
23.0667,1944
23.0694,1908
23.0722,1913
23.0750,1937
23.0778,1962
23.0806,1949
23.0833,1935
23.0861,1913
23.0889,1893
23.0917,1901
23.0944,1886
23.0972,1895
23.1000,1942
23.1028,1980
23.1056,1999
23.1083,2008
23.1111,1972
23.1139,1920
23.1167,1895
23.1194,1915
23.1222,1938
23.1250,1938
23.1278,1940
23.1306,1917
23.1333,1901
23.1361,1887
23.1389,1872
23.1417,1864
23.1444,1947
23.1472,2082
23.1500,2241
23.1528,2421
23.1556,2637
23.1583,2827
23.1611,3002
23.1639,3158
23.1667,3262
23.1694,3271
23.1722,3120
23.1750,2791
23.1778,2419
23.1806,2142
23.1833,2009
23.1861,1941
23.1889,1941
23.1917,1944
23.1944,1968
23.1972,2001
23.2000,2017
23.2028,1962
23.2056,1880
23.2083,1802
23.2111,1766
23.2139,1749
23.2167,1753
23.2194,1794
23.2222,1872
23.2250,1933
23.2278,1962
23.2306,1959
23.2333,1930
23.2361,1877
23.2389,1854
23.2417,1873
23.2444,1898
23.2472,1904
23.2500,1892
23.2528,1865
23.2556,1854
23.2583,1873
23.2611,1926
23.2639,1939
23.2667,1891
23.2694,1845
23.2722,1820
23.2750,1837
23.2778,1871
23.2806,1897
23.2833,1900
23.2861,1870
23.2889,1858
23.2917,1858
23.2944,1876
23.2972,1922
23.3000,1949
23.3028,1928
23.3056,1882
23.3083,1856
23.3111,1855
23.3139,1902
23.3167,1958
23.3194,2007
23.3222,2030
23.3250,2004
23.3278,1972
23.3306,1925
23.3333,1922
23.3361,1906
23.3389,1891
23.3417,1876
23.3444,1864
23.3472,1884
23.3500,1919
23.3528,1938
23.3556,1958
23.3583,1990
23.3611,1988
23.3639,1984
23.3667,1981
23.3694,2006
23.3722,2031
23.3750,2029
23.3778,2039
23.3806,2051
23.3833,2071
23.3861,2081
23.3889,2063
23.3917,2017
23.3944,1932
23.3972,1853
23.4000,1808
23.4028,1820
23.4056,1855
23.4083,1895
23.4111,1936
23.4139,1966
23.4167,1993
23.4194,1997
23.4222,1945
23.4250,1882
23.4278,1866
23.4306,1858
23.4333,1840
23.4361,1860
23.4389,1867
23.4417,1863
23.4444,1865
23.4472,1878
23.4500,1913
23.4528,1931
23.4556,1947
23.4583,1949
23.4611,1927
23.4639,1898
23.4667,1849
23.4694,1840
23.4722,1883
23.4750,1915
23.4778,1906
23.4806,1881
23.4833,1819
23.4861,1754
23.4889,1721
23.4917,1749
23.4944,1806
23.4972,1877
23.5000,1917
23.5028,1926
23.5056,1889
23.5083,1849
23.5111,1817
23.5139,1800
23.5167,1813
23.5194,1827
23.5222,1792
23.5250,1772
23.5278,1826
23.5306,1869
23.5333,1901
23.5361,1920
23.5389,1899
23.5417,1886
23.5444,1879
23.5472,1865
23.5500,1866
23.5528,1863
23.5556,1881
23.5583,1893
23.5611,1914
23.5639,1918
23.5667,1862
23.5694,1821
23.5722,1764
23.5750,1756
23.5778,1758
23.5806,1752
23.5833,1743
23.5861,1733
23.5889,1761
23.5917,1788
23.5944,1809
23.5972,1805
23.6000,1783
23.6028,1749
23.6056,1739
23.6083,1790
23.6111,1828
23.6139,1807
23.6167,1774
23.6194,1743
23.6222,1741
23.6250,1728
23.6278,1733
23.6306,1748
23.6333,1758
23.6361,1791
23.6389,1808
23.6417,1777
23.6444,1723
23.6472,1710
23.6500,1742
23.6528,1782
23.6556,1831
23.6583,1854
23.6611,1810
23.6639,1766
23.6667,1725
23.6694,1696
23.6722,1719
23.6750,1763
23.6778,1789
23.6806,1781
23.6833,1755
23.6861,1730
23.6889,1709
23.6917,1701
23.6944,1686
23.6972,1695
23.7000,1743
23.7028,1785
23.7056,1779
23.7083,1739
23.7111,1711
23.7139,1709
23.7167,1715
23.7194,1708
23.7222,1724
23.7250,1770
23.7278,1804
23.7306,1789
23.7333,1777
23.7361,1793
23.7389,1804
23.7417,1802
23.7444,1793
23.7472,1764
23.7500,1745
23.7528,1753
23.7556,1740
23.7583,1696
23.7611,1637
23.7639,1653
23.7667,1695
23.7694,1727
23.7722,1736
23.7750,1716
23.7778,1682
23.7806,1667
23.7833,1661
23.7861,1675
23.7889,1684
23.7917,1701
23.7944,1707
23.7972,1711
23.8000,1721
23.8028,1723
23.8056,1714
23.8083,1696
23.8111,1662
23.8139,1657
23.8167,1666
23.8194,1687
23.8222,1722
23.8250,1769
23.8278,1808
23.8306,1832
23.8333,1819
23.8361,1759
23.8389,1703
23.8417,1658
23.8444,1609
23.8472,1584
23.8500,1608
23.8528,1678
23.8556,1774
23.8583,1899
23.8611,2028
23.8639,2159
23.8667,2298
23.8694,2428
23.8722,2557
23.8750,2726
23.8778,2882
23.8806,2922
23.8833,2765
23.8861,2432
23.8889,2062
23.8917,1765
23.8944,1593
23.8972,1537
23.9000,1569
23.9028,1656
23.9056,1736
23.9083,1769
23.9111,1767
23.9139,1736
23.9167,1713
23.9194,1670
23.9222,1630
23.9250,1576
23.9278,1554
23.9306,1587
23.9333,1606
23.9361,1619
23.9389,1613
23.9417,1595
23.9444,1581
23.9472,1571
23.9500,1578
23.9528,1576
23.9556,1557
23.9583,1567
23.9611,1576
23.9639,1578
23.9667,1584
23.9694,1602
23.9722,1589
23.9750,1571
23.9778,1560
23.9806,1564
23.9833,1587
23.9861,1611
23.9889,1637
23.9917,1647
23.9944,1645
23.9972,1638
24.0000,1604
24.0028,1597
24.0056,1573
24.0083,1549
24.0111,1541
24.0139,1545
24.0167,1529
24.0194,1548
24.0222,1579
24.0250,1593
24.0278,1605
24.0306,1638
24.0333,1663
24.0361,1670
24.0389,1645
24.0417,1612
24.0444,1602
24.0472,1597
24.0500,1601
24.0528,1606
24.0556,1611
24.0583,1597
24.0611,1612
24.0639,1635
24.0667,1660
24.0694,1683
24.0722,1694
24.0750,1668
24.0778,1645
24.0806,1655
24.0833,1676
24.0861,1675
24.0889,1687
24.0917,1708
24.0944,1718
24.0972,1698
24.1000,1677
24.1028,1662
24.1056,1631
24.1083,1605
24.1111,1590
24.1139,1574
24.1167,1591
24.1194,1620
24.1222,1641
24.1250,1652
24.1278,1683
24.1306,1689
24.1333,1676
24.1361,1628
24.1389,1590
24.1417,1590
24.1444,1599
24.1472,1580
24.1500,1568
24.1528,1579
24.1556,1563
24.1583,1534
24.1611,1511
24.1639,1507
24.1667,1522
24.1694,1545
24.1722,1588
24.1750,1617
24.1778,1619
24.1806,1622
24.1833,1632
24.1861,1627
24.1889,1596
24.1917,1561
24.1944,1547
24.1972,1560
24.2000,1577
24.2028,1599
24.2056,1627
24.2083,1631
24.2111,1612
24.2139,1584
24.2167,1596
24.2194,1610
24.2222,1622
24.2250,1621
24.2278,1625
24.2306,1619
24.2333,1616
24.2361,1597
24.2389,1585
24.2417,1587
24.2444,1628
24.2472,1678
24.2500,1696
24.2528,1680
24.2556,1665
24.2583,1628
24.2611,1601
24.2639,1597
24.2667,1602
24.2694,1609
24.2722,1590
24.2750,1570
24.2778,1566
24.2806,1567
24.2833,1564
24.2861,1555
24.2889,1541
24.2917,1547
24.2944,1544
24.2972,1544
24.3000,1581
24.3028,1604
24.3056,1644
24.3083,1650
24.3111,1644
24.3139,1624
24.3167,1605
24.3194,1620
24.3222,1639
24.3250,1650
24.3278,1609
24.3306,1600
24.3333,1620
24.3361,1654
24.3389,1689
24.3417,1704
24.3444,1711
24.3472,1690
24.3500,1649
24.3528,1596
24.3556,1549
24.3583,1575
24.3611,1603
24.3639,1620
24.3667,1617
24.3694,1650
24.3722,1693
24.3750,1708
24.3778,1696
24.3806,1647
24.3833,1582
24.3861,1556
24.3889,1592
24.3917,1639
24.3944,1668
24.3972,1685
24.4000,1692
24.4028,1709
24.4056,1707
24.4083,1711
24.4111,1695
24.4139,1644
24.4167,1586
24.4194,1570
24.4222,1571
24.4250,1585
24.4278,1604
24.4306,1601
24.4333,1564
24.4361,1547
24.4389,1540
24.4417,1524
24.4444,1514
24.4472,1525
24.4500,1550
24.4528,1534
24.4556,1526
24.4583,1509
24.4611,1545
24.4639,1586
24.4667,1615
24.4694,1657
24.4722,1685
24.4750,1669
24.4778,1647
24.4806,1615
24.4833,1595
24.4861,1583
24.4889,1594
24.4917,1602
24.4944,1594
24.4972,1576
24.5000,1566
24.5028,1547
24.5056,1568
24.5083,1559
24.5111,1541
24.5139,1538
24.5167,1572
24.5194,1651
24.5222,1760
24.5250,1870
24.5278,2040
24.5306,2203
24.5333,2323
24.5361,2466
24.5389,2630
24.5417,2757
24.5444,2719
24.5472,2496
24.5500,2143
24.5528,1780
24.5556,1539
24.5583,1456
24.5611,1485
24.5639,1555
24.5667,1606
24.5694,1630
24.5722,1607
24.5750,1562
24.5778,1542
24.5806,1542
24.5833,1532
24.5861,1537
24.5889,1552
24.5917,1551
24.5944,1554
24.5972,1553
24.6000,1537
24.6028,1540
24.6056,1532
24.6083,1513
24.6111,1505
24.6139,1511
24.6167,1485
24.6194,1453
24.6222,1430
24.6250,1445
24.6278,1483
24.6306,1516
24.6333,1540
24.6361,1530
24.6389,1506
24.6417,1499
24.6444,1485
24.6472,1468
24.6500,1457
24.6528,1467
24.6556,1484
24.6583,1494
24.6611,1473
24.6639,1490
24.6667,1528
24.6694,1561
24.6722,1563
24.6750,1572
24.6778,1544
24.6806,1517
24.6833,1514
24.6861,1548
24.6889,1598
24.6917,1627
24.6944,1627
24.6972,1601
24.7000,1537
24.7028,1484
24.7056,1461
24.7083,1481
24.7111,1540
24.7139,1595
24.7167,1625
24.7194,1621
24.7222,1584
24.7250,1536
24.7278,1516
24.7306,1522
24.7333,1529
24.7361,1555
24.7389,1593
24.7417,1627
24.7444,1653
24.7472,1737
24.7500,1745
24.7528,1722
24.7556,1693
24.7583,1661
24.7611,1607
24.7639,1555
24.7667,1503
24.7694,1476
24.7722,1481
24.7750,1492
24.7778,1518
24.7806,1529
24.7833,1533
24.7861,1528
24.7889,1508
24.7917,1487
24.7944,1456
24.7972,1430
24.8000,1449
24.8028,1498
24.8056,1544
24.8083,1554
24.8111,1550
24.8139,1526
24.8167,1496
24.8194,1457
24.8222,1448
24.8250,1431
24.8278,1438
24.8306,1464
24.8333,1499
24.8361,1526
24.8389,1556
24.8417,1545
24.8444,1463
24.8472,1380
24.8500,1341
24.8528,1356
24.8556,1405
24.8583,1478
24.8611,1506
24.8639,1519
24.8667,1504
24.8694,1482
24.8722,1469
24.8750,1481
24.8778,1496
24.8806,1515
24.8833,1536
24.8861,1546
24.8889,1550
24.8917,1574
24.8944,1579
24.8972,1583
24.9000,1561
24.9028,1516
24.9056,1461
24.9083,1423
24.9111,1424
24.9139,1442
24.9167,1479
24.9194,1497
24.9222,1499
24.9250,1489
24.9278,1491
24.9306,1506
24.9333,1494
24.9361,1465
24.9389,1422
24.9417,1402
24.9444,1412
24.9472,1440
24.9500,1473
24.9528,1504
24.9556,1518
24.9583,1499
24.9611,1454
24.9639,1416
24.9667,1427
24.9694,1473
24.9722,1506
24.9750,1519
24.9778,1500
24.9806,1462
24.9833,1443
24.9861,1452
24.9889,1490
24.9917,1530
24.9944,1516
24.9972,1454
25.0000,1375
25.0028,1351
25.0056,1383
25.0083,1412
25.0111,1427
25.0139,1434
25.0167,1438
25.0194,1449
25.0222,1490
25.0250,1512
25.0278,1490
25.0306,1477
25.0333,1469
25.0361,1482
25.0389,1499
25.0417,1480
25.0444,1472
25.0472,1476
25.0500,1467
25.0528,1462
25.0556,1501
25.0583,1540
25.0611,1526
25.0639,1514
25.0667,1480
25.0694,1463
25.0722,1479
25.0750,1475
25.0778,1464
25.0806,1468
25.0833,1471
25.0861,1478
25.0889,1464
25.0917,1429
25.0944,1403
25.0972,1408
25.1000,1433
25.1028,1456
25.1056,1478
25.1083,1468
25.1111,1458
25.1139,1466
25.1167,1452
25.1194,1415
25.1222,1365
25.1250,1370
25.1278,1403
25.1306,1446
25.1333,1440
25.1361,1396
25.1389,1380
25.1417,1405
25.1444,1454
25.1472,1486
25.1500,1507
25.1528,1521
25.1556,1504
25.1583,1428
25.1611,1392
25.1639,1418
25.1667,1471
25.1694,1511
25.1722,1542
25.1750,1547
25.1778,1512
25.1806,1445
25.1833,1420
25.1861,1428
25.1889,1438
25.1917,1439
25.1944,1432
25.1972,1459
25.2000,1564
25.2028,1692
25.2056,1761
25.2083,1834
25.2111,1967
25.2139,2162
25.2167,2377
25.2194,2606
25.2222,2803
25.2250,2915
25.2278,2835
25.2306,2529
25.2333,2099
25.2361,1756
25.2389,1523
25.2417,1424
25.2444,1441
25.2472,1506
25.2500,1578
25.2528,1626
25.2556,1636
25.2583,1601
25.2611,1523
25.2639,1457
25.2667,1422
25.2694,1426
25.2722,1444
25.2750,1446
25.2778,1420
25.2806,1386
25.2833,1379
25.2861,1376
25.2889,1384
25.2917,1430
25.2944,1480
25.2972,1508
25.3000,1511
25.3028,1465
25.3056,1419
25.3083,1397
25.3111,1414
25.3139,1450
25.3167,1486
25.3194,1512
25.3222,1516
25.3250,1505
25.3278,1500
25.3306,1519
25.3333,1532
25.3361,1522
25.3389,1482
25.3417,1458
25.3444,1469
25.3472,1476
25.3500,1502
25.3528,1522
25.3556,1499
25.3583,1482
25.3611,1493
25.3639,1516
25.3667,1524
25.3694,1517
25.3722,1511
25.3750,1529
25.3778,1585
25.3806,1599
25.3833,1578
25.3861,1561
25.3889,1551
25.3917,1548
25.3944,1554
25.3972,1556
25.4000,1525
25.4028,1483
25.4056,1481
25.4083,1514
25.4111,1537
25.4139,1581
25.4167,1636
25.4194,1670
25.4222,1672
25.4250,1655
25.4278,1648
25.4306,1709
25.4333,1705
25.4361,1705
25.4389,1696
25.4417,1683
25.4444,1663
25.4472,1654
25.4500,1633
25.4528,1629
25.4556,1646
25.4583,1662
25.4611,1648
25.4639,1642
25.4667,1653
25.4694,1653
25.4722,1627
25.4750,1633
25.4778,1617
25.4806,1595
25.4833,1558
25.4861,1556
25.4889,1556
25.4917,1576
25.4944,1603
25.4972,1659
25.5000,1701
25.5028,1720
25.5056,1684
25.5083,1635
25.5111,1605
25.5139,1630
25.5167,1663
25.5194,1673
25.5222,1635
25.5250,1594
25.5278,1569
25.5306,1593
25.5333,1666
25.5361,1723
25.5389,1729
25.5417,1698
25.5444,1697
25.5472,1720
25.5500,1704
25.5528,1671
25.5556,1664
25.5583,1689
25.5611,1705
25.5639,1689
25.5667,1652
25.5694,1633
25.5722,1659
25.5750,1696
25.5778,1762
25.5806,1817
25.5833,1839
25.5861,1821
25.5889,1773
25.5917,1707
25.5944,1673
25.5972,1688
25.6000,1734
25.6028,1785
25.6056,1786
25.6083,1748
25.6111,1684
25.6139,1651
25.6167,1654
25.6194,1696
25.6222,1749
25.6250,1799
25.6278,1806
25.6306,1780
25.6333,1754
25.6361,1755
25.6389,1764
25.6417,1781
25.6444,1813
25.6472,1847
25.6500,1841
25.6528,1838
25.6556,1837
25.6583,1817
25.6611,1788
25.6639,1747
25.6667,1747
25.6694,1782
25.6722,1775
25.6750,1755
25.6778,1741
25.6806,1729
25.6833,1714
25.6861,1706
25.6889,1704
25.6917,1725
25.6944,1729
25.6972,1742
25.7000,1755
25.7028,1741
25.7056,1757
25.7083,1766
25.7111,1772
25.7139,1779
25.7167,1806
25.7194,1852
25.7222,1888
25.7250,1920
25.7278,1938
25.7306,1914
25.7333,1871
25.7361,1846
25.7389,1831
25.7417,1831
25.7444,1819
25.7472,1827
25.7500,1862
25.7528,1886
25.7556,1872
25.7583,1826
25.7611,1780
25.7639,1752
25.7667,1766
25.7694,1784
25.7722,1807
25.7750,1825
25.7778,1837
25.7806,1847
25.7833,1855
25.7861,1852
25.7889,1858
25.7917,1861
25.7944,1843
25.7972,1810
25.8000,1781
25.8028,1772
25.8056,1796
25.8083,1828
25.8111,1873
25.8139,1903
25.8167,1885
25.8194,1812
25.8222,1723
25.8250,1677
25.8278,1684
25.8306,1719
25.8333,1750
25.8361,1766
25.8389,1770
25.8417,1782
25.8444,1824
25.8472,1842
25.8500,1854
25.8528,1834
25.8556,1804
25.8583,1769
25.8611,1743
25.8639,1718
25.8667,1734
25.8694,1741
25.8722,1782
25.8750,1838
25.8778,1859
25.8806,1824
25.8833,1750
25.8861,1709
25.8889,1752
25.8917,1809
25.8944,1891
25.8972,1991
25.9000,2071
25.9028,2159
25.9056,2257
25.9083,2389
25.9111,2519
25.9139,2669
25.9167,2879
25.9194,3105
25.9222,3189
25.9250,3112
25.9278,2812
25.9306,2383
25.9333,2025
25.9361,1816
25.9389,1721
25.9417,1705
25.9444,1716
25.9472,1731
25.9500,1750
25.9528,1811
25.9556,1873
25.9583,1892
25.9611,1857
25.9639,1801
25.9667,1754
25.9694,1705
25.9722,1700
25.9750,1755
25.9778,1811
25.9806,1840
25.9833,1841
25.9861,1837
25.9889,1815
25.9917,1784
25.9944,1770
25.9972,1779
26.0000,1772
26.0028,1765
26.0056,1736
26.0083,1723
26.0111,1712
26.0139,1716
26.0167,1724
26.0194,1726
26.0222,1736
26.0250,1755
26.0278,1793
26.0306,1810
26.0333,1805
26.0361,1787
26.0389,1770
26.0417,1790
26.0444,1840
26.0472,1886
26.0500,1896
26.0528,1865
26.0556,1796
26.0583,1733
26.0611,1687
26.0639,1687
26.0667,1704
26.0694,1747
26.0722,1770
26.0750,1803
26.0778,1835
26.0806,1855
26.0833,1845
26.0861,1829
26.0889,1840
26.0917,1858
26.0944,1900
26.0972,1928
26.1000,1934
26.1028,1914
26.1056,1873
26.1083,1803
26.1111,1758
26.1139,1786
26.1167,1830
26.1194,1862
26.1222,1872
26.1250,1856
26.1278,1972
26.1306,1978
26.1333,1967
26.1361,1896
26.1389,1800
26.1417,1768
26.1444,1800
26.1472,1856
26.1500,1910
26.1528,1905
26.1556,1851
26.1583,1794
26.1611,1760
26.1639,1750
26.1667,1769
26.1694,1767
26.1722,1781
26.1750,1791
26.1778,1794
26.1806,1795
26.1833,1807
26.1861,1794
26.1889,1773
26.1917,1762
26.1944,1777
26.1972,1788
26.2000,1790
26.2028,1770
26.2056,1769
26.2083,1806
26.2111,1837
26.2139,1846
26.2167,1854
26.2194,1869
26.2222,1872
26.2250,1860
26.2278,1870
26.2306,1857
26.2333,1818
26.2361,1798
26.2389,1774
26.2417,1749
26.2444,1708
26.2472,1712
26.2500,1746
26.2528,1812
26.2556,1828
26.2583,1791
26.2611,1764
26.2639,1780
26.2667,1806
26.2694,1860
26.2722,1905
26.2750,1907
26.2778,1877
26.2806,1832
26.2833,1777
26.2861,1763
26.2889,1768
26.2917,1815
26.2944,1859
26.2972,1858
26.3000,1823
26.3028,1789
26.3056,1786
26.3083,1824
26.3111,1855
26.3139,1839
26.3167,1818
26.3194,1783
26.3222,1733
26.3250,1738
26.3278,1797
26.3306,1861
26.3333,1867
26.3361,1839
26.3389,1813
26.3417,1828
26.3444,1819
26.3472,1808
26.3500,1800
26.3528,1823
26.3556,1819
26.3583,1809
26.3611,1807
26.3639,1787
26.3667,1739
26.3694,1665
26.3722,1623
26.3750,1612
26.3778,1648
26.3806,1680
26.3833,1732
26.3861,1757
26.3889,1752
26.3917,1764
26.3944,1793
26.3972,1821
26.4000,1838
26.4028,1825
26.4056,1776
26.4083,1748
26.4111,1744
26.4139,1781
26.4167,1828
26.4194,1848
26.4222,1855
26.4250,1825
26.4278,1816
26.4306,1816
26.4333,1805
26.4361,1796
26.4389,1814
26.4417,1830
