Tiempo(s),Valor_ADC
0.0028,1615
0.0056,1608
0.0083,1605
0.0111,1617
0.0139,1635
0.0167,1639
0.0194,1634
0.0222,1634
0.0250,1616
0.0278,1632
0.0306,1646
0.0333,1664
0.0361,1674
0.0389,1677
0.0417,1676
0.0444,1672
0.0472,1667
0.0500,1678
0.0528,1695
0.0556,1699
0.0583,1709
0.0611,1713
0.0639,1708
0.0667,1720
0.0694,1717
0.0722,1729
0.0750,1739
0.0778,1746
0.0806,1736
0.0833,1732
0.0861,1742
0.0889,1759
0.0917,1773
0.0944,1783
0.0972,1803
0.1000,1790
0.1028,1777
0.1056,1783
0.1083,1806
0.1111,1826
0.1139,1845
0.1167,1860
0.1194,1869
0.1222,1871
0.1250,1877
0.1278,1776
0.1306,1788
0.1333,1777
0.1361,1762
0.1389,1744
0.1417,1724
0.1444,1701
0.1472,1692
0.1500,1706
0.1528,1707
0.1556,1721
0.1583,1718
0.1611,1703
0.1639,1699
0.1667,1695
0.1694,1701
0.1722,1706
0.1750,1701
0.1778,1698
0.1806,1682
0.1833,1669
0.1861,1663
0.1889,1663
0.1917,1682
0.1944,1691
0.1972,1697
0.2000,1695
0.2028,1686
0.2056,1683
0.2083,1692
0.2111,1705
0.2139,1718
0.2167,1720
0.2194,1719
0.2222,1704
0.2250,1706
0.2278,1705
0.2306,1704
0.2333,1710
0.2361,1718
0.2389,1722
0.2417,1726
0.2444,1730
0.2472,1729
0.2500,1728
0.2528,1720
0.2556,1734
0.2583,1743
0.2611,1743
0.2639,1752
0.2667,1747
0.2694,1755
0.2722,1754
0.2750,1758
0.2778,1749
0.2806,1754
0.2833,1747
0.2861,1748
0.2889,1749
0.2917,1752
0.2944,1762
0.2972,1761
0.3000,1754
0.3028,1763
0.3056,1769
0.3083,1770
0.3111,1770
0.3139,1770
0.3167,1768
0.3194,1783
0.3222,1779
0.3250,1781
0.3278,1778
0.3306,1797
0.3333,1803
0.3361,1793
0.3389,1791
0.3417,1792
0.3444,1783
0.3472,1795
0.3500,1814
0.3528,1811
0.3556,1813
0.3583,1794
0.3611,1786
0.3639,1783
0.3667,1796
0.3694,1805
0.3722,1813
0.3750,1830
0.3778,1831
0.3806,1821
0.3833,1813
0.3861,1815
0.3889,1806
0.3917,1807
0.3944,1805
0.3972,1811
0.4000,1815
0.4028,1825
0.4056,1824
0.4083,1826
0.4111,1829
0.4139,1828
0.4167,1818
0.4194,1803
0.4222,1806
0.4250,1814
0.4278,1818
0.4306,1822
0.4333,1837
0.4361,1835
0.4389,1837
0.4417,1825
0.4444,1829
0.4472,1831
0.4500,1829
0.4528,1845
0.4556,1852
0.4583,1848
0.4611,1846
0.4639,1839
0.4667,1845
0.4694,1850
0.4722,1858
0.4750,1867
0.4778,1865
0.4806,1871
0.4833,1873
0.4861,1869
0.4889,1874
0.4917,1880
0.4944,1886
0.4972,1894
0.5000,1884
0.5028,1872
0.5056,1867
0.5083,1865
0.5111,1870
0.5139,1885
0.5167,1893
0.5194,1891
0.5222,1893
0.5250,1901
0.5278,1906
0.5306,1906
0.5333,1895
0.5361,1895
0.5389,1896
0.5417,1901
0.5444,1913
0.5472,1908
0.5500,1928
0.5528,1957
0.5556,1993
0.5583,2028
0.5611,2041
0.5639,2037
0.5667,2011
0.5694,1985
0.5722,1965
0.5750,1931
0.5778,1929
0.5806,1913
0.5833,1906
0.5861,1895
0.5889,1896
0.5917,1882
0.5944,1872
0.5972,1870
0.6000,1869
0.6028,1867
0.6056,1864
0.6083,1862
0.6111,1864
0.6139,1864
0.6167,1866
0.6194,1860
0.6222,1849
0.6250,1845
0.6278,1833
0.6306,1842
0.6333,1855
0.6361,1867
0.6389,1880
0.6417,1885
0.6444,1878
0.6472,1871
0.6500,1861
0.6528,1864
0.6556,1866
0.6583,1873
0.6611,1879
0.6639,1878
0.6667,1887
0.6694,1886
0.6722,1894
0.6750,1892
0.6778,1900
0.6806,1897
0.6833,1893
0.6861,1869
0.6889,1845
0.6917,1824
0.6944,1820
0.6972,1868
0.7000,2007
0.7028,2189
0.7056,2400
0.7083,2631
0.7111,2882
0.7139,3166
0.7167,3362
0.7194,3371
0.7222,3365
0.7250,3359
0.7278,3374
0.7306,3363
0.7333,3101
0.7361,2659
0.7389,2296
0.7417,2071
0.7444,1937
0.7472,1862
0.7500,1811
0.7528,1779
0.7556,1769
0.7583,1758
0.7611,1743
0.7639,1717
0.7667,1692
0.7694,1671
0.7722,1660
0.7750,1667
0.7778,1678
0.7806,1689
0.7833,1688
0.7861,1673
0.7889,1676
0.7917,1683
0.7944,1689
0.7972,1696
0.8000,1711
0.8028,1712
0.8056,1706
0.8083,1703
0.8111,1687
0.8139,1711
0.8167,1727
0.8194,1733
0.8222,1737
0.8250,1738
0.8278,1742
0.8306,1743
0.8333,1742
0.8361,1751
0.8389,1760
0.8417,1761
0.8444,1755
0.8472,1742
0.8500,1732
0.8528,1730
0.8556,1738
0.8583,1759
0.8611,1767
0.8639,1770
0.8667,1767
0.8694,1765
0.8722,1767
0.8750,1774
0.8778,1785
0.8806,1789
0.8833,1792
0.8861,1791
0.8889,1789
0.8917,1791
0.8944,1808
0.8972,1826
0.9000,1832
0.9028,1846
0.9056,1843
0.9083,1845
0.9111,1857
0.9139,1862
0.9167,1867
0.9194,1876
0.9222,1880
0.9250,1889
0.9278,1903
0.9306,1906
0.9333,1789
0.9361,1791
0.9389,1784
0.9417,1783
0.9444,1780
0.9472,1777
0.9500,1778
0.9528,1774
0.9556,1778
0.9583,1787
0.9611,1788
0.9639,1785
0.9667,1767
0.9694,1751
0.9722,1737
0.9750,1749
0.9778,1754
0.9806,1768
0.9833,1759
0.9861,1746
0.9889,1741
0.9917,1754
0.9944,1767
0.9972,1767
1.0000,1777
1.0028,1767
1.0056,1771
1.0083,1768
1.0111,1774
1.0139,1761
1.0167,1763
1.0194,1753
1.0222,1753
1.0250,1755
1.0278,1753
1.0306,1752
1.0333,1758
1.0361,1763
1.0389,1772
1.0417,1770
1.0444,1777
1.0472,1768
1.0500,1771
1.0528,1762
1.0556,1773
1.0583,1780
1.0611,1784
1.0639,1785
1.0667,1785
1.0694,1783
1.0722,1779
1.0750,1773
1.0778,1769
1.0806,1770
1.0833,1762
1.0861,1765
1.0889,1763
1.0917,1772
1.0944,1778
1.0972,1786
1.1000,1791
1.1028,1791
1.1056,1796
1.1083,1777
1.1111,1777
1.1139,1777
1.1167,1771
1.1194,1760
1.1222,1746
1.1250,1730
1.1278,1734
1.1306,1731
1.1333,1725
1.1361,1731
1.1389,1730
1.1417,1741
1.1444,1731
1.1472,1728
1.1500,1713
1.1528,1724
1.1556,1726
1.1583,1729
1.1611,1730
1.1639,1733
1.1667,1725
1.1694,1721
1.1722,1707
1.1750,1715
1.1778,1720
1.1806,1723
1.1833,1734
1.1861,1728
1.1889,1725
1.1917,1732
1.1944,1730
1.1972,1730
1.2000,1718
1.2028,1709
1.2056,1707
1.2083,1712
1.2111,1718
1.2139,1716
1.2167,1714
1.2194,1705
1.2222,1706
1.2250,1704
1.2278,1709
1.2306,1708
1.2333,1702
1.2361,1706
1.2389,1710
1.2417,1713
1.2444,1705
1.2472,1699
1.2500,1685
1.2528,1687
1.2556,1695
1.2583,1703
1.2611,1721
1.2639,1723
1.2667,1717
1.2694,1713
1.2722,1716
1.2750,1714
1.2778,1720
1.2806,1738
1.2833,1748
1.2861,1778
1.2889,1795
1.2917,1810
1.2944,1829
1.2972,1833
1.3000,1818
1.3028,1801
1.3056,1783
1.3083,1759
1.3111,1730
1.3139,1704
1.3167,1697
1.3194,1690
1.3222,1680
1.3250,1667
1.3278,1657
1.3306,1649
1.3333,1649
1.3361,1642
1.3389,1645
1.3417,1632
1.3444,1632
1.3472,1625
1.3500,1613
1.3528,1611
1.3556,1614
1.3583,1617
1.3611,1625
1.3639,1627
1.3667,1635
1.3694,1628
1.3722,1633
1.3750,1643
1.3778,1638
1.3806,1625
1.3833,1629
1.3861,1621
1.3889,1618
1.3917,1619
1.3944,1632
1.3972,1644
1.4000,1639
1.4028,1640
1.4056,1628
1.4083,1628
1.4111,1621
1.4139,1619
1.4167,1607
1.4194,1595
1.4222,1590
1.4250,1560
1.4278,1524
1.4306,1520
1.4333,1591
1.4361,1740
1.4389,1934
1.4417,2156
1.4444,2378
1.4472,2628
1.4500,2929
1.4528,3237
1.4556,3357
1.4583,3362
1.4611,3356
1.4639,3325
1.4667,2968
1.4694,2479
1.4722,2059
1.4750,1832
1.4778,1720
1.4806,1652
1.4833,1601
1.4861,1558
1.4889,1528
1.4917,1502
1.4944,1479
1.4972,1458
1.5000,1420
1.5028,1397
1.5056,1395
1.5083,1407
1.5111,1417
1.5139,1426
1.5167,1411
1.5194,1406
1.5222,1392
1.5250,1393
1.5278,1394
1.5306,1406
1.5333,1414
1.5361,1409
1.5389,1398
1.5417,1409
1.5444,1413
1.5472,1437
1.5500,1443
1.5528,1450
1.5556,1457
1.5583,1447
1.5611,1446
1.5639,1442
1.5667,1441
1.5694,1454
1.5722,1465
1.5750,1475
1.5778,1473
1.5806,1468
1.5833,1468
1.5861,1483
1.5889,1505
1.5917,1505
1.5944,1507
1.5972,1507
1.6000,1499
1.6028,1503
1.6056,1505
1.6083,1523
1.6111,1538
1.6139,1547
1.6167,1556
1.6194,1555
1.6222,1562
1.6250,1571
1.6278,1587
1.6306,1613
1.6333,1626
1.6361,1631
1.6389,1630
1.6417,1626
1.6444,1627
1.6472,1636
1.6500,1649
1.6528,1665
1.6556,1679
1.6583,1685
1.6611,1687
1.6639,1688
1.6667,1580
1.6694,1597
1.6722,1592
1.6750,1591
1.6778,1574
1.6806,1546
1.6833,1526
1.6861,1520
1.6889,1517
1.6917,1516
1.6944,1516
1.6972,1503
1.7000,1507
1.7028,1503
1.7056,1505
1.7083,1502
1.7111,1507
1.7139,1504
1.7167,1509
1.7194,1493
1.7222,1488
1.7250,1478
1.7278,1480
1.7306,1491
1.7333,1495
1.7361,1500
1.7389,1497
1.7417,1491
1.7444,1489
1.7472,1499
1.7500,1503
1.7528,1498
1.7556,1492
1.7583,1493
1.7611,1495
1.7639,1501
1.7667,1517
1.7694,1525
1.7722,1525
1.7750,1538
1.7778,1531
1.7806,1520
1.7833,1518
1.7861,1521
1.7889,1532
1.7917,1550
1.7944,1554
1.7972,1549
1.8000,1545
1.8028,1554
1.8056,1552
1.8083,1569
1.8111,1567
1.8139,1572
1.8167,1579
1.8194,1580
1.8222,1567
1.8250,1574
1.8278,1573
1.8306,1576
1.8333,1578
1.8361,1578
1.8389,1577
1.8417,1572
1.8444,1575
1.8472,1577
1.8500,1585
1.8528,1571
1.8556,1565
1.8583,1571
1.8611,1578
1.8639,1578
1.8667,1589
1.8694,1593
1.8722,1596
1.8750,1594
1.8778,1574
1.8806,1578
1.8833,1582
1.8861,1593
1.8889,1591
1.8917,1579
1.8944,1577
1.8972,1567
1.9000,1564
1.9028,1565
1.9056,1566
1.9083,1577
1.9111,1580
1.9139,1585
1.9167,1575
1.9194,1558
1.9222,1553
1.9250,1548
1.9278,1562
1.9306,1565
1.9333,1560
1.9361,1551
1.9389,1551
1.9417,1555
1.9444,1562
1.9472,1576
1.9500,1580
1.9528,1578
1.9556,1572
1.9583,1565
1.9611,1568
1.9639,1577
1.9667,1582
1.9694,1583
1.9722,1575
1.9750,1573
1.9778,1571
1.9806,1565
1.9833,1571
1.9861,1576
1.9889,1580
1.9917,1586
1.9944,1584
1.9972,1588
2.0000,1592
2.0028,1580
2.0056,1582
2.0083,1589
2.0111,1585
2.0139,1588
2.0167,1578
2.0194,1588
2.0222,1600
2.0250,1611
2.0278,1623
2.0306,1629
2.0333,1634
2.0361,1631
2.0389,1628
2.0417,1633
2.0444,1639
2.0472,1663
2.0500,1698
2.0528,1735
2.0556,1756
2.0583,1756
2.0611,1719
2.0639,1698
2.0667,1669
2.0694,1647
2.0722,1640
2.0750,1640
2.0778,1638
2.0806,1638
2.0833,1618
2.0861,1615
2.0889,1600
2.0917,1576
2.0944,1567
2.0972,1560
2.1000,1576
2.1028,1582
2.1056,1590
2.1083,1593
2.1111,1587
2.1139,1589
2.1167,1579
2.1194,1571
2.1222,1570
2.1250,1576
2.1278,1586
2.1306,1592
2.1333,1595
2.1361,1597
2.1389,1604
2.1417,1602
2.1444,1601
2.1472,1601
2.1500,1605
2.1528,1608
2.1556,1597
2.1583,1601
2.1611,1602
2.1639,1608
2.1667,1615
2.1694,1611
2.1722,1599
2.1750,1603
2.1778,1601
2.1806,1602
2.1833,1598
2.1861,1583
2.1889,1552
2.1917,1550
2.1944,1613
2.1972,1752
2.2000,1936
2.2028,2157
2.2056,2407
2.2083,2670
2.2111,2960
2.2139,3267
2.2167,3353
2.2194,3368
2.2222,3373
2.2250,3357
2.2278,3115
2.2306,2651
2.2333,2192
2.2361,1914
2.2389,1770
2.2417,1682
2.2444,1634
2.2472,1595
2.2500,1554
2.2528,1521
2.2556,1492
2.2583,1483
2.2611,1470
2.2639,1461
2.2667,1455
2.2694,1473
2.2722,1480
2.2750,1480
2.2778,1479
2.2806,1463
2.2833,1453
2.2861,1462
2.2889,1473
2.2917,1478
2.2944,1489
2.2972,1496
2.3000,1494
2.3028,1495
2.3056,1486
2.3083,1501
2.3111,1520
2.3139,1538
2.3167,1544
2.3194,1548
2.3222,1528
2.3250,1530
2.3278,1535
2.3306,1545
2.3333,1551
2.3361,1551
2.3389,1555
2.3417,1550
2.3444,1550
2.3472,1547
2.3500,1562
2.3528,1574
2.3556,1583
2.3583,1580
2.3611,1578
2.3639,1580
2.3667,1579
2.3694,1601
2.3722,1617
2.3750,1621
2.3778,1629
2.3806,1622
2.3833,1613
2.3861,1604
2.3889,1608
2.3917,1613
2.3944,1626
2.3972,1634
2.4000,1636
2.4028,1643
2.4056,1655
2.4083,1668
2.4111,1688
2.4139,1705
2.4167,1706
2.4194,1703
2.4222,1699
2.4250,1717
2.4278,1670
2.4306,1674
2.4333,1684
2.4361,1686
2.4389,1666
2.4417,1651
2.4444,1638
2.4472,1643
2.4500,1638
2.4528,1643
2.4556,1651
2.4583,1642
2.4611,1631
2.4639,1613
2.4667,1618
2.4694,1625
2.4722,1627
2.4750,1626
2.4778,1627
2.4806,1614
2.4833,1613
2.4861,1607
2.4889,1606
2.4917,1617
2.4944,1627
2.4972,1627
2.5000,1601
2.5028,1595
2.5056,1596
2.5083,1605
2.5111,1614
2.5139,1620
2.5167,1612
2.5194,1615
2.5222,1597
2.5250,1598
2.5278,1603
2.5306,1604
2.5333,1619
2.5361,1630
2.5389,1625
2.5417,1629
2.5444,1618
2.5472,1620
2.5500,1625
2.5528,1638
2.5556,1644
2.5583,1649
2.5611,1643
2.5639,1636
2.5667,1626
2.5694,1634
2.5722,1640
2.5750,1648
2.5778,1646
2.5806,1642
2.5833,1640
2.5861,1652
2.5889,1653
2.5917,1657
2.5944,1658
2.5972,1658
2.6000,1660
2.6028,1670
2.6056,1677
2.6083,1693
2.6111,1705
2.6139,1716
2.6167,1717
2.6194,1704
2.6222,1696
2.6250,1680
2.6278,1688
2.6306,1692
2.6333,1695
2.6361,1700
2.6389,1700
2.6417,1683
2.6444,1674
2.6472,1667
2.6500,1646
2.6528,1645
2.6556,1640
2.6583,1637
2.6611,1623
2.6639,1614
2.6667,1566
2.6694,1514
2.6722,1465
2.6750,1441
2.6778,1444
2.6806,1457
2.6833,1466
2.6861,1502
2.6889,1535
2.6917,1555
2.6944,1565
2.6972,1571
2.7000,1576
2.7028,1588
2.7056,1607
2.7083,1621
2.7111,1640
2.7139,1647
2.7167,1644
2.7194,1631
2.7222,1622
2.7250,1620
2.7278,1615
2.7306,1634
2.7333,1645
2.7361,1670
2.7389,1667
2.7417,1658
2.7444,1653
2.7472,1637
2.7500,1626
2.7528,1628
2.7556,1629
2.7583,1639
2.7611,1650
2.7639,1658
2.7667,1654
2.7694,1652
2.7722,1652
2.7750,1674
2.7778,1678
2.7806,1676
2.7833,1668
2.7861,1670
2.7889,1668
2.7917,1668
2.7944,1687
2.7972,1699
2.8000,1699
2.8028,1699
2.8056,1709
2.8083,1707
2.8111,1702
2.8139,1700
2.8167,1696
2.8194,1701
2.8222,1703
2.8250,1707
2.8278,1704
2.8306,1711
2.8333,1722
2.8361,1732
2.8389,1730
2.8417,1734
2.8444,1738
2.8472,1733
2.8500,1732
2.8528,1728
2.8556,1740
2.8583,1748
2.8611,1764
2.8639,1809
2.8667,1839
2.8694,1871
2.8722,1857
2.8750,1839
2.8778,1802
2.8806,1769
2.8833,1741
2.8861,1730
2.8889,1723
2.8917,1721
2.8944,1709
2.8972,1701
2.9000,1691
2.9028,1669
2.9056,1649
2.9083,1662
2.9111,1666
2.9139,1680
2.9167,1688
2.9194,1684
2.9222,1684
2.9250,1677
2.9278,1661
2.9306,1662
2.9333,1665
2.9361,1671
2.9389,1680
2.9417,1668
2.9444,1671
2.9472,1680
2.9500,1672
2.9528,1674
2.9556,1660
2.9583,1653
2.9611,1656
2.9639,1651
2.9667,1648
2.9694,1665
2.9722,1673
2.9750,1676
2.9778,1674
2.9806,1674
2.9833,1671
2.9861,1665
2.9889,1662
2.9917,1676
2.9944,1679
2.9972,1674
3.0000,1653
3.0028,1610
3.0056,1585
3.0083,1614
3.0111,1735
3.0139,1927
3.0167,2136
3.0194,2369
3.0222,2625
3.0250,2915
3.0278,3225
3.0306,3362
3.0333,3376
3.0361,3364
3.0389,3369
3.0417,3323
3.0444,2968
3.0472,2467
3.0500,2080
3.0528,1836
3.0556,1717
3.0583,1647
3.0611,1611
3.0639,1596
3.0667,1574
3.0694,1567
3.0722,1550
3.0750,1527
3.0778,1497
3.0806,1484
3.0833,1485
3.0861,1507
3.0889,1518
3.0917,1529
3.0944,1529
3.0972,1512
3.1000,1510
3.1028,1499
3.1056,1503
3.1083,1517
3.1111,1535
3.1139,1537
3.1167,1549
3.1194,1541
3.1222,1531
3.1250,1535
3.1278,1553
3.1306,1560
3.1333,1562
3.1361,1568
3.1389,1565
3.1417,1572
3.1444,1585
3.1472,1595
3.1500,1614
3.1528,1616
3.1556,1602
3.1583,1599
3.1611,1593
3.1639,1603
3.1667,1620
3.1694,1642
3.1722,1657
3.1750,1656
3.1778,1653
3.1806,1651
3.1833,1652
3.1861,1661
3.1889,1656
3.1917,1664
3.1944,1670
3.1972,1665
3.2000,1673
3.2028,1667
3.2056,1674
3.2083,1682
3.2111,1702
3.2139,1713
3.2167,1716
3.2194,1719
3.2222,1725
3.2250,1744
3.2278,1751
3.2306,1761
3.2333,1761
3.2361,1768
3.2389,1774
3.2417,1790
3.2444,1752
3.2472,1760
3.2500,1754
3.2528,1741
3.2556,1720
3.2583,1701
3.2611,1694
3.2639,1701
3.2667,1710
3.2694,1707
3.2722,1709
3.2750,1698
3.2778,1690
3.2806,1669
3.2833,1666
3.2861,1668
3.2889,1680
3.2917,1687
3.2944,1687
3.2972,1683
3.3000,1677
3.3028,1682
3.3056,1692
3.3083,1693
3.3111,1699
3.3139,1701
3.3167,1692
3.3194,1684
3.3222,1676
3.3250,1686
3.3278,1691
3.3306,1695
3.3333,1690
3.3361,1684
3.3389,1673
3.3417,1674
3.3444,1675
3.3472,1688
3.3500,1700
3.3528,1709
3.3556,1697
3.3583,1702
3.3611,1701
3.3639,1693
3.3667,1690
3.3694,1690
3.3722,1690
3.3750,1680
3.3778,1680
3.3806,1690
3.3833,1709
3.3861,1721
3.3889,1736
3.3917,1736
3.3944,1739
3.3972,1731
3.4000,1717
3.4028,1716
3.4056,1727
3.4083,1738
3.4111,1754
3.4139,1757
3.4167,1746
3.4194,1733
3.4222,1741
3.4250,1743
3.4278,1746
3.4306,1747
3.4333,1743
3.4361,1750
3.4389,1755
3.4417,1759
3.4444,1768
3.4472,1773
3.4500,1787
3.4528,1786
3.4556,1779
3.4583,1761
3.4611,1766
3.4639,1760
3.4667,1765
3.4694,1762
3.4722,1767
3.4750,1771
3.4778,1782
3.4806,1790
3.4833,1780
3.4861,1777
3.4889,1786
3.4917,1781
3.4944,1780
3.4972,1775
3.5000,1775
3.5028,1775
3.5056,1770
3.5083,1781
3.5111,1786
3.5139,1781
3.5167,1772
3.5194,1767
3.5222,1759
3.5250,1767
3.5278,1772
3.5306,1783
3.5333,1780
3.5361,1781
3.5389,1776
3.5417,1768
3.5444,1784
3.5472,1794
3.5500,1814
3.5528,1814
3.5556,1806
3.5583,1812
3.5611,1805
3.5639,1803
3.5667,1790
3.5694,1803
3.5722,1816
3.5750,1814
3.5778,1799
3.5806,1808
3.5833,1801
3.5861,1804
3.5889,1814
3.5917,1808
3.5944,1820
3.5972,1824
3.6000,1820
3.6028,1826
3.6056,1839
3.6083,1835
3.6111,1827
3.6139,1827
3.6167,1823
3.6194,1840
3.6222,1841
3.6250,1842
3.6278,1847
3.6306,1847
3.6333,1844
3.6361,1843
3.6389,1835
3.6417,1839
3.6444,1828
3.6472,1834
3.6500,1834
3.6528,1842
3.6556,1844
3.6583,1849
3.6611,1846
3.6639,1830
3.6667,1831
3.6694,1822
3.6722,1825
3.6750,1822
3.6778,1824
3.6806,1830
3.6833,1842
3.6861,1856
3.6889,1856
3.6917,1863
3.6944,1862
3.6972,1866
3.7000,1890
3.7028,1906
3.7056,1928
3.7083,1950
3.7111,1969
3.7139,1986
3.7167,1965
3.7194,1945
3.7222,1910
3.7250,1896
3.7278,1878
3.7306,1868
3.7333,1860
3.7361,1854
3.7389,1840
3.7417,1841
3.7444,1821
3.7472,1812
3.7500,1808
3.7528,1821
3.7556,1828
3.7583,1832
3.7611,1817
3.7639,1809
3.7667,1792
3.7694,1795
3.7722,1802
3.7750,1811
3.7778,1813
3.7806,1803
3.7833,1808
3.7861,1803
3.7889,1809
3.7917,1823
3.7944,1821
3.7972,1819
3.8000,1826
3.8028,1829
3.8056,1830
3.8083,1826
3.8111,1831
3.8139,1835
3.8167,1835
3.8194,1834
3.8222,1843
3.8250,1850
3.8278,1852
3.8306,1849
3.8333,1838
3.8361,1824
3.8389,1809
3.8417,1782
3.8444,1760
3.8472,1754
3.8500,1846
3.8528,2000
3.8556,2199
3.8583,2422
3.8611,2664
3.8639,2939
3.8667,3225
3.8694,3356
3.8722,3365
3.8750,3367
3.8778,3366
3.8806,3368
3.8833,3272
3.8861,2869
3.8889,2436
3.8917,2117
3.8944,1947
3.8972,1848
3.9000,1783
3.9028,1747
3.9056,1719
3.9083,1697
3.9111,1692
3.9139,1681
3.9167,1660
3.9194,1632
3.9222,1616
3.9250,1612
3.9278,1617
3.9306,1646
3.9333,1652
3.9361,1646
3.9389,1626
3.9417,1610
3.9444,1610
3.9472,1622
3.9500,1644
3.9528,1653
3.9556,1664
3.9583,1662
3.9611,1653
3.9639,1644
3.9667,1663
3.9694,1673
3.9722,1683
3.9750,1690
3.9778,1686
3.9806,1680
3.9833,1672
3.9861,1693
3.9889,1715
3.9917,1712
3.9944,1711
3.9972,1712
4.0000,1704
4.0028,1702
4.0056,1721
4.0083,1731
4.0111,1737
4.0139,1751
4.0167,1746
4.0194,1745
4.0222,1745
4.0250,1747
4.0278,1764
4.0306,1776
4.0333,1776
4.0361,1783
4.0389,1784
4.0417,1781
4.0444,1775
4.0472,1783
4.0500,1795
4.0528,1808
4.0556,1816
4.0583,1825
4.0611,1822
4.0639,1835
4.0667,1837
4.0694,1860
4.0722,1870
4.0750,1867
4.0778,1864
4.0806,1857
4.0833,1852
4.0861,1797
4.0889,1799
4.0917,1797
4.0944,1788
4.0972,1775
4.1000,1763
4.1028,1755
4.1056,1751
4.1083,1755
4.1111,1756
4.1139,1749
4.1167,1737
4.1194,1732
4.1222,1728
4.1250,1717
4.1278,1715
4.1306,1712
4.1333,1702
4.1361,1697
4.1389,1694
4.1417,1690
4.1444,1696
4.1472,1703
4.1500,1709
4.1528,1713
4.1556,1702
4.1583,1697
4.1611,1707
4.1639,1696
4.1667,1709
4.1694,1720
4.1722,1727
4.1750,1720
4.1778,1705
4.1806,1690
4.1833,1684
4.1861,1680
4.1889,1691
4.1917,1697
4.1944,1703
4.1972,1699
4.2000,1700
4.2028,1714
4.2056,1710
4.2083,1710
4.2111,1721
4.2139,1718
4.2167,1715
4.2194,1699
4.2222,1702
4.2250,1706
4.2278,1711
4.2306,1723
4.2333,1741
4.2361,1754
4.2389,1751
4.2417,1754
4.2444,1759
4.2472,1772
4.2500,1769
4.2528,1763
4.2556,1753
4.2583,1745
4.2611,1741
4.2639,1744
4.2667,1750
4.2694,1754
4.2722,1757
4.2750,1745
4.2778,1743
4.2806,1722
4.2833,1734
4.2861,1742
4.2889,1745
4.2917,1751
4.2944,1740
4.2972,1733
4.3000,1730
4.3028,1727
4.3056,1720
4.3083,1715
4.3111,1718
4.3139,1722
4.3167,1711
4.3194,1723
4.3222,1721
4.3250,1731
4.3278,1731
4.3306,1737
4.3333,1732
4.3361,1725
4.3389,1710
4.3417,1704
4.3444,1701
4.3472,1698
4.3500,1701
4.3528,1707
4.3556,1714
4.3583,1718
4.3611,1719
4.3639,1713
4.3667,1706
4.3694,1694
4.3722,1693
4.3750,1696
4.3778,1695
4.3806,1702
4.3833,1703
4.3861,1710
4.3889,1710
4.3917,1701
4.3944,1699
4.3972,1698
4.4000,1701
4.4028,1700
4.4056,1703
4.4083,1707
4.4111,1703
4.4139,1694
4.4167,1692
4.4194,1689
4.4222,1697
4.4250,1705
4.4278,1706
4.4306,1693
4.4333,1691
4.4361,1694
4.4389,1687
4.4417,1687
4.4444,1677
4.4472,1673
4.4500,1685
4.4528,1693
4.4556,1699
4.4583,1701
4.4611,1696
4.4639,1700
4.4667,1694
4.4694,1700
4.4722,1697
4.4750,1696
4.4778,1695
4.4806,1708
4.4833,1716
4.4861,1720
4.4889,1733
4.4917,1741
4.4944,1744
4.4972,1746
4.5000,1758
4.5028,1772
4.5056,1800
4.5083,1806
4.5111,1813
4.5139,1802
4.5167,1779
4.5194,1750
4.5222,1735
4.5250,1732
4.5278,1718
4.5306,1695
4.5333,1683
4.5361,1675
4.5389,1650
4.5417,1649
4.5444,1628
4.5472,1638
4.5500,1635
4.5528,1639
4.5556,1641
4.5583,1636
4.5611,1630
4.5639,1627
4.5667,1625
4.5694,1633
4.5722,1634
4.5750,1635
4.5778,1633
4.5806,1627
4.5833,1615
4.5861,1619
4.5889,1635
4.5917,1642
4.5944,1651
4.5972,1655
4.6000,1660
4.6028,1658
4.6056,1650
4.6083,1649
4.6111,1639
4.6139,1636
4.6167,1647
4.6194,1654
4.6222,1658
4.6250,1665
4.6278,1674
4.6306,1674
4.6333,1676
4.6361,1666
4.6389,1649
4.6417,1606
4.6444,1592
4.6472,1663
4.6500,1803
4.6528,2003
4.6556,2217
4.6583,2436
4.6611,2695
4.6639,2986
4.6667,3284
4.6694,3365
4.6722,3366
4.6750,3373
4.6778,3367
4.6806,3110
4.6833,2628
4.6861,2199
4.6889,1933
4.6917,1802
4.6944,1740
4.6972,1695
4.7000,1638
4.7028,1601
4.7056,1567
4.7083,1525
4.7111,1491
4.7139,1473
4.7167,1466
4.7194,1467
4.7222,1480
4.7250,1494
4.7278,1497
4.7306,1485
4.7333,1475
4.7361,1469
4.7389,1472
4.7417,1489
4.7444,1503
4.7472,1506
4.7500,1508
4.7528,1503
4.7556,1497
4.7583,1498
4.7611,1491
4.7639,1495
4.7667,1492
4.7694,1501
4.7722,1506
4.7750,1503
4.7778,1507
4.7806,1508
4.7833,1515
4.7861,1531
4.7889,1552
4.7917,1550
4.7944,1547
4.7972,1528
4.8000,1535
4.8028,1547
4.8056,1562
4.8083,1571
4.8111,1576
4.8139,1564
4.8167,1557
4.8194,1555
4.8222,1568
4.8250,1585
4.8278,1599
4.8306,1602
4.8333,1605
4.8361,1598
4.8389,1590
4.8417,1600
4.8444,1622
4.8472,1631
4.8500,1636
4.8528,1638
4.8556,1633
4.8583,1634
4.8611,1649
4.8639,1665
4.8667,1675
4.8694,1680
4.8722,1698
4.8750,1701
4.8778,1711
4.8806,1660
4.8833,1666
4.8861,1662
4.8889,1657
4.8917,1644
4.8944,1624
4.8972,1611
4.9000,1610
4.9028,1595
4.9056,1581
4.9083,1578
4.9111,1573
4.9139,1559
4.9167,1553
4.9194,1551
4.9222,1555
4.9250,1562
4.9278,1560
4.9306,1551
4.9333,1531
4.9361,1524
4.9389,1531
4.9417,1535
4.9444,1552
4.9472,1574
4.9500,1582
4.9528,1579
4.9556,1566
4.9583,1564
4.9611,1565
4.9639,1559
4.9667,1569
4.9694,1573
4.9722,1573
4.9750,1569
4.9778,1564
4.9806,1569
4.9833,1582
4.9861,1597
4.9889,1593
4.9917,1596
4.9944,1586
4.9972,1582
5.0000,1566
5.0028,1560
5.0056,1576
5.0083,1579
5.0111,1577
5.0139,1578
5.0167,1582
5.0194,1591
5.0222,1603
5.0250,1615
5.0278,1616
5.0306,1606
5.0333,1598
5.0361,1594
5.0389,1599
5.0417,1592
5.0444,1608
5.0472,1618
5.0500,1637
5.0528,1638
5.0556,1638
5.0583,1642
5.0611,1631
5.0639,1627
5.0667,1627
5.0694,1624
5.0722,1628
5.0750,1623
5.0778,1619
5.0806,1621
5.0833,1616
5.0861,1615
5.0889,1620
5.0917,1628
5.0944,1633
5.0972,1628
5.1000,1636
5.1028,1633
5.1056,1628
5.1083,1618
5.1111,1619
5.1139,1618
5.1167,1605
5.1194,1604
5.1222,1606
5.1250,1610
5.1278,1619
5.1306,1613
5.1333,1595
5.1361,1601
5.1389,1613
5.1417,1612
5.1444,1632
5.1472,1635
5.1500,1631
5.1528,1626
5.1556,1613
5.1583,1607
5.1611,1603
5.1639,1604
5.1667,1615
5.1694,1625
5.1722,1613
5.1750,1620
5.1778,1630
5.1806,1630
5.1833,1632
5.1861,1618
5.1889,1612
5.1917,1603
5.1944,1603
5.1972,1607
5.2000,1614
5.2028,1616
5.2056,1601
5.2083,1614
5.2111,1616
5.2139,1609
5.2167,1602
5.2194,1616
5.2222,1617
5.2250,1628
5.2278,1634
5.2306,1636
5.2333,1630
5.2361,1610
5.2389,1615
5.2417,1618
5.2444,1634
5.2472,1649
5.2500,1652
5.2528,1649
5.2556,1653
5.2583,1649
5.2611,1650
5.2639,1647
5.2667,1645
5.2694,1635
5.2722,1640
5.2750,1639
5.2778,1640
5.2806,1641
5.2833,1646
5.2861,1661
5.2889,1671
5.2917,1670
5.2944,1673
5.2972,1681
5.3000,1669
5.3028,1669
5.3056,1666
5.3083,1671
5.3111,1671
5.3139,1684
5.3167,1710
5.3194,1732
5.3222,1778
5.3250,1806
5.3278,1794
5.3306,1777
5.3333,1753
5.3361,1730
5.3389,1706
5.3417,1691
5.3444,1680
5.3472,1678
5.3500,1663
5.3528,1656
5.3556,1648
5.3583,1643
5.3611,1643
5.3639,1635
5.3667,1631
5.3694,1640
5.3722,1640
5.3750,1640
5.3778,1625
5.3806,1619
5.3833,1622
5.3861,1621
5.3889,1627
5.3917,1630
5.3944,1630
5.3972,1637
5.4000,1634
5.4028,1632
5.4056,1623
5.4083,1626
5.4111,1633
5.4139,1632
5.4167,1646
5.4194,1654
5.4222,1658
5.4250,1657
5.4278,1647
5.4306,1652
5.4333,1653
5.4361,1644
5.4389,1646
5.4417,1649
5.4444,1655
5.4472,1662
5.4500,1665
5.4528,1659
5.4556,1628
5.4583,1592
5.4611,1572
5.4639,1627
5.4667,1761
5.4694,1953
5.4722,2181
5.4750,2414
5.4778,2674
5.4806,2944
5.4833,3242
5.4861,3355
5.4889,3365
5.4917,3363
5.4944,3366
5.4972,3274
5.5000,2856
5.5028,2370
5.5056,2019
5.5083,1822
5.5111,1730
5.5139,1676
5.5167,1638
5.5194,1605
5.5222,1587
5.5250,1571
5.5278,1535
5.5306,1514
5.5333,1495
5.5361,1488
5.5389,1499
5.5417,1492
5.5444,1497
5.5472,1503
5.5500,1491
5.5528,1485
5.5556,1477
5.5583,1473
5.5611,1489
5.5639,1512
5.5667,1515
5.5694,1517
5.5722,1500
5.5750,1488
5.5778,1489
5.5806,1496
5.5833,1507
5.5861,1511
5.5889,1529
5.5917,1515
5.5944,1508
5.5972,1520
5.6000,1524
5.6028,1551
5.6056,1562
5.6083,1555
5.6111,1557
5.6139,1555
5.6167,1562
5.6194,1581
5.6222,1592
5.6250,1592
5.6278,1591
5.6306,1588
5.6333,1583
5.6361,1577
5.6389,1582
5.6417,1586
5.6444,1598
5.6472,1626
5.6500,1636
5.6528,1641
5.6556,1649
5.6583,1658
5.6611,1661
5.6639,1675
5.6667,1688
5.6694,1692
5.6722,1688
5.6750,1680
5.6778,1675
5.6806,1681
5.6833,1704
5.6861,1719
5.6889,1736
5.6917,1754
5.6944,1759
5.6972,1754
5.7000,1727
5.7028,1727
5.7056,1722
5.7083,1704
5.7111,1678
5.7139,1655
5.7167,1649
5.7194,1657
5.7222,1673
5.7250,1672
5.7278,1664
5.7306,1651
5.7333,1642
5.7361,1631
5.7389,1625
5.7417,1633
5.7444,1627
5.7472,1632
5.7500,1627
5.7528,1616
5.7556,1607
5.7583,1631
5.7611,1638
5.7639,1642
5.7667,1638
5.7694,1634
5.7722,1629
5.7750,1620
5.7778,1629
5.7806,1644
5.7833,1641
5.7861,1651
5.7889,1648
5.7917,1640
5.7944,1631
5.7972,1646
5.8000,1651
5.8028,1644
5.8056,1644
5.8083,1650
5.8111,1642
5.8139,1631
5.8167,1627
5.8194,1621
5.8222,1627
5.8250,1631
5.8278,1630
5.8306,1614
5.8333,1617
5.8361,1618
5.8389,1623
5.8417,1624
5.8444,1627
5.8472,1629
5.8500,1633
5.8528,1634
5.8556,1634
5.8583,1632
5.8611,1638
5.8639,1636
5.8667,1636
5.8694,1644
5.8722,1649
5.8750,1653
5.8778,1663
5.8806,1669
5.8833,1676
5.8861,1686
5.8889,1683
5.8917,1686
5.8944,1683
5.8972,1666
5.9000,1651
5.9028,1644
5.9056,1658
5.9083,1677
5.9111,1689
5.9139,1682
5.9167,1684
5.9194,1682
5.9222,1677
5.9250,1681
5.9278,1672
5.9306,1663
5.9333,1652
5.9361,1648
5.9389,1653
5.9417,1654
5.9444,1661
5.9472,1656
5.9500,1671
5.9528,1670
5.9556,1676
5.9583,1674
5.9611,1659
5.9639,1652
5.9667,1646
5.9694,1657
5.9722,1655
5.9750,1657
5.9778,1672
5.9806,1678
5.9833,1677
5.9861,1678
5.9889,1677
5.9917,1681
5.9944,1681
5.9972,1683
6.0000,1664
6.0028,1670
6.0056,1677
6.0083,1678
6.0111,1688
6.0139,1686
6.0167,1689
6.0194,1686
6.0222,1686
6.0250,1688
6.0278,1681
6.0306,1675
6.0333,1687
6.0361,1688
6.0389,1691
6.0417,1686
6.0444,1668
6.0472,1661
6.0500,1655
6.0528,1651
6.0556,1658
6.0583,1664
6.0611,1679
6.0639,1699
6.0667,1701
6.0694,1692
6.0722,1682
6.0750,1684
6.0778,1681
6.0806,1698
6.0833,1706
6.0861,1709
6.0889,1700
6.0917,1696
6.0944,1684
6.0972,1677
6.1000,1677
6.1028,1693
6.1056,1700
6.1083,1696
6.1111,1701
6.1139,1689
6.1167,1687
6.1194,1681
6.1222,1687
6.1250,1696
6.1278,1697
6.1306,1704
6.1333,1716
6.1361,1738
6.1389,1765
6.1417,1790
6.1444,1787
6.1472,1764
6.1500,1729
6.1528,1714
6.1556,1691
6.1583,1670
6.1611,1663
6.1639,1659
6.1667,1659
6.1694,1648
6.1722,1645
6.1750,1631
6.1778,1642
6.1806,1648
6.1833,1659
6.1861,1671
6.1889,1658
6.1917,1647
6.1944,1637
6.1972,1646
6.2000,1647
6.2028,1657
6.2056,1660
6.2083,1647
6.2111,1644
6.2139,1635
6.2167,1623
6.2194,1630
6.2222,1642
6.2250,1656
6.2278,1665
6.2306,1669
6.2333,1659
6.2361,1665
6.2389,1664
6.2417,1654
6.2444,1646
6.2472,1657
6.2500,1651
6.2528,1653
6.2556,1652
6.2583,1648
6.2611,1641
6.2639,1635
6.2667,1632
6.2694,1616
6.2722,1584
6.2750,1564
6.2778,1623
6.2806,1760
6.2833,1959
6.2861,2197
6.2889,2440
6.2917,2706
6.2944,3008
6.2972,3305
6.3000,3357
6.3028,3363
6.3056,3372
6.3083,3368
6.3111,3238
6.3139,2801
6.3167,2339
6.3194,1995
6.3222,1784
6.3250,1682
6.3278,1628
6.3306,1601
6.3333,1578
6.3361,1563
6.3389,1551
6.3417,1523
6.3444,1502
6.3472,1468
6.3500,1442
6.3528,1431
6.3556,1436
6.3583,1446
6.3611,1455
6.3639,1456
6.3667,1448
6.3694,1443
6.3722,1455
6.3750,1466
6.3778,1473
6.3806,1474
6.3833,1463
6.3861,1449
6.3889,1443
6.3917,1445
6.3944,1445
6.3972,1459
6.4000,1464
6.4028,1469
6.4056,1464
6.4083,1455
6.4111,1461
6.4139,1459
6.4167,1462
6.4194,1481
6.4222,1497
6.4250,1496
6.4278,1504
6.4306,1505
6.4333,1502
6.4361,1511
6.4389,1515
6.4417,1505
6.4444,1507
6.4472,1497
6.4500,1500
6.4528,1511
6.4556,1524
6.4583,1549
6.4611,1562
6.4639,1571
6.4667,1581
6.4694,1580
6.4722,1574
6.4750,1592
6.4778,1588
6.4806,1593
6.4833,1600
6.4861,1603
6.4889,1601
6.4917,1598
6.4944,1612
6.4972,1627
6.5000,1639
6.5028,1650
6.5056,1657
6.5083,1671
6.5111,1693
6.5139,1663
6.5167,1658
6.5194,1662
6.5222,1653
6.5250,1635
6.5278,1628
6.5306,1616
6.5333,1605
6.5361,1603
6.5389,1605
6.5417,1595
6.5444,1590
6.5472,1579
6.5500,1570
6.5528,1562
6.5556,1567
6.5583,1565
6.5611,1563
6.5639,1557
6.5667,1550
6.5694,1541
6.5722,1546
6.5750,1557
6.5778,1564
6.5806,1569
6.5833,1569
6.5861,1570
6.5889,1563
6.5917,1571
6.5944,1584
6.5972,1587
6.6000,1576
6.6028,1556
6.6056,1550
6.6083,1545
6.6111,1552
6.6139,1571
6.6167,1573
6.6194,1587
6.6222,1600
6.6250,1613
6.6278,1608
6.6306,1604
6.6333,1601
6.6361,1607
6.6389,1603
6.6417,1608
6.6444,1601
6.6472,1609
6.6500,1615
6.6528,1618
6.6556,1618
6.6583,1609
6.6611,1606
6.6639,1613
6.6667,1616
6.6694,1617
6.6722,1625
6.6750,1631
6.6778,1645
6.6806,1649
6.6833,1645
6.6861,1640
6.6889,1636
6.6917,1638
6.6944,1644
6.6972,1645
6.7000,1637
6.7028,1641
6.7056,1645
6.7083,1631
6.7111,1626
6.7139,1622
6.7167,1641
6.7194,1644
6.7222,1645
6.7250,1646
6.7278,1642
6.7306,1644
6.7333,1647
6.7361,1649
6.7389,1643
6.7417,1640
6.7444,1637
6.7472,1636
6.7500,1627
6.7528,1627
6.7556,1631
6.7583,1645
6.7611,1644
6.7639,1635
6.7667,1631
6.7694,1620
6.7722,1638
6.7750,1636
6.7778,1644
6.7806,1643
6.7833,1652
6.7861,1644
6.7889,1631
6.7917,1629
6.7944,1638
6.7972,1636
6.8000,1634
6.8028,1639
6.8056,1642
6.8083,1637
6.8111,1636
6.8139,1621
6.8167,1624
6.8194,1636
6.8222,1648
6.8250,1657
6.8278,1653
6.8306,1649
6.8333,1655
6.8361,1649
6.8389,1650
6.8417,1651
6.8444,1645
6.8472,1643
6.8500,1638
6.8528,1638
6.8556,1657
6.8583,1667
6.8611,1677
6.8639,1681
6.8667,1662
6.8694,1649
6.8722,1638
6.8750,1633
6.8778,1641
6.8806,1650
6.8833,1661
6.8861,1671
6.8889,1678
6.8917,1680
6.8944,1685
6.8972,1678
6.9000,1673
6.9028,1674
6.9056,1680
6.9083,1666
6.9111,1658
6.9139,1663
6.9167,1649
6.9194,1652
6.9222,1653
6.9250,1655
6.9278,1675
6.9306,1686
6.9333,1693
6.9361,1701
6.9389,1696
6.9417,1695
6.9444,1694
6.9472,1685
6.9500,1686
6.9528,1700
6.9556,1730
6.9583,1761
6.9611,1792
6.9639,1822
6.9667,1836
6.9694,1825
6.9722,1814
6.9750,1788
6.9778,1771
6.9806,1745
6.9833,1729
6.9861,1712
6.9889,1702
6.9917,1695
6.9944,1697
6.9972,1686
7.0000,1676
7.0028,1663
7.0056,1646
7.0083,1659
7.0111,1663
7.0139,1667
7.0167,1669
7.0194,1665
7.0222,1671
7.0250,1665
7.0278,1669
7.0306,1680
7.0333,1689
7.0361,1702
7.0389,1699
7.0417,1698
7.0444,1680
7.0472,1683
7.0500,1684
7.0528,1692
7.0556,1694
7.0583,1704
7.0611,1700
7.0639,1698
7.0667,1699
7.0694,1710
7.0722,1712
7.0750,1709
7.0778,1714
7.0806,1713
7.0833,1699
7.0861,1699
7.0889,1688
7.0917,1680
7.0944,1661
7.0972,1636
7.1000,1610
7.1028,1676
7.1056,1802
7.1083,1980
7.1111,2178
7.1139,2406
7.1167,2658
7.1194,2936
7.1222,3240
7.1250,3365
7.1278,3364
7.1306,3362
7.1333,3357
7.1361,3131
7.1389,2671
7.1417,2220
7.1444,1930
7.1472,1802
7.1500,1718
7.1528,1675
7.1556,1640
7.1583,1620
7.1611,1603
7.1639,1584
7.1667,1568
7.1694,1530
7.1722,1510
7.1750,1499
7.1778,1507
7.1806,1530
7.1833,1549
7.1861,1551
7.1889,1545
7.1917,1531
7.1944,1524
7.1972,1528
7.2000,1544
7.2028,1556
7.2056,1557
7.2083,1546
7.2111,1534
7.2139,1543
7.2167,1539
7.2194,1552
7.2222,1571
7.2250,1583
7.2278,1579
7.2306,1574
7.2333,1578
7.2361,1573
7.2389,1583
7.2417,1595
7.2444,1603
7.2472,1598
7.2500,1594
7.2528,1585
7.2556,1593
7.2583,1612
7.2611,1625
7.2639,1634
7.2667,1637
7.2694,1636
7.2722,1634
7.2750,1640
7.2778,1644
7.2806,1647
7.2833,1655
7.2861,1657
7.2889,1664
7.2917,1662
7.2944,1670
7.2972,1676
7.3000,1694
7.3028,1710
7.3056,1718
7.3083,1728
7.3111,1719
7.3139,1728
7.3167,1726
7.3194,1736
7.3222,1749
7.3250,1767
7.3278,1774
7.3306,1789
7.3333,1798
7.3361,1746
7.3389,1745
7.3417,1760
7.3444,1747
7.3472,1738
7.3500,1721
7.3528,1701
7.3556,1693
7.3583,1693
7.3611,1688
7.3639,1673
7.3667,1666
7.3694,1655
7.3722,1655
7.3750,1651
7.3778,1656
7.3806,1652
7.3833,1645
7.3861,1636
7.3889,1627
7.3917,1616
7.3944,1618
7.3972,1608
7.4000,1624
7.4028,1626
7.4056,1629
7.4083,1618
7.4111,1616
7.4139,1613
7.4167,1629
7.4194,1633
7.4222,1635
7.4250,1628
7.4278,1618
7.4306,1597
7.4333,1600
7.4361,1610
7.4389,1631
7.4417,1630
7.4444,1631
7.4472,1629
7.4500,1624
7.4528,1624
7.4556,1634
7.4583,1646
7.4611,1656
7.4639,1657
7.4667,1659
7.4694,1661
7.4722,1649
7.4750,1662
7.4778,1648
7.4806,1654
7.4833,1654
7.4861,1656
7.4889,1670
7.4917,1672
7.4944,1669
7.4972,1681
7.5000,1688
7.5028,1691
7.5056,1698
7.5083,1682
7.5111,1674
7.5139,1677
7.5167,1686
7.5194,1693
7.5222,1696
7.5250,1700
7.5278,1700
7.5306,1688
7.5333,1688
7.5361,1678
7.5389,1685
7.5417,1687
7.5444,1681
7.5472,1675
7.5500,1666
7.5528,1668
7.5556,1667
7.5583,1678
7.5611,1679
7.5639,1678
7.5667,1679
7.5694,1678
7.5722,1684
7.5750,1678
7.5778,1675
7.5806,1666
7.5833,1666
7.5861,1672
7.5889,1675
7.5917,1669
7.5944,1667
7.5972,1669
7.6000,1674
7.6028,1682
7.6056,1673
7.6083,1667
7.6111,1665
7.6139,1670
7.6167,1669
7.6194,1676
7.6222,1664
7.6250,1669
7.6278,1669
7.6306,1675
7.6333,1685
7.6361,1677
7.6389,1663
7.6417,1665
7.6444,1673
7.6472,1676
7.6500,1683
7.6528,1683
7.6556,1688
7.6583,1688
7.6611,1682
7.6639,1674
7.6667,1686
7.6694,1691
7.6722,1697
7.6750,1705
7.6778,1703
7.6806,1705
7.6833,1703
7.6861,1695
7.6889,1685
7.6917,1677
7.6944,1684
7.6972,1689
7.7000,1695
7.7028,1698
7.7056,1699
7.7083,1700
7.7111,1688
7.7139,1697
7.7167,1704
7.7194,1705
7.7222,1703
7.7250,1707
7.7278,1695
7.7306,1695
7.7333,1690
7.7361,1681
7.7389,1679
7.7417,1691
7.7444,1697
7.7472,1704
7.7500,1712
7.7528,1713
7.7556,1714
7.7583,1725
7.7611,1732
7.7639,1745
7.7667,1760
7.7694,1770
7.7722,1782
7.7750,1810
7.7778,1818
7.7806,1825
7.7833,1809
7.7861,1793
7.7889,1779
7.7917,1760
7.7944,1742
7.7972,1735
7.8000,1716
7.8028,1708
7.8056,1702
7.8083,1690
7.8111,1680
7.8139,1672
7.8167,1660
7.8194,1640
7.8222,1650
7.8250,1650
7.8278,1653
7.8306,1652
7.8333,1651
7.8361,1652
7.8389,1654
7.8417,1658
7.8444,1668
7.8472,1653
7.8500,1647
7.8528,1648
7.8556,1644
7.8583,1646
7.8611,1642
7.8639,1639
7.8667,1642
7.8694,1638
7.8722,1636
7.8750,1635
7.8778,1648
7.8806,1649
7.8833,1654
7.8861,1656
7.8889,1654
7.8917,1662
7.8944,1665
7.8972,1671
7.9000,1663
7.9028,1644
7.9056,1622
7.9083,1609
7.9111,1565
7.9139,1560
7.9167,1633
7.9194,1768
7.9222,1964
7.9250,2191
7.9278,2429
7.9306,2700
7.9333,2995
7.9361,3295
7.9389,3355
7.9417,3369
7.9444,3378
7.9472,3362
7.9500,3167
7.9528,2713
7.9556,2254
7.9583,1958
7.9611,1801
7.9639,1719
7.9667,1664
7.9694,1620
7.9722,1597
7.9750,1583
7.9778,1586
7.9806,1568
7.9833,1555
7.9861,1530
7.9889,1516
7.9917,1510
7.9944,1514
7.9972,1516
8.0000,1522
8.0028,1508
8.0056,1502
8.0083,1505
8.0111,1509
8.0139,1524
8.0167,1544
8.0194,1540
8.0222,1535
8.0250,1521
8.0278,1520
8.0306,1540
8.0333,1546
8.0361,1561
8.0389,1555
8.0417,1547
8.0444,1540
8.0472,1541
8.0500,1549
8.0528,1569
8.0556,1577
8.0583,1574
8.0611,1580
8.0639,1573
8.0667,1567
8.0694,1562
8.0722,1569
8.0750,1587
8.0778,1603
8.0806,1605
8.0833,1599
8.0861,1595
8.0889,1602
8.0917,1594
8.0944,1604
8.0972,1617
8.1000,1637
8.1028,1650
8.1056,1639
8.1083,1641
8.1111,1643
8.1139,1656
8.1167,1670
8.1194,1693
8.1222,1691
8.1250,1695
8.1278,1692
8.1306,1704
8.1333,1717
8.1361,1743
8.1389,1762
8.1417,1768
8.1444,1768
8.1472,1768
8.1500,1738
8.1528,1743
8.1556,1729
8.1583,1719
8.1611,1706
8.1639,1679
8.1667,1677
8.1694,1671
8.1722,1675
8.1750,1665
8.1778,1669
8.1806,1661
8.1833,1646
8.1861,1645
8.1889,1641
8.1917,1650
8.1944,1673
8.1972,1675
8.2000,1666
8.2028,1643
8.2056,1635
8.2083,1626
8.2111,1626
8.2139,1637
8.2167,1645
8.2194,1660
8.2222,1651
8.2250,1636
8.2278,1634
8.2306,1620
8.2333,1623
8.2361,1623
8.2389,1635
8.2417,1625
8.2444,1629
8.2472,1621
8.2500,1612
8.2528,1619
8.2556,1624
8.2583,1626
8.2611,1631
8.2639,1634
8.2667,1631
8.2694,1621
8.2722,1612
8.2750,1617
8.2778,1628
8.2806,1642
8.2833,1657
8.2861,1653
8.2889,1661
8.2917,1665
8.2944,1663
8.2972,1660
8.3000,1659
8.3028,1667
8.3056,1655
8.3083,1667
8.3111,1682
8.3139,1691
8.3167,1690
8.3194,1687
8.3222,1682
8.3250,1671
8.3278,1664
8.3306,1676
8.3333,1683
8.3361,1686
8.3389,1686
8.3417,1674
8.3444,1664
8.3472,1655
8.3500,1654
8.3528,1654
8.3556,1665
8.3583,1674
8.3611,1679
8.3639,1685
8.3667,1676
8.3694,1671
8.3722,1670
8.3750,1659
8.3778,1665
8.3806,1662
8.3833,1660
8.3861,1660
8.3889,1659
8.3917,1661
8.3944,1665
8.3972,1660
8.4000,1657
8.4028,1662
8.4056,1666
8.4083,1664
8.4111,1654
8.4139,1656
8.4167,1666
8.4194,1672
8.4222,1672
8.4250,1672
8.4278,1662
8.4306,1656
8.4333,1646
8.4361,1647
8.4389,1640
8.4417,1648
8.4444,1655
8.4472,1654
8.4500,1664
8.4528,1666
8.4556,1671
8.4583,1684
8.4611,1684
8.4639,1681
8.4667,1682
8.4694,1679
8.4722,1674
8.4750,1668
8.4778,1663
8.4806,1656
8.4833,1664
8.4861,1658
8.4889,1651
8.4917,1648
8.4944,1659
8.4972,1667
8.5000,1667
8.5028,1680
8.5056,1679
8.5083,1680
8.5111,1679
8.5139,1681
8.5167,1676
8.5194,1675
8.5222,1674
8.5250,1671
8.5278,1667
8.5306,1672
8.5333,1665
8.5361,1668
8.5389,1656
8.5417,1662
8.5444,1663
8.5472,1672
8.5500,1664
8.5528,1667
8.5556,1675
8.5583,1677
8.5611,1670
8.5639,1658
8.5667,1654
8.5694,1661
8.5722,1671
8.5750,1683
8.5778,1687
8.5806,1694
8.5833,1694
8.5861,1699
8.5889,1702
8.5917,1704
8.5944,1698
8.5972,1712
8.6000,1726
8.6028,1762
8.6056,1789
8.6083,1804
8.6111,1799
8.6139,1771
8.6167,1743
8.6194,1714
8.6222,1708
8.6250,1692
8.6278,1693
8.6306,1668
8.6333,1655
8.6361,1647
8.6389,1641
8.6417,1635
8.6444,1628
8.6472,1625
8.6500,1626
8.6528,1632
8.6556,1638
8.6583,1639
8.6611,1646
8.6639,1643
8.6667,1639
8.6694,1635
8.6722,1645
8.6750,1638
8.6778,1643
8.6806,1642
8.6833,1637
8.6861,1646
8.6889,1661
8.6917,1661
8.6944,1670
8.6972,1668
8.7000,1667
8.7028,1658
8.7056,1643
8.7083,1645
8.7111,1644
8.7139,1651
8.7167,1662
8.7194,1675
8.7222,1684
8.7250,1682
8.7278,1687
8.7306,1683
8.7333,1672
8.7361,1649
8.7389,1615
8.7417,1602
8.7444,1682
8.7472,1821
8.7500,2020
8.7528,2247
8.7556,2485
8.7583,2772
8.7611,3059
8.7639,3338
8.7667,3360
8.7694,3366
8.7722,3370
8.7750,3366
8.7778,3199
8.7806,2740
8.7833,2282
8.7861,1968
8.7889,1812
8.7917,1712
8.7944,1668
8.7972,1642
8.8000,1619
8.8028,1597
8.8056,1579
8.8083,1561
8.8111,1530
8.8139,1526
8.8167,1507
8.8194,1519
8.8222,1534
8.8250,1542
8.8278,1537
8.8306,1526
8.8333,1524
8.8361,1515
8.8389,1518
8.8417,1530
8.8444,1558
8.8472,1556
8.8500,1562
8.8528,1556
8.8556,1557
8.8583,1564
8.8611,1580
8.8639,1590
8.8667,1595
8.8694,1588
8.8722,1584
8.8750,1576
8.8778,1566
8.8806,1587
8.8833,1598
8.8861,1604
8.8889,1598
8.8917,1600
8.8944,1584
8.8972,1598
8.9000,1606
8.9028,1609
8.9056,1617
8.9083,1611
8.9111,1605
8.9139,1612
8.9167,1623
8.9194,1636
8.9222,1646
8.9250,1654
8.9278,1651
8.9306,1640
8.9333,1649
8.9361,1651
8.9389,1658
8.9417,1685
8.9444,1698
8.9472,1701
8.9500,1696
8.9528,1694
8.9556,1825
8.9583,1820
8.9611,1806
8.9639,1817
8.9667,1811
8.9694,1801
8.9722,1785
8.9750,1768
8.9778,1751
8.9806,1752
8.9833,1762
8.9861,1762
8.9889,1754
8.9917,1739
8.9944,1717
8.9972,1699
9.0000,1686
9.0028,1679
9.0056,1673
9.0083,1655
9.0111,1651
9.0139,1643
9.0167,1647
9.0194,1651
9.0222,1661
9.0250,1651
9.0278,1650
9.0306,1641
9.0333,1623
9.0361,1620
9.0389,1623
9.0417,1622
9.0444,1633
9.0472,1646
9.0500,1664
9.0528,1657
9.0556,1653
9.0583,1655
9.0611,1644
9.0639,1648
9.0667,1642
9.0694,1644
9.0722,1637
9.0750,1652
9.0778,1665
9.0806,1673
9.0833,1674
9.0861,1686
9.0889,1698
9.0917,1675
9.0944,1660
9.0972,1660
9.1000,1656
9.1028,1657
9.1056,1665
9.1083,1672
9.1111,1658
9.1139,1660
9.1167,1673
9.1194,1684
9.1222,1686
9.1250,1692
9.1278,1701
9.1306,1702
9.1333,1701
9.1361,1685
9.1389,1690
9.1417,1696
9.1444,1703
9.1472,1708
9.1500,1708
9.1528,1697
9.1556,1684
9.1583,1681
9.1611,1688
9.1639,1704
9.1667,1708
9.1694,1713
9.1722,1708
9.1750,1686
9.1778,1687
9.1806,1686
9.1833,1695
9.1861,1696
9.1889,1706
9.1917,1695
9.1944,1702
9.1972,1687
9.2000,1692
9.2028,1698
9.2056,1703
9.2083,1716
9.2111,1713
9.2139,1716
9.2167,1709
9.2194,1706
9.2222,1701
9.2250,1708
9.2278,1708
9.2306,1698
9.2333,1698
9.2361,1700
9.2389,1701
9.2417,1700
9.2444,1711
9.2472,1720
9.2500,1714
9.2528,1714
9.2556,1716
9.2583,1700
9.2611,1707
9.2639,1712
9.2667,1709
9.2694,1714
9.2722,1709
9.2750,1698
9.2778,1690
9.2806,1688
9.2833,1703
9.2861,1718
9.2889,1722
9.2917,1720
9.2944,1717
9.2972,1699
9.3000,1699
9.3028,1708
9.3056,1704
9.3083,1713
9.3111,1703
9.3139,1697
9.3167,1693
9.3194,1690
9.3222,1695
9.3250,1698
9.3278,1713
9.3306,1714
9.3333,1716
9.3361,1709
9.3389,1694
9.3417,1695
9.3444,1700
9.3472,1714
9.3500,1702
9.3528,1701
9.3556,1704
9.3583,1708
9.3611,1712
9.3639,1708
9.3667,1703
9.3694,1710
9.3722,1707
9.3750,1713
9.3778,1717
9.3806,1718
9.3833,1707
9.3861,1716
9.3889,1723
9.3917,1734
9.3944,1732
9.3972,1738
9.4000,1737
9.4028,1733
9.4056,1723
9.4083,1721
9.4111,1710
9.4139,1713
9.4167,1726
9.4194,1742
9.4222,1759
9.4250,1764
9.4278,1764
9.4306,1758
9.4333,1757
9.4361,1758
9.4389,1768
9.4417,1800
9.4444,1830
9.4472,1871
9.4500,1874
9.4528,1875
9.4556,1861
9.4583,1845
9.4611,1830
9.4639,1807
9.4667,1807
9.4694,1797
9.4722,1781
9.4750,1775
9.4778,1764
9.4806,1757
9.4833,1736
9.4861,1724
9.4889,1710
9.4917,1722
9.4944,1727
9.4972,1736
9.5000,1745
9.5028,1743
9.5056,1740
9.5083,1731
9.5111,1722
9.5139,1712
9.5167,1719
9.5194,1721
9.5222,1747
9.5250,1756
9.5278,1766
9.5306,1765
9.5333,1762
9.5361,1759
9.5389,1750
9.5417,1752
9.5444,1745
9.5472,1749
9.5500,1750
9.5528,1753
9.5556,1739
9.5583,1744
9.5611,1745
9.5639,1759
9.5667,1760
9.5694,1764
9.5722,1763
9.5750,1754
9.5778,1726
9.5806,1686
9.5833,1665
9.5861,1719
9.5889,1843
9.5917,2032
9.5944,2250
9.5972,2479
9.6000,2737
9.6028,3028
9.6056,3316
9.6083,3354
9.6111,3366
9.6139,3368
9.6167,3380
9.6194,3343
9.6222,3016
9.6250,2553
9.6278,2186
9.6306,1947
9.6333,1809
9.6361,1729
9.6389,1689
9.6417,1667
9.6444,1655
9.6472,1647
9.6500,1627
9.6528,1610
9.6556,1592
9.6583,1571
9.6611,1572
9.6639,1590
9.6667,1599
9.6694,1611
9.6722,1619
9.6750,1599
9.6778,1581
9.6806,1577
9.6833,1585
9.6861,1591
9.6889,1602
9.6917,1599
9.6944,1589
9.6972,1588
9.7000,1594
9.7028,1616
9.7056,1632
9.7083,1643
9.7111,1642
9.7139,1637
9.7167,1619
9.7194,1609
9.7222,1619
9.7250,1645
9.7278,1657
9.7306,1672
9.7333,1677
9.7361,1679
9.7389,1671
9.7417,1679
9.7444,1683
9.7472,1704
9.7500,1715
9.7528,1722
9.7556,1715
9.7583,1713
9.7611,1694
9.7639,1711
9.7667,1721
9.7694,1726
9.7722,1731
9.7750,1728
9.7778,1724
9.7806,1731
9.7833,1741
9.7861,1759
9.7889,1762
9.7917,1767
9.7944,1773
9.7972,1766
9.8000,1786
9.8028,1791
9.8056,1806
9.8083,1818
9.8111,1842
9.8139,1851
9.8167,1851
9.8194,1853
9.8222,1809
9.8250,1808
9.8278,1807
9.8306,1806
9.8333,1798
9.8361,1779
9.8389,1760
9.8417,1755
9.8444,1757
9.8472,1757
9.8500,1741
9.8528,1731
9.8556,1730
9.8583,1724
9.8611,1733
9.8639,1748
9.8667,1754
9.8694,1755
9.8722,1740
9.8750,1725
9.8778,1712
9.8806,1714
9.8833,1705
9.8861,1708
9.8889,1702
9.8917,1707
9.8944,1708
9.8972,1726
9.9000,1725
9.9028,1728
9.9056,1725
9.9083,1721
9.9111,1703
9.9139,1703
9.9167,1690
9.9194,1694
9.9222,1689
9.9250,1704
9.9278,1706
9.9306,1706
9.9333,1718
9.9361,1718
9.9389,1715
9.9417,1712
9.9444,1724
9.9472,1717
9.9500,1713
9.9528,1716
9.9556,1714
9.9583,1728
9.9611,1739
9.9639,1758
9.9667,1770
9.9694,1780
9.9722,1765
9.9750,1754
9.9778,1758
9.9806,1752
9.9833,1756
9.9861,1764
9.9889,1770
9.9917,1773
9.9944,1778
9.9972,1777
10.0000,1756
10.0028,1742
10.0056,1746
10.0083,1745
10.0111,1745
10.0139,1749
10.0167,1759
10.0194,1770
10.0222,1763
10.0250,1761
10.0278,1757
10.0306,1758
10.0333,1752
10.0361,1743
10.0389,1745
10.0417,1741
10.0444,1750
10.0472,1749
10.0500,1747
10.0528,1740
10.0556,1738
10.0583,1737
10.0611,1730
10.0639,1724
10.0667,1732
10.0694,1726
10.0722,1735
10.0750,1731
10.0778,1722
10.0806,1712
10.0833,1709
10.0861,1712
10.0889,1718
10.0917,1718
10.0944,1730
10.0972,1735
10.1000,1730
10.1028,1729
10.1056,1732
10.1083,1722
10.1111,1719
10.1139,1711
10.1167,1710
10.1194,1709
10.1222,1715
10.1250,1721
10.1278,1730
10.1306,1744
10.1333,1738
10.1361,1724
10.1389,1709
10.1417,1703
10.1444,1703
10.1472,1712
10.1500,1716
10.1528,1713
10.1556,1707
10.1583,1698
10.1611,1703
10.1639,1702
10.1667,1712
10.1694,1712
10.1722,1726
10.1750,1720
10.1778,1711
10.1806,1710
10.1833,1701
10.1861,1702
10.1889,1701
10.1917,1692
10.1944,1693
10.1972,1696
10.2000,1687
10.2028,1697
10.2056,1692
10.2083,1697
10.2111,1707
10.2139,1704
10.2167,1697
10.2194,1709
10.2222,1718
10.2250,1730
10.2278,1730
10.2306,1728
10.2333,1737
10.2361,1745
10.2389,1767
10.2417,1805
10.2444,1826
10.2472,1834
10.2500,1829
10.2528,1811
10.2556,1786
10.2583,1756
10.2611,1738
10.2639,1713
10.2667,1710
10.2694,1697
10.2722,1692
10.2750,1672
10.2778,1671
10.2806,1657
10.2833,1653
10.2861,1657
10.2889,1670
10.2917,1673
10.2944,1674
10.2972,1667
10.3000,1666
10.3028,1673
10.3056,1680
10.3083,1686
10.3111,1683
10.3139,1688
10.3167,1678
10.3194,1669
10.3222,1668
10.3250,1660
10.3278,1661
10.3306,1662
10.3333,1668
10.3361,1670
10.3389,1664
10.3417,1676
10.3444,1694
10.3472,1700
10.3500,1689
10.3528,1688
10.3556,1670
10.3583,1663
10.3611,1666
10.3639,1658
10.3667,1648
10.3694,1650
10.3722,1646
10.3750,1617
10.3778,1591
10.3806,1627
10.3833,1728
10.3861,1904
10.3889,2107
10.3917,2320
10.3944,2568
10.3972,2847
10.4000,3155
10.4028,3355
10.4056,3358
10.4083,3368
10.4111,3365
10.4139,3265
10.4167,2839
10.4194,2370
10.4222,2030
10.4250,1844
10.4278,1758
10.4306,1721
10.4333,1679
10.4361,1642
10.4389,1610
10.4417,1570
10.4444,1538
10.4472,1505
10.4500,1510
10.4528,1509
10.4556,1505
10.4583,1515
10.4611,1516
10.4639,1514
10.4667,1499
10.4694,1484
10.4722,1481
10.4750,1488
10.4778,1502
10.4806,1511
10.4833,1519
10.4861,1520
10.4889,1516
10.4917,1520
10.4944,1523
10.4972,1536
10.5000,1553
10.5028,1558
10.5056,1551
10.5083,1541
10.5111,1533
10.5139,1533
10.5167,1555
10.5194,1563
10.5222,1589
10.5250,1581
10.5278,1572
10.5306,1560
10.5333,1551
10.5361,1560
10.5389,1569
10.5417,1569
10.5444,1579
10.5472,1572
10.5500,1578
10.5528,1583
10.5556,1593
10.5583,1596
10.5611,1616
10.5639,1611
10.5667,1616
10.5694,1610
10.5722,1612
10.5750,1619
10.5778,1614
10.5806,1630
10.5833,1641
10.5861,1643
10.5889,1648
10.5917,1645
10.5944,1655
10.5972,1663
10.6000,1681
10.6028,1697
10.6056,1687
10.6083,1697
10.6111,1695
10.6139,1712
10.6167,1698
10.6194,1706
10.6222,1704
10.6250,1702
10.6278,1688
10.6306,1668
10.6333,1642
10.6361,1641
10.6389,1636
10.6417,1645
10.6444,1642
10.6472,1637
10.6500,1629
10.6528,1615
10.6556,1624
10.6583,1622
10.6611,1621
10.6639,1628
10.6667,1600
10.6694,1585
10.6722,1584
10.6750,1599
10.6778,1615
10.6806,1623
10.6833,1616
10.6861,1606
10.6889,1598
10.6917,1596
10.6944,1599
10.6972,1600
10.7000,1602
10.7028,1612
10.7056,1609
10.7083,1597
10.7111,1600
10.7139,1598
10.7167,1601
10.7194,1621
10.7222,1616
10.7250,1618
10.7278,1610
10.7306,1600
10.7333,1601
10.7361,1605
10.7389,1608
10.7417,1630
10.7444,1631
10.7472,1617
10.7500,1592
10.7528,1590
10.7556,1602
10.7583,1624
10.7611,1637
10.7639,1632
10.7667,1632
10.7694,1610
10.7722,1606
10.7750,1613
10.7778,1633
10.7806,1641
10.7833,1651
10.7861,1644
10.7889,1639
10.7917,1633
10.7944,1628
10.7972,1629
10.8000,1637
10.8028,1635
10.8056,1638
10.8083,1631
10.8111,1619
10.8139,1611
10.8167,1608
10.8194,1607
10.8222,1618
10.8250,1624
10.8278,1626
10.8306,1626
10.8333,1628
10.8361,1630
10.8389,1633
10.8417,1624
10.8444,1633
10.8472,1623
10.8500,1618
10.8528,1607
10.8556,1614
10.8583,1630
10.8611,1622
10.8639,1635
10.8667,1629
10.8694,1623
10.8722,1617
10.8750,1620
10.8778,1630
10.8806,1646
10.8833,1652
10.8861,1656
10.8889,1653
10.8917,1649
10.8944,1649
10.8972,1640
10.9000,1638
10.9028,1641
10.9056,1640
10.9083,1647
10.9111,1648
10.9139,1643
10.9167,1640
10.9194,1637
10.9222,1621
10.9250,1613
10.9278,1611
10.9306,1619
10.9333,1624
10.9361,1640
10.9389,1641
10.9417,1658
10.9444,1667
10.9472,1669
10.9500,1651
10.9528,1648
10.9556,1645
10.9583,1640
10.9611,1634
10.9639,1639
10.9667,1648
10.9694,1648
10.9722,1649
10.9750,1654
10.9778,1649
10.9806,1645
10.9833,1645
10.9861,1651
10.9889,1668
10.9917,1656
10.9944,1649
10.9972,1644
11.0000,1651
11.0028,1654
11.0056,1656
11.0083,1673
11.0111,1678
11.0139,1686
11.0167,1690
11.0194,1687
11.0222,1696
11.0250,1704
11.0278,1723
11.0306,1757
11.0333,1788
11.0361,1803
11.0389,1804
11.0417,1804
11.0444,1793
11.0472,1783
11.0500,1760
11.0528,1723
11.0556,1709
11.0583,1700
11.0611,1688
11.0639,1676
11.0667,1657
11.0694,1635
11.0722,1629
11.0750,1619
11.0778,1628
11.0806,1632
11.0833,1634
11.0861,1635
11.0889,1644
11.0917,1643
11.0944,1640
11.0972,1639
11.1000,1628
11.1028,1627
11.1056,1636
11.1083,1646
11.1111,1653
11.1139,1650
11.1167,1637
11.1194,1618
11.1222,1628
11.1250,1640
11.1278,1643
11.1306,1654
11.1333,1649
11.1361,1658
11.1389,1667
11.1417,1667
11.1444,1665
11.1472,1651
11.1500,1644
11.1528,1638
11.1556,1641
11.1583,1650
11.1611,1650
11.1639,1633
11.1667,1605
11.1694,1582
11.1722,1601
11.1750,1712
11.1778,1868
11.1806,2075
11.1833,2308
11.1861,2556
11.1889,2836
11.1917,3136
11.1944,3350
11.1972,3374
11.2000,3377
11.2028,3360
11.2056,3312
11.2083,2929
11.2111,2432
11.2139,2036
11.2167,1821
11.2194,1705
11.2222,1644
11.2250,1610
11.2278,1586
11.2306,1567
11.2333,1546
11.2361,1529
11.2389,1499
11.2417,1485
11.2444,1471
11.2472,1468
11.2500,1467
11.2528,1482
11.2556,1484
11.2583,1482
11.2611,1469
11.2639,1469
11.2667,1467
11.2694,1478
11.2722,1490
11.2750,1501
11.2778,1499
11.2806,1490
11.2833,1485
11.2861,1479
11.2889,1487
11.2917,1495
11.2944,1507
11.2972,1514
11.3000,1511
11.3028,1507
11.3056,1506
11.3083,1510
11.3111,1523
11.3139,1539
11.3167,1541
11.3194,1539
11.3222,1528
11.3250,1536
11.3278,1544
11.3306,1554
11.3333,1561
11.3361,1563
11.3389,1560
11.3417,1547
11.3444,1547
11.3472,1545
11.3500,1565
11.3528,1583
11.3556,1586
11.3583,1583
11.3611,1570
11.3639,1566
11.3667,1568
11.3694,1574
11.3722,1590
11.3750,1605
11.3778,1594
11.3806,1588
11.3833,1602
11.3861,1623
11.3889,1648
11.3917,1668
11.3944,1679
11.3972,1682
11.4000,1686
11.4028,1690
11.4056,1683
11.4083,1648
11.4111,1656
11.4139,1655
11.4167,1648
11.4194,1648
11.4222,1633
11.4250,1629
11.4278,1616
11.4306,1620
11.4333,1605
11.4361,1607
11.4389,1584
11.4417,1582
11.4444,1577
11.4472,1573
11.4500,1579
11.4528,1582
11.4556,1580
11.4583,1583
11.4611,1568
11.4639,1558
11.4667,1558
11.4694,1557
11.4722,1563
11.4750,1573
11.4778,1578
11.4806,1585
11.4833,1582
11.4861,1575
11.4889,1562
11.4917,1573
11.4944,1573
11.4972,1566
11.5000,1564
11.5028,1546
11.5056,1550
11.5083,1554
11.5111,1560
11.5139,1571
11.5167,1585
11.5194,1585
11.5222,1585
11.5250,1576
11.5278,1569
11.5306,1567
11.5333,1574
11.5361,1578
11.5389,1579
11.5417,1586
11.5444,1583
11.5472,1589
11.5500,1599
11.5528,1600
11.5556,1604
11.5583,1591
11.5611,1577
11.5639,1567
11.5667,1578
11.5694,1595
11.5722,1610
11.5750,1617
11.5778,1612
11.5806,1604
11.5833,1601
11.5861,1592
11.5889,1595
11.5917,1603
11.5944,1620
11.5972,1633
11.6000,1627
11.6028,1628
11.6056,1619
11.6083,1616
11.6111,1624
11.6139,1630
11.6167,1635
11.6194,1630
11.6222,1626
11.6250,1615
11.6278,1609
11.6306,1607
11.6333,1615
11.6361,1624
11.6389,1623
11.6417,1612
11.6444,1606
11.6472,1610
11.6500,1629
11.6528,1626
11.6556,1633
11.6583,1630
11.6611,1621
11.6639,1616
11.6667,1618
11.6694,1629
11.6722,1645
11.6750,1646
11.6778,1646
11.6806,1651
11.6833,1651
11.6861,1645
11.6889,1644
11.6917,1641
11.6944,1631
11.6972,1630
11.7000,1633
11.7028,1651
11.7056,1652
11.7083,1648
11.7111,1654
11.7139,1658
11.7167,1646
11.7194,1639
11.7222,1632
11.7250,1639
11.7278,1637
11.7306,1634
11.7333,1634
11.7361,1628
11.7389,1628
11.7417,1631
11.7444,1624
11.7472,1617
11.7500,1623
11.7528,1629
11.7556,1628
11.7583,1635
11.7611,1632
11.7639,1633
11.7667,1622
11.7694,1634
11.7722,1632
11.7750,1642
11.7778,1659
11.7806,1667
11.7833,1661
11.7861,1657
11.7889,1657
11.7917,1659
11.7944,1660
11.7972,1666
11.8000,1670
11.8028,1677
11.8056,1671
11.8083,1685
11.8111,1706
11.8139,1714
11.8167,1717
11.8194,1711
11.8222,1693
11.8250,1691
11.8278,1698
11.8306,1708
11.8333,1717
11.8361,1732
11.8389,1753
11.8417,1771
11.8444,1797
11.8472,1809
11.8500,1800
11.8528,1795
11.8556,1787
11.8583,1763
11.8611,1742
11.8639,1718
11.8667,1693
11.8694,1683
11.8722,1667
11.8750,1658
11.8778,1661
11.8806,1653
11.8833,1659
11.8861,1663
11.8889,1668
11.8917,1668
11.8944,1665
11.8972,1671
11.9000,1672
11.9028,1677
11.9056,1675
11.9083,1656
11.9111,1660
11.9139,1669
11.9167,1669
11.9194,1658
11.9222,1658
11.9250,1651
11.9278,1650
11.9306,1654
11.9333,1655
11.9361,1658
11.9389,1672
11.9417,1683
11.9444,1692
11.9472,1686
11.9500,1707
11.9528,1704
11.9556,1709
11.9583,1706
11.9611,1691
11.9639,1697
11.9667,1702
11.9694,1696
11.9722,1678
11.9750,1663
11.9778,1626
11.9806,1611
11.9833,1650
11.9861,1777
11.9889,1959
11.9917,2177
11.9944,2418
11.9972,2672
12.0000,2959
12.0028,3267
12.0056,3366
12.0083,3372
12.0111,3369
12.0139,3365
12.0167,3339
12.0194,3002
12.0222,2516
12.0250,2146
12.0278,1887
12.0306,1734
12.0333,1654
12.0361,1625
12.0389,1610
12.0417,1604
12.0444,1602
12.0472,1589
12.0500,1555
12.0528,1523
12.0556,1510
12.0583,1515
12.0611,1524
12.0639,1536
12.0667,1545
12.0694,1549
12.0722,1531
12.0750,1522
12.0778,1512
12.0806,1504
12.0833,1516
12.0861,1520
12.0889,1531
12.0917,1528
12.0944,1521
12.0972,1522
12.1000,1533
12.1028,1545
12.1056,1557
12.1083,1567
12.1111,1562
12.1139,1544
12.1167,1542
12.1194,1547
12.1222,1566
12.1250,1592
12.1278,1601
12.1306,1606
12.1333,1620
12.1361,1608
12.1389,1598
12.1417,1602
12.1444,1614
12.1472,1627
12.1500,1631
12.1528,1630
12.1556,1639
12.1583,1648
12.1611,1653
12.1639,1656
12.1667,1668
12.1694,1674
12.1722,1663
12.1750,1671
12.1778,1684
12.1806,1689
12.1833,1711
12.1861,1717
12.1889,1741
12.1917,1748
12.1944,1739
12.1972,1728
12.2000,1740
12.2028,1773
12.2056,1792
12.2083,1813
12.2111,1822
12.2139,1824
12.2167,1825
12.2194,1784
12.2222,1795
12.2250,1787
12.2278,1778
12.2306,1768
12.2333,1768
12.2361,1756
12.2389,1741
12.2417,1741
12.2444,1729
12.2472,1720
12.2500,1720
12.2528,1708
12.2556,1702
12.2583,1703
12.2611,1703
12.2639,1696
12.2667,1714
12.2694,1706
12.2722,1691
12.2750,1679
12.2778,1668
12.2806,1658
12.2833,1659
12.2861,1673
12.2889,1680
12.2917,1681
12.2944,1678
12.2972,1683
12.3000,1687
12.3028,1698
12.3056,1693
12.3083,1686
12.3111,1680
12.3139,1678
12.3167,1671
12.3194,1656
12.3222,1660
12.3250,1658
12.3278,1653
12.3306,1651
12.3333,1670
12.3361,1667
12.3389,1658
12.3417,1666
12.3444,1669
12.3472,1671
12.3500,1662
12.3528,1655
12.3556,1655
12.3583,1655
12.3611,1658
12.3639,1656
12.3667,1668
12.3694,1654
12.3722,1657
12.3750,1646
12.3778,1649
12.3806,1660
12.3833,1678
12.3861,1679
12.3889,1685
12.3917,1689
12.3944,1693
12.3972,1701
12.4000,1707
12.4028,1712
12.4056,1716
12.4083,1721
12.4111,1713
12.4139,1712
12.4167,1714
12.4194,1713
12.4222,1712
12.4250,1715
12.4278,1712
12.4306,1701
12.4333,1709
12.4361,1696
12.4389,1688
12.4417,1685
12.4444,1685
12.4472,1694
12.4500,1697
12.4528,1702
12.4556,1691
12.4583,1694
12.4611,1689
12.4639,1689
12.4667,1681
12.4694,1674
12.4722,1666
12.4750,1649
12.4778,1651
12.4806,1665
12.4833,1676
12.4861,1689
12.4889,1695
12.4917,1700
12.4944,1696
12.4972,1683
12.5000,1681
12.5028,1685
12.5056,1684
12.5083,1690
12.5111,1677
12.5139,1662
12.5167,1648
12.5194,1660
12.5222,1674
12.5250,1690
12.5278,1684
12.5306,1685
12.5333,1681
12.5361,1681
12.5389,1678
12.5417,1673
12.5444,1679
12.5472,1676
12.5500,1689
12.5528,1691
12.5556,1691
12.5583,1687
12.5611,1690
12.5639,1686
12.5667,1689
12.5694,1687
12.5722,1692
12.5750,1687
12.5778,1679
12.5806,1691
12.5833,1701
12.5861,1702
12.5889,1710
12.5917,1705
12.5944,1704
12.5972,1709
12.6000,1710
12.6028,1717
12.6056,1731
12.6083,1725
12.6111,1728
12.6139,1718
12.6167,1710
12.6194,1713
12.6222,1729
12.6250,1726
12.6278,1726
12.6306,1730
12.6333,1736
12.6361,1743
12.6389,1750
12.6417,1754
12.6444,1761
12.6472,1756
12.6500,1751
12.6528,1759
12.6556,1761
12.6583,1761
12.6611,1759
12.6639,1742
12.6667,1752
12.6694,1763
12.6722,1777
12.6750,1792
12.6778,1819
12.6806,1859
12.6833,1877
12.6861,1884
12.6889,1869
12.6917,1855
12.6944,1825
12.6972,1792
12.7000,1772
12.7028,1766
12.7056,1766
12.7083,1769
12.7111,1759
12.7139,1752
12.7167,1743
12.7194,1744
12.7222,1728
12.7250,1728
12.7278,1736
12.7306,1735
12.7333,1748
12.7361,1750
12.7389,1748
12.7417,1738
12.7444,1734
12.7472,1726
12.7500,1728
12.7528,1727
12.7556,1727
12.7583,1725
12.7611,1722
12.7639,1722
12.7667,1737
12.7694,1734
12.7722,1751
12.7750,1755
12.7778,1753
12.7806,1748
12.7833,1757
12.7861,1753
12.7889,1754
12.7917,1754
12.7944,1752
12.7972,1753
12.8000,1758
12.8028,1763
12.8056,1761
12.8083,1743
12.8111,1714
12.8139,1681
12.8167,1651
12.8194,1649
12.8222,1728
12.8250,1865
12.8278,2077
12.8306,2306
12.8333,2555
12.8361,2823
12.8389,3114
12.8417,3351
12.8444,3368
12.8472,3368
12.8500,3372
12.8528,3360
12.8556,3220
12.8583,2790
12.8611,2332
12.8639,2031
12.8667,1865
12.8694,1771
12.8722,1708
12.8750,1665
12.8778,1646
12.8806,1634
12.8833,1606
12.8861,1580
12.8889,1571
12.8917,1548
12.8944,1534
12.8972,1544
12.9000,1555
12.9028,1567
12.9056,1571
12.9083,1563
12.9111,1555
12.9139,1544
12.9167,1549
12.9194,1565
12.9222,1576
12.9250,1588
12.9278,1583
12.9306,1580
12.9333,1573
12.9361,1573
12.9389,1589
12.9417,1609
12.9444,1627
12.9472,1631
12.9500,1624
12.9528,1619
12.9556,1609
12.9583,1616
12.9611,1632
12.9639,1637
12.9667,1648
12.9694,1641
12.9722,1636
12.9750,1645
12.9778,1651
12.9806,1671
12.9833,1678
12.9861,1674
12.9889,1663
12.9917,1659
12.9944,1649
12.9972,1667
13.0000,1690
13.0028,1706
13.0056,1723
13.0083,1726
13.0111,1714
13.0139,1711
13.0167,1720
13.0194,1721
13.0222,1735
13.0250,1751
13.0278,1763
13.0306,1758
13.0333,1759
13.0361,1760
13.0389,1761
13.0417,1761
13.0444,1770
13.0472,1786
13.0500,1802
13.0528,1816
13.0556,1828
13.0583,1765
13.0611,1771
13.0639,1777
13.0667,1768
13.0694,1757
13.0722,1743
13.0750,1731
13.0778,1726
13.0806,1718
13.0833,1720
13.0861,1714
13.0889,1696
13.0917,1688
13.0944,1688
13.0972,1686
13.1000,1697
13.1028,1689
13.1056,1680
13.1083,1660
13.1111,1648
13.1139,1642
13.1167,1633
13.1194,1641
13.1222,1662
13.1250,1678
13.1278,1677
13.1306,1672
13.1333,1669
13.1361,1670
13.1389,1664
13.1417,1668
13.1444,1668
13.1472,1671
13.1500,1663
13.1528,1659
13.1556,1666
13.1583,1678
13.1611,1689
13.1639,1696
13.1667,1683
13.1694,1677
13.1722,1666
13.1750,1664
13.1778,1662
13.1806,1674
13.1833,1683
13.1861,1691
13.1889,1694
13.1917,1686
13.1944,1678
13.1972,1694
13.2000,1699
13.2028,1708
13.2056,1708
13.2083,1704
13.2111,1690
13.2139,1690
13.2167,1693
13.2194,1694
13.2222,1705
13.2250,1708
13.2278,1718
13.2306,1722
13.2333,1729
13.2361,1734
13.2389,1744
13.2417,1741
13.2444,1743
13.2472,1721
13.2500,1736
13.2528,1731
13.2556,1739
13.2583,1743
13.2611,1744
13.2639,1749
13.2667,1747
13.2694,1740
13.2722,1735
13.2750,1737
13.2778,1734
13.2806,1728
13.2833,1733
13.2861,1727
13.2889,1726
13.2917,1726
13.2944,1729
13.2972,1725
13.3000,1726
13.3028,1726
13.3056,1705
13.3083,1697
13.3111,1693
13.3139,1703
13.3167,1715
13.3194,1727
13.3222,1734
13.3250,1736
13.3278,1730
13.3306,1721
13.3333,1707
13.3361,1709
13.3389,1719
13.3417,1716
13.3444,1721
13.3472,1718
13.3500,1719
13.3528,1714
13.3556,1710
13.3583,1716
13.3611,1727
13.3639,1735
13.3667,1734
13.3694,1739
13.3722,1749
13.3750,1744
13.3778,1741
13.3806,1736
13.3833,1738
13.3861,1739
13.3889,1738
13.3917,1740
13.3944,1739
13.3972,1749
13.4000,1746
13.4028,1752
13.4056,1743
13.4083,1744
13.4111,1749
13.4139,1757
13.4167,1760
13.4194,1762
13.4222,1759
13.4250,1755
13.4278,1747
13.4306,1745
13.4333,1734
13.4361,1740
13.4389,1742
13.4417,1751
13.4444,1748
13.4472,1741
13.4500,1741
13.4528,1739
13.4556,1754
13.4583,1766
13.4611,1777
13.4639,1781
13.4667,1783
13.4694,1794
13.4722,1797
13.4750,1797
13.4778,1805
13.4806,1809
13.4833,1805
13.4861,1816
13.4889,1841
13.4917,1867
13.4944,1900
13.4972,1919
13.5000,1923
13.5028,1900
13.5056,1862
13.5083,1835
13.5111,1811
13.5139,1799
13.5167,1792
13.5194,1787
13.5222,1790
13.5250,1784
13.5278,1783
13.5306,1761
13.5333,1748
13.5361,1742
13.5389,1740
13.5417,1736
13.5444,1750
13.5472,1749
13.5500,1744
13.5528,1744
13.5556,1753
13.5583,1736
13.5611,1732
13.5639,1726
13.5667,1714
13.5694,1714
13.5722,1730
13.5750,1744
13.5778,1747
13.5806,1746
13.5833,1741
13.5861,1740
13.5889,1730
13.5917,1736
13.5944,1738
13.5972,1748
13.6000,1757
13.6028,1769
13.6056,1778
13.6083,1776
13.6111,1770
13.6139,1754
13.6167,1730
13.6194,1718
13.6222,1723
13.6250,1706
13.6278,1681
13.6306,1651
13.6333,1688
13.6361,1795
13.6389,1960
13.6417,2164
13.6444,2374
13.6472,2597
13.6500,2888
13.6528,3177
13.6556,3355
13.6583,3360
13.6611,3364
13.6639,3370
13.6667,3339
13.6694,2978
13.6722,2498
13.6750,2132
13.6778,1929
13.6806,1828
13.6833,1769
13.6861,1714
13.6889,1675
13.6917,1634
13.6944,1598
13.6972,1578
13.7000,1554
13.7028,1540
13.7056,1536
13.7083,1550
13.7111,1569
13.7139,1581
13.7167,1586
13.7194,1583
13.7222,1575
13.7250,1564
13.7278,1560
13.7306,1572
13.7333,1590
13.7361,1600
13.7389,1602
13.7417,1586
13.7444,1570
13.7472,1558
13.7500,1551
13.7528,1565
13.7556,1588
13.7583,1591
13.7611,1593
13.7639,1592
13.7667,1589
13.7694,1604
13.7722,1620
13.7750,1624
13.7778,1621
13.7806,1614
13.7833,1612
13.7861,1612
13.7889,1621
13.7917,1626
13.7944,1624
13.7972,1631
13.8000,1631
13.8028,1633
13.8056,1638
13.8083,1650
13.8111,1664
13.8139,1671
13.8167,1675
13.8194,1673
13.8222,1677
13.8250,1667
13.8278,1659
13.8306,1667
13.8333,1688
13.8361,1710
13.8389,1719
13.8417,1700
13.8444,1692
13.8472,1693
13.8500,1706
13.8528,1728
13.8556,1738
13.8583,1747
13.8611,1752
13.8639,1760
13.8667,1757
13.8694,1726
13.8722,1732
13.8750,1714
13.8778,1695
13.8806,1679
13.8833,1669
13.8861,1662
13.8889,1646
13.8917,1654
13.8944,1651
13.8972,1652
13.9000,1641
13.9028,1638
13.9056,1634
13.9083,1632
13.9111,1619
13.9139,1616
13.9167,1604
13.9194,1589
13.9222,1583
13.9250,1572
13.9278,1579
13.9306,1591
13.9333,1602
13.9361,1602
13.9389,1600
13.9417,1589
13.9444,1577
13.9472,1580
13.9500,1589
13.9528,1599
13.9556,1617
13.9583,1594
13.9611,1580
13.9639,1572
13.9667,1570
13.9694,1568
13.9722,1579
13.9750,1578
13.9778,1579
13.9806,1587
13.9833,1585
13.9861,1586
13.9889,1596
13.9917,1596
13.9944,1597
13.9972,1593
14.0000,1593
14.0028,1591
14.0056,1609
14.0083,1619
14.0111,1617
14.0139,1610
14.0167,1601
14.0194,1595
14.0222,1602
14.0250,1607
14.0278,1604
14.0306,1602
14.0333,1611
14.0361,1617
14.0389,1601
14.0417,1616
14.0444,1606
14.0472,1604
14.0500,1604
14.0528,1604
14.0556,1611
14.0583,1618
14.0611,1610
14.0639,1621
14.0667,1623
14.0694,1642
14.0722,1650
14.0750,1653
14.0778,1647
14.0806,1635
14.0833,1630
14.0861,1623
14.0889,1620
14.0917,1622
14.0944,1631
14.0972,1645
14.1000,1647
14.1028,1651
14.1056,1654
14.1083,1637
14.1111,1640
14.1139,1629
14.1167,1642
14.1194,1631
14.1222,1630
14.1250,1614
14.1278,1611
14.1306,1623
14.1333,1627
14.1361,1624
14.1389,1636
14.1417,1634
14.1444,1629
14.1472,1621
14.1500,1627
14.1528,1624
14.1556,1624
14.1583,1635
14.1611,1638
14.1639,1640
14.1667,1633
14.1694,1633
14.1722,1626
14.1750,1622
14.1778,1616
14.1806,1624
14.1833,1622
14.1861,1627
14.1889,1629
14.1917,1628
14.1944,1632
14.1972,1630
14.2000,1631
14.2028,1624
14.2056,1637
14.2083,1641
14.2111,1645
14.2139,1637
14.2167,1637
14.2194,1627
14.2222,1622
14.2250,1616
14.2278,1614
14.2306,1624
14.2333,1637
14.2361,1650
14.2389,1645
14.2417,1640
14.2444,1631
14.2472,1640
14.2500,1649
14.2528,1660
14.2556,1669
14.2583,1666
14.2611,1678
14.2639,1678
14.2667,1675
14.2694,1674
14.2722,1674
14.2750,1678
14.2778,1679
14.2806,1695
14.2833,1717
14.2861,1750
14.2889,1771
14.2917,1781
14.2944,1781
14.2972,1777
14.3000,1738
14.3028,1711
14.3056,1712
14.3083,1691
14.3111,1689
14.3139,1675
14.3167,1670
14.3194,1661
14.3222,1652
14.3250,1657
14.3278,1648
14.3306,1634
14.3333,1633
14.3361,1628
14.3389,1616
14.3417,1609
14.3444,1601
14.3472,1602
14.3500,1618
14.3528,1636
14.3556,1650
14.3583,1657
14.3611,1649
14.3639,1644
14.3667,1641
14.3694,1633
14.3722,1629
14.3750,1639
14.3778,1655
14.3806,1653
14.3833,1651
14.3861,1642
14.3889,1645
14.3917,1651
14.3944,1655
14.3972,1659
14.4000,1661
14.4028,1663
14.4056,1667
14.4083,1672
14.4111,1665
14.4139,1659
14.4167,1654
14.4194,1635
14.4222,1596
14.4250,1588
14.4278,1615
14.4306,1733
14.4333,1908
14.4361,2121
14.4389,2337
14.4417,2592
14.4444,2864
14.4472,3167
14.4500,3362
14.4528,3364
14.4556,3366
14.4583,3369
14.4611,3286
14.4639,2887
14.4667,2407
14.4694,2038
14.4722,1845
14.4750,1732
14.4778,1674
14.4806,1634
14.4833,1600
14.4861,1567
14.4889,1550
14.4917,1526
14.4944,1497
14.4972,1477
14.5000,1462
14.5028,1469
14.5056,1472
14.5083,1480
14.5111,1484
14.5139,1469
14.5167,1470
14.5194,1458
14.5222,1474
14.5250,1484
14.5278,1498
14.5306,1501
14.5333,1500
14.5361,1489
14.5389,1486
14.5417,1491
14.5444,1507
14.5472,1523
14.5500,1523
14.5528,1528
14.5556,1529
14.5583,1529
14.5611,1532
14.5639,1542
14.5667,1556
14.5694,1568
14.5722,1574
14.5750,1557
14.5778,1554
14.5806,1548
14.5833,1565
14.5861,1592
14.5889,1601
14.5917,1611
14.5944,1607
14.5972,1609
14.6000,1603
14.6028,1599
14.6056,1608
14.6083,1612
14.6111,1627
14.6139,1625
14.6167,1623
14.6194,1630
14.6222,1629
14.6250,1636
14.6278,1636
14.6306,1649
14.6333,1644
14.6361,1643
14.6389,1646
14.6417,1658
14.6444,1680
14.6472,1694
14.6500,1704
14.6528,1704
14.6556,1714
14.6583,1719
14.6611,1724
14.6639,1688
14.6667,1691
14.6694,1686
14.6722,1687
14.6750,1681
14.6778,1664
14.6806,1651
14.6833,1637
14.6861,1635
14.6889,1636
14.6917,1630
14.6944,1620
14.6972,1627
14.7000,1627
14.7028,1632
14.7056,1648
14.7083,1650
14.7111,1641
14.7139,1626
14.7167,1612
14.7194,1606
14.7222,1598
14.7250,1596
14.7278,1600
14.7306,1609
14.7333,1615
14.7361,1623
14.7389,1620
14.7417,1618
14.7444,1618
14.7472,1620
14.7500,1617
14.7528,1619
14.7556,1616
14.7583,1614
14.7611,1611
14.7639,1609
14.7667,1634
14.7694,1633
14.7722,1637
14.7750,1633
14.7778,1634
14.7806,1638
14.7833,1640
14.7861,1649
14.7889,1637
14.7917,1643
14.7944,1642
14.7972,1642
14.8000,1648
14.8028,1656
14.8056,1669
14.8083,1672
14.8111,1665
14.8139,1675
14.8167,1665
14.8194,1661
14.8222,1660
14.8250,1671
14.8278,1684
14.8306,1681
14.8333,1686
14.8361,1682
14.8389,1687
14.8417,1692
14.8444,1695
14.8472,1694
14.8500,1688
14.8528,1690
14.8556,1684
14.8583,1674
14.8611,1672
14.8639,1677
14.8667,1669
14.8694,1673
14.8722,1672
14.8750,1673
14.8778,1655
14.8806,1654
14.8833,1666
14.8861,1681
14.8889,1683
14.8917,1675
14.8944,1660
14.8972,1657
14.9000,1658
14.9028,1659
14.9056,1656
14.9083,1657
14.9111,1657
14.9139,1646
14.9167,1635
14.9194,1632
14.9222,1640
14.9250,1654
14.9278,1661
14.9306,1668
14.9333,1675
14.9361,1668
14.9389,1664
14.9417,1652
14.9444,1657
14.9472,1651
14.9500,1646
14.9528,1645
14.9556,1644
14.9583,1647
14.9611,1661
14.9639,1666
14.9667,1665
14.9694,1654
14.9722,1660
14.9750,1653
14.9778,1649
14.9806,1642
14.9833,1644
14.9861,1646
14.9889,1657
14.9917,1664
14.9944,1661
14.9972,1665
15.0000,1659
15.0028,1673
15.0056,1673
15.0083,1670
15.0111,1657
15.0139,1642
15.0167,1640
15.0194,1647
15.0222,1651
15.0250,1664
15.0278,1662
15.0306,1669
15.0333,1653
15.0361,1645
15.0389,1639
15.0417,1635
15.0444,1640
15.0472,1641
15.0500,1653
15.0528,1654
15.0556,1641
15.0583,1628
15.0611,1626
15.0639,1628
15.0667,1647
15.0694,1649
15.0722,1658
15.0750,1653
15.0778,1657
15.0806,1656
15.0833,1651
15.0861,1647
15.0889,1660
15.0917,1658
15.0944,1659
15.0972,1674
15.1000,1688
15.1028,1700
15.1056,1729
15.1083,1758
15.1111,1781
15.1139,1794
15.1167,1770
15.1194,1750
15.1222,1717
15.1250,1681
15.1278,1666
15.1306,1658
15.1333,1670
15.1361,1667
15.1389,1664
15.1417,1665
15.1444,1652
15.1472,1638
15.1500,1624
15.1528,1620
15.1556,1617
15.1583,1627
15.1611,1613
15.1639,1611
15.1667,1607
15.1694,1614
15.1722,1618
15.1750,1607
15.1778,1602
15.1806,1598
15.1833,1593
15.1861,1591
15.1889,1588
15.1917,1601
15.1944,1606
15.1972,1621
15.2000,1630
15.2028,1629
15.2056,1636
15.2083,1631
15.2111,1627
15.2139,1632
15.2167,1627
15.2194,1634
15.2222,1620
15.2250,1623
15.2278,1625
15.2306,1628
15.2333,1622
15.2361,1624
15.2389,1615
15.2417,1578
15.2444,1552
15.2472,1562
15.2500,1641
15.2528,1806
15.2556,2003
15.2583,2247
15.2611,2491
15.2639,2757
15.2667,3066
15.2694,3344
15.2722,3373
15.2750,3367
15.2778,3365
15.2806,3364
15.2833,3116
15.2861,2633
15.2889,2186
15.2917,1893
15.2944,1740
15.2972,1645
15.3000,1602
15.3028,1584
15.3056,1569
15.3083,1567
15.3111,1546
15.3139,1526
15.3167,1500
15.3194,1470
15.3222,1456
15.3250,1449
15.3278,1462
15.3306,1465
15.3333,1468
15.3361,1468
15.3389,1465
15.3417,1464
15.3444,1464
15.3472,1482
15.3500,1486
15.3528,1501
15.3556,1503
15.3583,1488
15.3611,1484
15.3639,1498
15.3667,1504
15.3694,1502
15.3722,1502
15.3750,1506
15.3778,1501
15.3806,1508
15.3833,1530
15.3861,1542
15.3889,1551
15.3917,1546
15.3944,1532
15.3972,1521
15.4000,1520
15.4028,1537
15.4056,1553
15.4083,1578
15.4111,1584
15.4139,1584
15.4167,1581
15.4194,1577
15.4222,1567
15.4250,1581
15.4278,1592
15.4306,1611
15.4333,1619
15.4361,1625
15.4389,1628
15.4417,1625
15.4444,1638
15.4472,1655
15.4500,1663
15.4528,1676
15.4556,1680
15.4583,1675
15.4611,1669
15.4639,1682
15.4667,1703
15.4694,1716
15.4722,1736
15.4750,1744
15.4778,1739
15.4806,1737
15.4833,1730
15.4861,1733
15.4889,1730
15.4917,1722
15.4944,1711
15.4972,1706
15.5000,1695
15.5028,1687
15.5056,1679
15.5083,1678
15.5111,1677
15.5139,1672
15.5167,1660
15.5194,1649
15.5222,1643
15.5250,1640
15.5278,1647
15.5306,1639
15.5333,1629
15.5361,1619
15.5389,1608
15.5417,1611
15.5444,1631
15.5472,1631
15.5500,1641
15.5528,1643
15.5556,1634
15.5583,1632
15.5611,1633
15.5639,1634
15.5667,1642
15.5694,1657
15.5722,1649
15.5750,1639
15.5778,1631
15.5806,1629
15.5833,1635
15.5861,1636
15.5889,1644
15.5917,1643
15.5944,1649
15.5972,1630
15.6000,1619
15.6028,1613
15.6056,1612
15.6083,1633
15.6111,1624
15.6139,1636
15.6167,1625
15.6194,1621
15.6222,1619
15.6250,1632
15.6278,1634
15.6306,1644
15.6333,1646
15.6361,1650
15.6389,1645
15.6417,1643
15.6444,1645
15.6472,1645
15.6500,1656
15.6528,1666
15.6556,1670
15.6583,1669
15.6611,1663
15.6639,1661
15.6667,1663
15.6694,1658
15.6722,1668
15.6750,1667
15.6778,1667
15.6806,1662
15.6833,1662
15.6861,1654
15.6889,1656
15.6917,1658
15.6944,1656
15.6972,1649
15.7000,1648
15.7028,1636
15.7056,1632
15.7083,1626
15.7111,1615
15.7139,1619
15.7167,1627
15.7194,1628
15.7222,1630
15.7250,1629
15.7278,1628
15.7306,1626
15.7333,1619
15.7361,1614
15.7389,1621
15.7417,1633
15.7444,1629
15.7472,1624
15.7500,1619
15.7528,1629
15.7556,1628
15.7583,1631
15.7611,1638
15.7639,1648
15.7667,1655
15.7694,1663
15.7722,1664
15.7750,1652
15.7778,1634
15.7806,1623
15.7833,1635
15.7861,1623
15.7889,1634
15.7917,1636
15.7944,1634
15.7972,1632
15.8000,1621
15.8028,1627
15.8056,1629
15.8083,1634
15.8111,1641
15.8139,1626
15.8167,1633
15.8194,1633
15.8222,1631
15.8250,1632
15.8278,1640
15.8306,1644
15.8333,1643
15.8361,1632
15.8389,1631
15.8417,1636
15.8444,1638
15.8472,1632
15.8500,1631
15.8528,1624
15.8556,1628
15.8583,1624
15.8611,1612
15.8639,1616
15.8667,1613
15.8694,1623
15.8722,1634
15.8750,1639
15.8778,1644
15.8806,1653
15.8833,1650
15.8861,1644
15.8889,1647
15.8917,1645
15.8944,1647
15.8972,1642
15.9000,1640
15.9028,1643
15.9056,1666
15.9083,1671
15.9111,1690
15.9139,1697
15.9167,1702
15.9194,1710
15.9222,1703
15.9250,1700
15.9278,1695
15.9306,1717
15.9333,1729
15.9361,1755
15.9389,1772
15.9417,1793
15.9444,1793
15.9472,1773
15.9500,1746
15.9528,1717
15.9556,1695
15.9583,1674
15.9611,1661
15.9639,1643
15.9667,1628
15.9694,1625
15.9722,1610
15.9750,1606
15.9778,1587
15.9806,1587
15.9833,1588
15.9861,1589
15.9889,1596
15.9917,1603
15.9944,1610
15.9972,1617
16.0000,1608
16.0028,1607
16.0056,1615
16.0083,1619
16.0111,1620
16.0139,1609
16.0167,1608
16.0194,1613
16.0222,1605
16.0250,1620
16.0278,1625
16.0306,1626
16.0333,1627
16.0361,1626
16.0389,1623
16.0417,1626
16.0444,1620
16.0472,1626
16.0500,1635
16.0528,1641
16.0556,1653
16.0583,1662
16.0611,1666
16.0639,1650
16.0667,1632
16.0694,1603
16.0722,1571
16.0750,1575
16.0778,1649
16.0806,1780
16.0833,1985
16.0861,2198
16.0889,2422
16.0917,2699
16.0944,2989
16.0972,3286
16.1000,3351
16.1028,3353
16.1056,3371
16.1083,3362
16.1111,3145
16.1139,2659
16.1167,2212
16.1194,1922
16.1222,1761
16.1250,1680
16.1278,1646
16.1306,1607
16.1333,1573
16.1361,1547
16.1389,1512
16.1417,1492
16.1444,1473
16.1472,1462
16.1500,1462
16.1528,1477
16.1556,1488
16.1583,1491
16.1611,1480
16.1639,1468
16.1667,1449
16.1694,1459
16.1722,1463
16.1750,1481
16.1778,1486
16.1806,1497
16.1833,1483
16.1861,1471
16.1889,1486
16.1917,1486
16.1944,1505
16.1972,1519
16.2000,1522
16.2028,1515
16.2056,1505
16.2083,1505
16.2111,1510
16.2139,1524
16.2167,1550
16.2194,1560
16.2222,1565
16.2250,1558
16.2278,1554
16.2306,1557
16.2333,1569
16.2361,1575
16.2389,1577
16.2417,1587
16.2444,1587
16.2472,1593
16.2500,1589
16.2528,1599
16.2556,1613
16.2583,1629
16.2611,1636
16.2639,1632
16.2667,1629
16.2694,1640
16.2722,1641
16.2750,1648
16.2778,1653
16.2806,1645
16.2833,1653
16.2861,1660
16.2889,1669
16.2917,1681
16.2944,1701
16.2972,1712
16.3000,1714
16.3028,1710
16.3056,1712
16.3083,1718
16.3111,1770
16.3139,1764
16.3167,1764
16.3194,1746
16.3222,1738
16.3250,1723
16.3278,1713
16.3306,1698
16.3333,1691
16.3361,1684
16.3389,1684
16.3417,1688
16.3444,1674
16.3472,1649
16.3500,1638
16.3528,1633
16.3556,1633
16.3583,1638
16.3611,1643
16.3639,1639
16.3667,1647
16.3694,1650
16.3722,1654
16.3750,1648
16.3778,1651
16.3806,1648
16.3833,1646
16.3861,1652
16.3889,1656
16.3917,1653
16.3944,1660
16.3972,1675
16.4000,1682
16.4028,1691
16.4056,1682
16.4083,1683
16.4111,1670
16.4139,1669
16.4167,1677
16.4194,1673
16.4222,1664
16.4250,1651
16.4278,1649
16.4306,1647
16.4333,1658
16.4361,1670
16.4389,1678
16.4417,1685
16.4444,1689
16.4472,1682
16.4500,1673
16.4528,1670
16.4556,1682
16.4583,1686
16.4611,1694
16.4639,1691
16.4667,1689
16.4694,1676
16.4722,1675
16.4750,1677
16.4778,1685
16.4806,1694
16.4833,1707
16.4861,1708
16.4889,1695
16.4917,1693
16.4944,1687
16.4972,1688
16.5000,1686
16.5028,1685
16.5056,1687
16.5083,1699
16.5111,1703
16.5139,1716
16.5167,1716
16.5194,1713
16.5222,1716
16.5250,1696
16.5278,1695
16.5306,1693
16.5333,1695
16.5361,1699
16.5389,1701
16.5417,1695
16.5444,1688
16.5472,1689
16.5500,1673
16.5528,1665
16.5556,1673
16.5583,1679
16.5611,1677
16.5639,1678
16.5667,1664
16.5694,1653
16.5722,1664
16.5750,1669
16.5778,1682
16.5806,1695
16.5833,1704
16.5861,1699
16.5889,1697
16.5917,1691
16.5944,1678
16.5972,1669
16.6000,1670
16.6028,1677
16.6056,1690
16.6083,1703
16.6111,1718
16.6139,1716
16.6167,1722
16.6194,1711
16.6222,1701
16.6250,1694
16.6278,1686
16.6306,1682
16.6333,1675
16.6361,1677
16.6389,1681
16.6417,1685
16.6444,1682
16.6472,1690
16.6500,1688
16.6528,1688
16.6556,1691
16.6583,1691
16.6611,1690
16.6639,1695
16.6667,1696
16.6694,1709
16.6722,1718
16.6750,1718
16.6778,1724
16.6806,1717
16.6833,1705
16.6861,1678
16.6889,1666
16.6917,1670
16.6944,1686
16.6972,1712
16.7000,1735
16.7028,1764
16.7056,1786
16.7083,1798
16.7111,1823
16.7139,1823
16.7167,1833
16.7194,1825
16.7222,1799
16.7250,1785
16.7278,1775
16.7306,1756
16.7333,1739
16.7361,1743
16.7389,1726
16.7417,1717
16.7444,1694
16.7472,1684
16.7500,1673
16.7528,1665
16.7556,1668
16.7583,1678
16.7611,1685
16.7639,1684
16.7667,1674
16.7694,1668
16.7722,1663
16.7750,1673
16.7778,1682
16.7806,1676
16.7833,1669
16.7861,1676
16.7889,1674
16.7917,1676
16.7944,1671
16.7972,1678
16.8000,1680
16.8028,1671
16.8056,1686
16.8083,1684
16.8111,1696
16.8139,1703
16.8167,1704
16.8194,1693
16.8222,1692
16.8250,1686
16.8278,1691
16.8306,1700
16.8333,1701
16.8361,1713
16.8389,1707
16.8417,1694
16.8444,1680
16.8472,1636
16.8500,1630
16.8528,1693
16.8556,1829
16.8583,2005
16.8611,2209
16.8639,2429
16.8667,2672
16.8694,2959
16.8722,3257
16.8750,3361
16.8778,3366
16.8806,3358
16.8833,3357
16.8861,3214
16.8889,2761
16.8917,2320
16.8944,2013
16.8972,1867
16.9000,1773
16.9028,1715
16.9056,1675
16.9083,1651
16.9111,1637
16.9139,1627
16.9167,1607
16.9194,1586
16.9222,1568
16.9250,1552
16.9278,1540
16.9306,1547
16.9333,1549
16.9361,1543
16.9389,1533
16.9417,1524
16.9444,1532
16.9472,1545
16.9500,1557
16.9528,1565
16.9556,1564
16.9583,1553
16.9611,1547
16.9639,1540
16.9667,1549
16.9694,1550
16.9722,1568
16.9750,1568
16.9778,1569
16.9806,1575
16.9833,1576
16.9861,1576
16.9889,1588
16.9917,1590
16.9944,1601
16.9972,1595
17.0000,1574
17.0028,1571
17.0056,1582
17.0083,1601
17.0111,1623
17.0139,1638
17.0167,1634
17.0194,1632
17.0222,1630
17.0250,1639
17.0278,1641
17.0306,1643
17.0333,1644
17.0361,1651
17.0389,1649
17.0417,1642
17.0444,1646
17.0472,1655
17.0500,1659
17.0528,1665
17.0556,1687
17.0583,1695
17.0611,1694
17.0639,1694
17.0667,1707
17.0694,1713
17.0722,1730
17.0750,1732
17.0778,1727
17.0806,1731
17.0833,1736
17.0861,1746
17.0889,1715
17.0917,1726
17.0944,1714
17.0972,1699
17.1000,1688
17.1028,1682
17.1056,1671
17.1083,1658
17.1111,1657
17.1139,1658
17.1167,1661
17.1194,1642
17.1222,1627
17.1250,1628
17.1278,1625
17.1306,1640
17.1333,1648
17.1361,1649
17.1389,1637
17.1417,1628
17.1444,1612
17.1472,1618
17.1500,1628
17.1528,1630
17.1556,1617
17.1583,1606
17.1611,1591
17.1639,1587
17.1667,1594
17.1694,1612
17.1722,1618
17.1750,1616
17.1778,1601
17.1806,1598
17.1833,1592
17.1861,1599
17.1889,1608
17.1917,1621
17.1944,1628
17.1972,1626
17.2000,1621
17.2028,1626
17.2056,1630
17.2083,1629
17.2111,1637
17.2139,1638
17.2167,1637
17.2194,1641
17.2222,1637
17.2250,1644
17.2278,1645
17.2306,1641
17.2333,1636
17.2361,1638
17.2389,1642
17.2417,1650
17.2444,1646
17.2472,1642
17.2500,1645
17.2528,1651
17.2556,1647
17.2583,1644
17.2611,1637
17.2639,1641
17.2667,1641
17.2694,1641
17.2722,1650
17.2750,1646
17.2778,1659
17.2806,1656
17.2833,1653
17.2861,1648
17.2889,1644
17.2917,1648
17.2944,1651
17.2972,1652
17.3000,1652
17.3028,1644
17.3056,1646
17.3083,1653
17.3111,1657
17.3139,1651
17.3167,1646
17.3194,1648
17.3222,1650
17.3250,1648
17.3278,1645
17.3306,1651
17.3333,1639
17.3361,1643
17.3389,1639
17.3417,1647
17.3444,1626
17.3472,1625
17.3500,1639
17.3528,1639
17.3556,1650
17.3583,1657
17.3611,1650
17.3639,1640
17.3667,1642
17.3694,1629
17.3722,1628
17.3750,1634
17.3778,1635
17.3806,1630
17.3833,1630
17.3861,1634
17.3889,1636
17.3917,1628
17.3944,1639
17.3972,1649
17.4000,1647
17.4028,1654
17.4056,1656
17.4083,1661
17.4111,1660
17.4139,1658
17.4167,1664
17.4194,1668
17.4222,1664
17.4250,1659
17.4278,1662
17.4306,1651
17.4333,1643
17.4361,1637
17.4389,1634
17.4417,1629
17.4444,1631
17.4472,1641
17.4500,1655
17.4528,1656
17.4556,1665
17.4583,1656
17.4611,1655
17.4639,1653
17.4667,1644
17.4694,1650
17.4722,1659
17.4750,1663
17.4778,1658
17.4806,1663
17.4833,1670
17.4861,1710
17.4889,1753
17.4917,1777
17.4944,1795
17.4972,1787
17.5000,1762
17.5028,1742
17.5056,1729
17.5083,1710
17.5111,1699
17.5139,1689
17.5167,1693
17.5194,1690
17.5222,1679
17.5250,1661
17.5278,1651
17.5306,1633
17.5333,1627
17.5361,1634
17.5389,1629
17.5417,1639
17.5444,1630
17.5472,1628
17.5500,1618
17.5528,1619
17.5556,1616
17.5583,1618
17.5611,1618
17.5639,1623
17.5667,1617
17.5694,1621
17.5722,1621
17.5750,1639
17.5778,1647
17.5806,1642
17.5833,1646
17.5861,1644
17.5889,1647
17.5917,1656
17.5944,1651
17.5972,1645
17.6000,1647
17.6028,1633
17.6056,1642
17.6083,1646
17.6111,1650
17.6139,1656
17.6167,1653
17.6194,1656
17.6222,1627
17.6250,1597
17.6278,1578
17.6306,1604
17.6333,1734
17.6361,1904
17.6389,2124
17.6417,2343
17.6444,2614
17.6472,2905
17.6500,3210
17.6528,3369
17.6556,3365
17.6583,3364
17.6611,3364
17.6639,3300
17.6667,2904
17.6694,2408
17.6722,2037
17.6750,1820
17.6778,1700
17.6806,1638
17.6833,1601
17.6861,1584
17.6889,1573
17.6917,1553
17.6944,1534
17.6972,1517
17.7000,1486
17.7028,1473
17.7056,1458
17.7083,1465
17.7111,1483
17.7139,1478
17.7167,1484
17.7194,1461
17.7222,1458
17.7250,1459
17.7278,1474
17.7306,1483
17.7333,1498
17.7361,1513
17.7389,1504
17.7417,1503
17.7444,1496
17.7472,1505
17.7500,1524
17.7528,1522
17.7556,1525
17.7583,1516
17.7611,1513
17.7639,1509
17.7667,1520
17.7694,1551
17.7722,1574
17.7750,1574
17.7778,1567
17.7806,1539
17.7833,1535
17.7861,1523
17.7889,1541
17.7917,1553
17.7944,1564
17.7972,1587
17.8000,1582
17.8028,1587
17.8056,1589
17.8083,1610
17.8111,1618
17.8139,1625
17.8167,1624
17.8194,1630
17.8222,1640
17.8250,1644
17.8278,1645
17.8306,1650
17.8333,1665
17.8361,1669
17.8389,1646
17.8417,1651
17.8444,1655
17.8472,1673
17.8500,1690
17.8528,1692
17.8556,1702
17.8583,1700
17.8611,1717
17.8639,1727
17.8667,1741
17.8694,1746
17.8722,1731
17.8750,1718
17.8778,1695
17.8806,1675
17.8833,1664
17.8861,1652
17.8889,1652
17.8917,1652
17.8944,1638
17.8972,1619
17.9000,1611
17.9028,1609
17.9056,1610
17.9083,1618
17.9111,1615
17.9139,1623
17.9167,1612
17.9194,1617
17.9222,1604
17.9250,1614
17.9278,1615
17.9306,1617
17.9333,1619
17.9361,1622
17.9389,1620
17.9417,1611
17.9444,1603
17.9472,1604
17.9500,1608
17.9528,1611
17.9556,1619
17.9583,1627
17.9611,1627
17.9639,1620
17.9667,1605
17.9694,1603
17.9722,1611
17.9750,1610
17.9778,1613
17.9806,1617
17.9833,1616
17.9861,1627
17.9889,1630
17.9917,1635
17.9944,1640
17.9972,1644
18.0000,1629
18.0028,1632
18.0056,1628
18.0083,1618
18.0111,1625
18.0139,1635
18.0167,1651
18.0194,1653
18.0222,1662
18.0250,1635
18.0278,1631
18.0306,1626
18.0333,1641
18.0361,1643
18.0389,1643
18.0417,1649
18.0444,1666
18.0472,1664
18.0500,1675
18.0528,1679
18.0556,1672
18.0583,1652
18.0611,1636
18.0639,1639
18.0667,1647
18.0694,1644
18.0722,1650
18.0750,1651
18.0778,1657
18.0806,1664
18.0833,1671
18.0861,1666
18.0889,1662
18.0917,1659
18.0944,1646
18.0972,1641
18.1000,1644
18.1028,1643
18.1056,1651
18.1083,1655
18.1111,1663
18.1139,1658
18.1167,1647
18.1194,1637
18.1222,1630
18.1250,1636
18.1278,1644
18.1306,1655
18.1333,1658
18.1361,1657
18.1389,1659
18.1417,1659
18.1444,1651
18.1472,1647
18.1500,1638
18.1528,1636
18.1556,1635
18.1583,1634
18.1611,1631
18.1639,1643
18.1667,1653
18.1694,1672
18.1722,1673
18.1750,1670
18.1778,1675
18.1806,1676
18.1833,1666
18.1861,1660
18.1889,1657
18.1917,1669
18.1944,1673
18.1972,1679
18.2000,1679
18.2028,1677
18.2056,1687
18.2083,1687
18.2111,1682
18.2139,1680
18.2167,1675
18.2194,1678
18.2222,1674
18.2250,1675
18.2278,1692
18.2306,1706
18.2333,1705
18.2361,1710
18.2389,1698
18.2417,1688
18.2444,1684
18.2472,1692
18.2500,1694
18.2528,1703
18.2556,1697
18.2583,1708
18.2611,1716
18.2639,1717
18.2667,1729
18.2694,1735
18.2722,1738
18.2750,1752
18.2778,1756
18.2806,1764
18.2833,1773
18.2861,1796
18.2889,1821
18.2917,1851
18.2944,1874
18.2972,1858
18.3000,1836
18.3028,1806
18.3056,1789
18.3083,1774
18.3111,1769
18.3139,1757
18.3167,1735
18.3194,1721
18.3222,1712
18.3250,1715
18.3278,1701
18.3306,1695
18.3333,1673
18.3361,1674
18.3389,1673
18.3417,1684
18.3444,1687
18.3472,1681
18.3500,1678
18.3528,1674
18.3556,1653
18.3583,1644
18.3611,1649
18.3639,1652
18.3667,1656
18.3694,1667
18.3722,1673
18.3750,1677
18.3778,1673
18.3806,1675
18.3833,1678
18.3861,1686
18.3889,1685
18.3917,1676
18.3944,1676
18.3972,1680
18.4000,1685
18.4028,1676
18.4056,1678
18.4083,1688
18.4111,1695
18.4139,1708
18.4167,1717
18.4194,1712
18.4222,1684
18.4250,1644
18.4278,1612
18.4306,1608
18.4333,1691
18.4361,1843
18.4389,2058
18.4417,2289
18.4444,2537
18.4472,2809
18.4500,3102
18.4528,3359
18.4556,3368
18.4583,3367
18.4611,3366
18.4639,3371
18.4667,3257
18.4694,2834
18.4722,2366
18.4750,2026
18.4778,1839
18.4806,1723
18.4833,1671
18.4861,1640
18.4889,1611
18.4917,1599
18.4944,1578
18.4972,1562
18.5000,1535
18.5028,1513
18.5056,1505
18.5083,1503
18.5111,1522
18.5139,1550
18.5167,1558
18.5194,1553
18.5222,1549
18.5250,1527
18.5278,1525
18.5306,1529
18.5333,1553
18.5361,1569
18.5389,1565
18.5417,1557
18.5444,1543
18.5472,1546
18.5500,1553
18.5528,1572
18.5556,1581
18.5583,1583
18.5611,1591
18.5639,1591
18.5667,1585
18.5694,1590
18.5722,1598
18.5750,1606
18.5778,1622
18.5806,1629
18.5833,1616
18.5861,1610
18.5889,1607
18.5917,1614
18.5944,1622
18.5972,1633
18.6000,1625
18.6028,1616
18.6056,1616
18.6083,1622
18.6111,1638
18.6139,1646
18.6167,1658
18.6194,1654
18.6222,1653
18.6250,1649
18.6278,1653
18.6306,1662
18.6333,1677
18.6361,1688
18.6389,1701
18.6417,1701
18.6444,1710
18.6472,1717
18.6500,1720
18.6528,1730
18.6556,1738
18.6583,1743
18.6611,1746
18.6639,1756
18.6667,1772
18.6694,1751
18.6722,1753
18.6750,1753
18.6778,1746
18.6806,1713
18.6833,1690
18.6861,1681
18.6889,1661
18.6917,1643
18.6944,1645
18.6972,1641
18.7000,1643
18.7028,1626
18.7056,1621
18.7083,1618
18.7111,1622
18.7139,1624
18.7167,1608
18.7194,1601
18.7222,1586
18.7250,1567
18.7278,1576
18.7306,1581
18.7333,1585
18.7361,1595
18.7389,1589
18.7417,1583
18.7444,1567
18.7472,1560
18.7500,1556
18.7528,1566
18.7556,1564
18.7583,1566
18.7611,1561
18.7639,1556
18.7667,1550
18.7694,1562
18.7722,1553
18.7750,1570
18.7778,1559
18.7806,1554
18.7833,1543
18.7861,1532
18.7889,1526
18.7917,1531
18.7944,1531
18.7972,1542
18.8000,1533
18.8028,1513
18.8056,1510
18.8083,1511
18.8111,1536
18.8139,1542
18.8167,1540
18.8194,1542
18.8222,1538
18.8250,1542
18.8278,1545
18.8306,1542
18.8333,1550
18.8361,1554
18.8389,1542
18.8417,1538
18.8444,1526
18.8472,1524
18.8500,1524
18.8528,1528
18.8556,1532
18.8583,1521
18.8611,1512
18.8639,1508
18.8667,1512
18.8694,1517
18.8722,1512
18.8750,1507
18.8778,1506
18.8806,1507
18.8833,1493
18.8861,1492
18.8889,1498
18.8917,1492
18.8944,1492
18.8972,1494
18.9000,1487
18.9028,1483
18.9056,1465
18.9083,1469
18.9111,1473
18.9139,1478
18.9167,1481
18.9194,1467
18.9222,1458
18.9250,1448
18.9278,1445
18.9306,1432
18.9333,1426
18.9361,1431
18.9389,1437
18.9417,1431
18.9444,1432
18.9472,1433
18.9500,1431
18.9528,1431
18.9556,1431
18.9583,1419
18.9611,1419
18.9639,1411
18.9667,1410
18.9694,1419
18.9722,1430
18.9750,1434
18.9778,1427
18.9806,1410
18.9833,1397
18.9861,1386
18.9889,1379
18.9917,1382
18.9944,1376
18.9972,1375
19.0000,1370
19.0028,1370
19.0056,1367
19.0083,1362
19.0111,1364
19.0139,1352
19.0167,1345
19.0194,1337
19.0222,1336
19.0250,1323
19.0278,1317
19.0306,1312
19.0333,1313
19.0361,1304
19.0389,1314
19.0417,1327
19.0444,1315
19.0472,1320
19.0500,1324
19.0528,1320
19.0556,1329
19.0583,1338
19.0611,1336
19.0639,1344
19.0667,1345
19.0694,1339
19.0722,1348
19.0750,1344
19.0778,1337
19.0806,1337
19.0833,1344
19.0861,1346
19.0889,1357
19.0917,1386
19.0944,1421
19.0972,1446
19.1000,1443
19.1028,1433
19.1056,1413
19.1083,1379
19.1111,1364
19.1139,1363
19.1167,1353
19.1194,1328
19.1222,1302
19.1250,1277
19.1278,1265
19.1306,1267
19.1333,1261
19.1361,1248
19.1389,1244
19.1417,1235
19.1444,1234
19.1472,1242
19.1500,1234
19.1528,1227
19.1556,1217
19.1583,1219
19.1611,1189
19.1639,1190
19.1667,1194
19.1694,1188
19.1722,1184
19.1750,1176
19.1778,1174
19.1806,1182
19.1833,1178
19.1861,1184
19.1889,1177
19.1917,1170
19.1944,1160
19.1972,1157
19.2000,1163
19.2028,1161
19.2056,1165
19.2083,1164
19.2111,1160
19.2139,1155
19.2167,1140
19.2194,1127
19.2222,1115
19.2250,1102
19.2278,1079
19.2306,1048
19.2333,1045
19.2361,1127
19.2389,1261
19.2417,1447
19.2444,1660
19.2472,1886
19.2500,2137
19.2528,2428
19.2556,2733
19.2583,3027
19.2611,3225
19.2639,3145
19.2667,2755
19.2694,2215
19.2722,1738
19.2750,1417
19.2778,1261
19.2806,1197
19.2833,1161
19.2861,1123
19.2889,1078
19.2917,1021
19.2944,962
19.2972,906
19.3000,853
19.3028,828
19.3056,825
19.3083,829
19.3111,854
19.3139,866
19.3167,848
19.3194,818
19.3222,786
19.3250,772
19.3278,780
19.3306,808
19.3333,826
19.3361,824
19.3389,803
19.3417,786
19.3444,783
19.3472,793
19.3500,802
19.3528,811
19.3556,804
19.3583,787
19.3611,770
19.3639,762
19.3667,758
19.3694,767
19.3722,767
19.3750,766
19.3778,765
19.3806,749
19.3833,743
19.3861,744
19.3889,767
19.3917,764
19.3944,762
19.3972,750
19.4000,736
19.4028,722
19.4056,729
19.4083,751
19.4111,770
19.4139,774
19.4167,748
19.4194,732
19.4222,717
19.4250,717
19.4278,731
19.4306,755
19.4333,765
19.4361,767
19.4389,748
19.4417,740
19.4444,736
19.4472,761
19.4500,771
19.4528,794
19.4556,810
19.4583,806
19.4611,794
19.4639,798
19.4667,648
19.4694,660
19.4722,653
19.4750,636
19.4778,607
19.4806,578
19.4833,570
19.4861,563
19.4889,556
19.4917,543
19.4944,521
19.4972,495
19.5000,471
19.5028,457
19.5056,446
19.5083,448
19.5111,442
19.5139,438
19.5167,418
19.5194,393
19.5222,372
19.5250,363
19.5278,361
19.5306,369
19.5333,365
19.5361,353
19.5389,339
19.5417,332
19.5444,312
19.5472,310
19.5500,299
19.5528,291
19.5556,271
19.5583,243
19.5611,225
19.5639,211
19.5667,205
19.5694,212
19.5722,213
19.5750,207
19.5778,184
19.5806,159
19.5833,139
19.5861,132
19.5889,122
19.5917,124
19.5944,102
19.5972,79
19.6000,50
19.6028,95
19.6056,148
19.6083,170
19.6111,188
19.6139,186
19.6167,183
19.6194,175
19.6222,175
19.6250,181
19.6278,200
19.6306,241
19.6333,257
19.6361,277
19.6389,282
19.6417,299
19.6444,293
19.6472,320
19.6500,342
19.6528,363
19.6556,374
19.6583,389
19.6611,401
19.6639,411
19.6667,438
19.6694,466
19.6722,488
19.6750,506
19.6778,515
19.6806,521
19.6833,537
19.6861,560
19.6889,579
19.6917,604
19.6944,614
19.6972,628
19.7000,644
19.7028,650
19.7056,668
19.7083,690
19.7111,704
19.7139,715
19.7167,698
19.7194,699
19.7222,695
19.7250,686
19.7278,683
19.7306,745
19.7333,874
19.7361,1062
19.7389,1286
19.7417,1532
19.7444,1797
19.7472,2094
19.7500,2412
19.7528,2732
19.7556,2995
19.7583,3068
19.7611,2814
19.7639,2327
19.7667,1829
19.7694,1440
19.7722,1226
19.7750,1121
19.7778,1059
19.7806,1008
19.7833,970
19.7861,941
19.7889,928
19.7917,901
19.7944,863
19.7972,846
19.8000,830
19.8028,841
19.8056,863
19.8083,889
19.8111,896
19.8139,900
19.8167,886
19.8194,888
19.8222,899
19.8250,928
19.8278,956
19.8306,960
19.8333,950
19.8361,933
19.8389,922
19.8417,939
19.8444,969
19.8472,998
19.8500,1025
19.8528,1016
19.8556,1009
19.8583,1004
19.8611,1010
19.8639,1040
19.8667,1068
19.8694,1088
19.8722,1078
19.8750,1069
19.8778,1059
19.8806,1063
19.8833,1083
19.8861,1124
19.8889,1146
19.8917,1142
19.8944,1134
19.8972,1116
19.9000,1105
19.9028,1108
19.9056,1126
19.9083,1152
19.9111,1184
19.9139,1189
19.9167,1189
19.9194,1173
19.9222,1187
19.9250,1210
19.9278,1245
19.9306,1259
19.9333,1270
19.9361,1278
19.9389,1294
19.9417,1311
19.9444,1562
19.9472,1575
19.9500,1586
19.9528,1582
19.9556,1565
19.9583,1557
19.9611,1565
19.9639,1595
19.9667,1621
19.9694,1648
19.9722,1646
19.9750,1629
19.9778,1622
19.9806,1608
19.9833,1588
19.9861,1591
19.9889,1588
19.9917,1569
19.9944,1576
19.9972,1562
20.0000,1559
20.0028,1563
20.0056,1560
20.0083,1564
20.0111,1565
20.0139,1554
20.0167,1543
20.0194,1552
20.0222,1560
20.0250,1575
20.0278,1574
20.0306,1577
20.0333,1573
20.0361,1580
20.0389,1594
20.0417,1595
20.0444,1611
20.0472,1618
20.0500,1634
20.0528,1633
20.0556,1634
20.0583,1634
20.0611,1634
20.0639,1639
20.0667,1656
20.0694,1669
20.0722,1665
20.0750,1680
20.0778,1698
20.0806,1710
20.0833,1727
20.0861,1744
20.0889,1742
20.0917,1743
20.0944,1743
20.0972,1732
20.1000,1731
20.1028,1745
20.1056,1760
20.1083,1755
20.1111,1760
20.1139,1767
20.1167,1771
20.1194,1794
20.1222,1817
20.1250,1832
20.1278,1848
20.1306,1865
20.1333,1875
20.1361,1875
20.1389,1875
20.1417,1873
20.1444,1884
20.1472,1884
20.1500,1904
20.1528,1915
20.1556,1916
20.1583,1911
20.1611,1905
20.1639,1913
20.1667,1916
20.1694,1916
20.1722,1917
20.1750,1904
20.1778,1901
20.1806,1905
20.1833,1910
20.1861,1918
20.1889,1916
20.1917,1923
20.1944,1918
20.1972,1913
20.2000,1899
20.2028,1886
20.2056,1890
20.2083,1903
20.2111,1907
20.2139,1922
20.2167,1913
20.2194,1904
20.2222,1892
20.2250,1890
20.2278,1893
20.2306,1902
20.2333,1894
20.2361,1881
20.2389,1882
20.2417,1877
20.2444,1881
20.2472,1890
20.2500,1889
20.2528,1879
20.2556,1882
20.2583,1883
20.2611,1887
20.2639,1887
20.2667,1888
20.2694,1899
20.2722,1899
20.2750,1891
20.2778,1887
20.2806,1868
20.2833,1860
20.2861,1852
20.2889,1856
20.2917,1854
20.2944,1839
20.2972,1825
20.3000,1817
20.3028,1810
20.3056,1813
20.3083,1807
20.3111,1806
20.3139,1807
20.3167,1809
20.3194,1809
20.3222,1807
20.3250,1826
20.3278,1841
20.3306,1839
20.3333,1821
20.3361,1819
20.3389,1814
20.3417,1810
20.3444,1823
20.3472,1829
20.3500,1833
20.3528,1836
20.3556,1827
20.3583,1822
20.3611,1827
20.3639,1827
20.3667,1825
20.3694,1819
20.3722,1809
20.3750,1807
20.3778,1800
20.3806,1799
20.3833,1790
20.3861,1794
20.3889,1777
20.3917,1765
20.3944,1772
20.3972,1784
20.4000,1805
20.4028,1837
20.4056,1869
20.4083,1907
20.4111,1934
20.4139,1951
20.4167,1938
20.4194,1901
20.4222,1864
20.4250,1846
20.4278,1835
20.4306,1825
20.4333,1815
20.4361,1804
20.4389,1795
20.4417,1776
20.4444,1746
20.4472,1735
20.4500,1719
20.4528,1717
20.4556,1715
20.4583,1704
20.4611,1687
20.4639,1681
20.4667,1681
20.4694,1657
20.4722,1628
20.4750,1624
20.4778,1614
20.4806,1605
20.4833,1599
20.4861,1585
20.4889,1587
20.4917,1587
20.4944,1586
20.4972,1575
20.5000,1573
20.5028,1580
20.5056,1572
20.5083,1564
20.5111,1555
20.5139,1552
20.5167,1561
20.5194,1549
20.5222,1529
20.5250,1523
20.5278,1527
20.5306,1519
20.5333,1512
20.5361,1502
20.5389,1495
20.5417,1473
20.5444,1448
20.5472,1403
20.5500,1402
20.5528,1494
20.5556,1653
20.5583,1854
20.5611,2085
20.5639,2320
20.5667,2592
20.5694,2889
20.5722,3188
20.5750,3358
20.5778,3354
20.5806,3359
20.5833,3180
20.5861,2705
20.5889,2175
20.5917,1785
20.5944,1555
20.5972,1434
20.6000,1365
20.6028,1327
20.6056,1294
20.6083,1274
20.6111,1246
20.6139,1207
20.6167,1165
20.6194,1118
20.6222,1086
20.6250,1071
20.6278,1076
20.6306,1072
20.6333,1054
20.6361,1034
20.6389,1024
20.6417,1020
20.6444,1017
20.6472,1024
20.6500,1030
20.6528,1023
20.6556,1004
20.6583,971
20.6611,955
20.6639,950
20.6667,958
20.6694,975
20.6722,979
20.6750,959
20.6778,943
20.6806,923
20.6833,914
20.6861,907
20.6889,894
20.6917,874
20.6944,846
20.6972,821
20.7000,794
20.7028,781
20.7056,778
20.7083,767
20.7111,749
20.7139,731
20.7167,710
20.7194,687
20.7222,672
20.7250,663
20.7278,653
20.7306,643
20.7333,632
20.7361,607
20.7389,600
20.7417,572
20.7444,565
20.7472,571
20.7500,572
20.7528,569
20.7556,552
20.7583,535
20.7611,520
20.7639,518
20.7667,532
20.7694,549
20.7722,560
20.7750,548
20.7778,544
20.7806,543
20.7833,541
20.7861,415
20.7889,421
20.7917,403
20.7944,370
20.7972,351
20.8000,334
20.8028,335
20.8056,317
20.8083,317
20.8111,315
20.8139,303
20.8167,286
20.8194,278
20.8222,270
20.8250,267
20.8278,269
20.8306,271
20.8333,254
20.8361,255
20.8389,230
20.8417,231
20.8444,227
20.8472,240
20.8500,247
20.8528,248
20.8556,231
20.8583,220
20.8611,226
20.8639,233
20.8667,242
20.8694,242
20.8722,257
20.8750,245
20.8778,237
20.8806,239
20.8833,250
20.8861,260
20.8889,278
20.8917,272
20.8944,267
20.8972,260
20.9000,258
20.9028,259
20.9056,271
20.9083,275
20.9111,290
20.9139,274
20.9167,282
20.9194,288
20.9222,290
20.9250,295
20.9278,311
20.9306,318
20.9333,315
20.9361,309
20.9389,311
20.9417,321
20.9444,322
20.9472,349
20.9500,365
20.9528,359
20.9556,350
20.9583,345
20.9611,350
20.9639,351
20.9667,359
20.9694,360
20.9722,355
20.9750,360
20.9778,364
20.9806,377
20.9833,394
20.9861,406
20.9889,413
20.9917,411
20.9944,419
20.9972,411
21.0000,395
21.0028,395
21.0056,395
21.0083,413
21.0111,431
21.0139,435
21.0167,434
21.0194,441
21.0222,440
21.0250,448
21.0278,457
21.0306,458
21.0333,457
21.0361,465
21.0389,470
21.0417,476
21.0444,485
21.0472,487
21.0500,487
21.0528,496
21.0556,498
21.0583,512
21.0611,508
21.0639,518
21.0667,525
21.0694,540
21.0722,548
21.0750,551
21.0778,555
21.0806,549
21.0833,552
21.0861,571
21.0889,590
21.0917,604
21.0944,620
21.0972,624
21.1000,625
21.1028,637
21.1056,639
21.1083,641
21.1111,659
21.1139,672
21.1167,678
21.1194,685
21.1222,708
21.1250,714
21.1278,724
21.1306,732
21.1333,728
21.1361,730
21.1389,738
21.1417,750
21.1444,756
21.1472,759
21.1500,766
21.1528,780
21.1556,793
21.1583,813
21.1611,834
21.1639,843
21.1667,856
21.1694,868
21.1722,874
21.1750,874
21.1778,871
21.1806,874
21.1833,876
21.1861,887
21.1889,897
21.1917,906
21.1944,913
21.1972,921
21.2000,931
21.2028,943
21.2056,957
21.2083,967
21.2111,972
21.2139,978
21.2167,986
21.2194,995
21.2222,1021
21.2250,1046
21.2278,1070
21.2306,1117
21.2333,1150
21.2361,1158
21.2389,1157
21.2417,1144
21.2444,1127
21.2472,1120
21.2500,1124
21.2528,1119
21.2556,1110
21.2583,1101
21.2611,1098
21.2639,1092
21.2667,1094
21.2694,1082
21.2722,1072
21.2750,1075
21.2778,1076
21.2806,1089
21.2833,1102
21.2861,1117
21.2889,1140
21.2917,1151
21.2944,1160
21.2972,1167
21.3000,1159
21.3028,1172
21.3056,1182
21.3083,1200
21.3111,1208
21.3139,1194
21.3167,1200
21.3194,1198
21.3222,1209
21.3250,1216
21.3278,1218
21.3306,1228
21.3333,1234
21.3361,1242
21.3389,1247
21.3417,1249
21.3444,1246
21.3472,1264
21.3500,1267
21.3528,1266
21.3556,1275
21.3583,1286
21.3611,1285
21.3639,1292
21.3667,1272
21.3694,1245
21.3722,1232
21.3750,1293
21.3778,1419
21.3806,1620
21.3833,1846
21.3861,2081
21.3889,2354
21.3917,2643
21.3944,2956
21.3972,3279
21.4000,3353
21.4028,3358
21.4056,3228
21.4083,2801
21.4111,2291
21.4139,1880
21.4167,1651
21.4194,1552
21.4222,1517
21.4250,1476
21.4278,1437
21.4306,1421
21.4333,1387
21.4361,1350
21.4389,1329
21.4417,1304
21.4444,1303
21.4472,1322
21.4500,1349
21.4528,1376
21.4556,1376
21.4583,1362
21.4611,1338
21.4639,1332
21.4667,1343
21.4694,1358
21.4722,1385
21.4750,1395
21.4778,1394
21.4806,1389
21.4833,1383
21.4861,1391
21.4889,1415
21.4917,1430
21.4944,1441
21.4972,1440
21.5000,1434
21.5028,1432
21.5056,1431
21.5083,1462
21.5111,1479
21.5139,1487
21.5167,1488
21.5194,1496
21.5222,1485
21.5250,1505
21.5278,1528
21.5306,1556
21.5333,1571
21.5361,1577
21.5389,1575
21.5417,1566
21.5444,1574
21.5472,1585
21.5500,1612
21.5528,1622
21.5556,1634
21.5583,1640
21.5611,1638
21.5639,1638
21.5667,1650
21.5694,1665
21.5722,1697
21.5750,1712
21.5778,1719
21.5806,1718
21.5833,1728
21.5861,1747
21.5889,1769
21.5917,1800
21.5944,1816
21.5972,1821
21.6000,1817
21.6028,1830
21.6056,1845
21.6083,2033
21.6111,2033
21.6139,2026
21.6167,2022
21.6194,2016
21.6222,2025
21.6250,2030
21.6278,2026
21.6306,2031
21.6333,2030
21.6361,2004
21.6389,1999
21.6417,1994
21.6444,2002
21.6472,2006
21.6500,2026
21.6528,2035
21.6556,2034
21.6583,2028
21.6611,2033
21.6639,2034
21.6667,2047
21.6694,2060
21.6722,2057
21.6750,2075
21.6778,2082
21.6806,2066
21.6833,2057
21.6861,2059
21.6889,2075
21.6917,2080
21.6944,2097
21.6972,2110
21.7000,2121
21.7028,2116
21.7056,2109
21.7083,2110
21.7111,2129
21.7139,2137
21.7167,2146
21.7194,2152
21.7222,2150
21.7250,2147
21.7278,2148
21.7306,2164
21.7333,2167
21.7361,2172
21.7389,2183
21.7417,2186
21.7444,2197
21.7472,2202
21.7500,2207
21.7528,2227
21.7556,2225
21.7583,2229
21.7611,2223
21.7639,2230
21.7667,2248
21.7694,2262
21.7722,2271
21.7750,2263
21.7778,2260
21.7806,2252
21.7833,2268
21.7861,2273
21.7889,2285
21.7917,2285
21.7944,2282
21.7972,2280
21.8000,2275
21.8028,2278
21.8056,2274
21.8083,2291
21.8111,2305
21.8139,2322
21.8167,2323
21.8194,2311
21.8222,2315
21.8250,2293
21.8278,2292
21.8306,2270
21.8333,2283
21.8361,2291
21.8389,2287
21.8417,2284
21.8444,2291
21.8472,2307
21.8500,2309
21.8528,2300
21.8556,2307
21.8583,2305
21.8611,2322
21.8639,2327
21.8667,2322
21.8694,2317
21.8722,2321
21.8750,2317
21.8778,2315
21.8806,2321
21.8833,2337
21.8861,2342
21.8889,2358
21.8917,2348
21.8944,2344
21.8972,2329
21.9000,2321
21.9028,2321
21.9056,2326
21.9083,2333
21.9111,2336
21.9139,2337
21.9167,2337
21.9194,2333
21.9222,2330
21.9250,2320
21.9278,2320
21.9306,2328
21.9333,2341
21.9361,2334
21.9389,2330
21.9417,2339
21.9444,2326
21.9472,2334
21.9500,2336
21.9528,2332
21.9556,2322
21.9583,2314
21.9611,2328
21.9639,2334
21.9667,2318
21.9694,2328
21.9722,2334
21.9750,2349
21.9778,2358
21.9806,2356
21.9833,2353
21.9861,2363
21.9889,2372
21.9917,2378
21.9944,2373
21.9972,2364
22.0000,2341
22.0028,2344
22.0056,2342
22.0083,2350
22.0111,2346
22.0139,2360
22.0167,2364
22.0194,2373
22.0222,2373
22.0250,2383
22.0278,2386
22.0306,2393
22.0333,2388
22.0361,2385
22.0389,2393
22.0417,2397
22.0444,2405
22.0472,2407
22.0500,2436
22.0528,2465
22.0556,2488
22.0583,2515
22.0611,2511
22.0639,2475
22.0667,2442
22.0694,2414
22.0722,2405
22.0750,2398
22.0778,2396
22.0806,2388
22.0833,2375
22.0861,2365
22.0889,2348
22.0917,2331
22.0944,2325
22.0972,2319
22.1000,2315
22.1028,2320
22.1056,2325
22.1083,2332
22.1111,2323
22.1139,2313
22.1167,2299
22.1194,2284
22.1222,2287
22.1250,2292
22.1278,2313
22.1306,2319
22.1333,2321
22.1361,2318
22.1389,2315
22.1417,2310
22.1444,2307
22.1472,2317
22.1500,2300
22.1528,2303
22.1556,2301
22.1583,2310
22.1611,2305
22.1639,2295
22.1667,2286
22.1694,2281
22.1722,2282
22.1750,2307
22.1778,2305
22.1806,2296
22.1833,2297
22.1861,2294
22.1889,2272
22.1917,2249
22.1944,2253
22.1972,2314
22.2000,2451
22.2028,2646
22.2056,2866
22.2083,3096
22.2111,3341
22.2139,3361
22.2167,3375
22.2194,3385
22.2222,3384
22.2250,3378
22.2278,3363
22.2306,3358
22.2333,3361
22.2361,3359
22.2389,3314
22.2417,3006
22.2444,2636
22.2472,2338
22.2500,2177
22.2528,2128
22.2556,2120
22.2583,2132
22.2611,2134
22.2639,2150
22.2667,2153
22.2694,2141
22.2722,2124
22.2750,2101
22.2778,2091
22.2806,2097
22.2833,2098
22.2861,2102
22.2889,2102
22.2917,2084
22.2944,2078
22.2972,2080
22.3000,2093
22.3028,2101
22.3056,2115
22.3083,2113
22.3111,2116
22.3139,2119
22.3167,2123
22.3194,2125
22.3222,2127
22.3250,2124
22.3278,2121
22.3306,2122
22.3333,2115
22.3361,2103
22.3389,2102
22.3417,2116
22.3444,2127
22.3472,2136
22.3500,2147
22.3528,2154
22.3556,2145
22.3583,2146
22.3611,2139
22.3639,2135
22.3667,2148
22.3694,2158
22.3722,2161
22.3750,2161
22.3778,2163
22.3806,2159
22.3833,2165
22.3861,2167
22.3889,2170
22.3917,2185
22.3944,2173
22.3972,2176
22.4000,2192
22.4028,2205
22.4056,2220
22.4083,2224
22.4111,2232
22.4139,2224
22.4167,2223
22.4194,2228
22.4222,2239
22.4250,2250
22.4278,2264
22.4306,2266
22.4333,2274
22.4361,2277
22.4389,2284
22.4417,2138
22.4444,2136
22.4472,2117
22.4500,2103
22.4528,2073
22.4556,2062
22.4583,2040
22.4611,2028
22.4639,2024
22.4667,2034
22.4694,2024
22.4722,2020
22.4750,2007
22.4778,2000
22.4806,1998
22.4833,1989
22.4861,1981
22.4889,1975
22.4917,1969
22.4944,1968
22.4972,1963
22.5000,1972
22.5028,1981
22.5056,1988
22.5083,1988
22.5111,1966
22.5139,1947
22.5167,1953
22.5194,1955
22.5222,1968
22.5250,1970
22.5278,1987
22.5306,1980
22.5333,1972
22.5361,1963
22.5389,1967
22.5417,1970
22.5444,1971
22.5472,1967
22.5500,1958
22.5528,1954
22.5556,1955
22.5583,1966
22.5611,1976
22.5639,1975
22.5667,1989
22.5694,1999
22.5722,1994
22.5750,1983
22.5778,1985
22.5806,1992
22.5833,1988
22.5861,1983
22.5889,1974
22.5917,1972
22.5944,1957
22.5972,1971
22.6000,1973
22.6028,1991
22.6056,1995
22.6083,1984
22.6111,1974
22.6139,1958
22.6167,1953
22.6194,1953
22.6222,1957
22.6250,1959
22.6278,1972
22.6306,1968
22.6333,1965
22.6361,1965
22.6389,1957
22.6417,1961
22.6444,1976
22.6472,1982
22.6500,1979
22.6528,1983
22.6556,1966
22.6583,1954
22.6611,1943
22.6639,1948
22.6667,1945
22.6694,1952
22.6722,1955
22.6750,1951
22.6778,1951
22.6806,1953
22.6833,1949
22.6861,1942
22.6889,1927
22.6917,1917
22.6944,1919
22.6972,1910
22.7000,1924
22.7028,1929
22.7056,1934
22.7083,1926
22.7111,1921
22.7139,1903
22.7167,1880
22.7194,1873
22.7222,1868
22.7250,1873
22.7278,1888
22.7306,1887
22.7333,1886
22.7361,1892
22.7389,1896
22.7417,1900
22.7444,1895
22.7472,1898
22.7500,1897
22.7528,1902
22.7556,1902
22.7583,1905
22.7611,1901
22.7639,1894
22.7667,1887
22.7694,1885
22.7722,1887
22.7750,1884
22.7778,1871
22.7806,1879
22.7833,1877
22.7861,1881
22.7889,1885
22.7917,1889
22.7944,1881
22.7972,1880
22.8000,1872
22.8028,1870
22.8056,1871
22.8083,1870
22.8111,1873
22.8139,1889
22.8167,1892
22.8194,1889
22.8222,1894
22.8250,1888
22.8278,1890
22.8306,1888
22.8333,1898
22.8361,1900
22.8389,1900
22.8417,1900
22.8444,1895
22.8472,1893
22.8500,1888
22.8528,1874
22.8556,1879
22.8583,1893
22.8611,1904
22.8639,1926
22.8667,1929
22.8694,1932
22.8722,1929
22.8750,1928
22.8778,1908
22.8806,1906
22.8833,1900
22.8861,1903
22.8889,1926
22.8917,1958
22.8944,1979
22.8972,2017
22.9000,2034
22.9028,2035
22.9056,2021
22.9083,2002
22.9111,1978
22.9139,1959
22.9167,1954
22.9194,1942
22.9222,1929
22.9250,1904
22.9278,1895
22.9306,1877
22.9333,1864
22.9361,1862
22.9389,1866
22.9417,1868
22.9444,1868
22.9472,1863
22.9500,1856
22.9528,1861
22.9556,1867
22.9583,1860
22.9611,1848
22.9639,1846
22.9667,1855
22.9694,1856
22.9722,1855
22.9750,1862
22.9778,1861
22.9806,1865
22.9833,1868
22.9861,1876
22.9889,1878
22.9917,1872
22.9944,1866
22.9972,1867
23.0000,1860
23.0028,1863
23.0056,1864
23.0083,1864
23.0111,1875
23.0139,1875
23.0167,1891
23.0194,1884
23.0222,1878
23.0250,1871
23.0278,1868
23.0306,1838
23.0333,1800
23.0361,1766
23.0389,1813
23.0417,1928
23.0444,2107
23.0472,2329
23.0500,2542
23.0528,2791
23.0556,3061
23.0583,3341
23.0611,3358
23.0639,3371
23.0667,3378
23.0694,3370
23.0722,3371
23.0750,3253
23.0778,2834
23.0806,2425
23.0833,2138
23.0861,1968
23.0889,1875
23.0917,1819
23.0944,1799
23.0972,1782
23.1000,1772
23.1028,1765
23.1056,1752
23.1083,1736
23.1111,1717
23.1139,1700
23.1167,1698
23.1194,1720
23.1222,1731
23.1250,1732
23.1278,1730
23.1306,1715
23.1333,1704
23.1361,1713
23.1389,1719
23.1417,1738
23.1444,1748
23.1472,1736
23.1500,1713
23.1528,1702
23.1556,1709
23.1583,1732
23.1611,1747
23.1639,1763
23.1667,1754
23.1694,1749
23.1722,1743
23.1750,1734
23.1778,1746
23.1806,1773
23.1833,1794
23.1861,1800
23.1889,1787
23.1917,1779
23.1944,1773
23.1972,1774
23.2000,1788
23.2028,1808
23.2056,1820
23.2083,1825
23.2111,1820
23.2139,1820
23.2167,1835
23.2194,1852
23.2222,1861
23.2250,1868
23.2278,1860
23.2306,1863
23.2333,1872
23.2361,1852
23.2389,1869
23.2417,1863
23.2444,1865
23.2472,1866
23.2500,1856
23.2528,1865
23.2556,1873
23.2583,1883
23.2611,1907
23.2639,1902
23.2667,1916
23.2694,1911
23.2722,1914
23.2750,1927
23.2778,1894
23.2806,1894
23.2833,1894
23.2861,1879
23.2889,1861
23.2917,1853
23.2944,1840
23.2972,1835
23.3000,1827
23.3028,1813
23.3056,1814
23.3083,1806
23.3111,1802
23.3139,1795
23.3167,1801
23.3194,1790
23.3222,1789
23.3250,1781
23.3278,1773
23.3306,1764
23.3333,1747
23.3361,1741
23.3389,1749
23.3417,1755
23.3444,1749
23.3472,1746
23.3500,1726
23.3528,1715
23.3556,1703
23.3583,1697
23.3611,1709
23.3639,1723
23.3667,1721
23.3694,1716
23.3722,1703
23.3750,1695
23.3778,1696
23.3806,1696
23.3833,1701
23.3861,1705
23.3889,1697
23.3917,1687
23.3944,1674
23.3972,1680
23.4000,1685
23.4028,1685
23.4056,1694
23.4083,1693
23.4111,1691
23.4139,1693
23.4167,1700
23.4194,1703
23.4222,1699
23.4250,1705
23.4278,1699
23.4306,1688
23.4333,1685
23.4361,1681
23.4389,1686
23.4417,1696
23.4444,1700
23.4472,1691
23.4500,1703
23.4528,1696
23.4556,1699
23.4583,1706
23.4611,1696
23.4639,1716
23.4667,1707
23.4694,1706
23.4722,1695
23.4750,1686
23.4778,1678
23.4806,1666
23.4833,1667
23.4861,1662
23.4889,1663
23.4917,1664
23.4944,1665
23.4972,1670
23.5000,1666
23.5028,1656
23.5056,1651
23.5083,1655
23.5111,1662
23.5139,1672
23.5167,1667
23.5194,1656
23.5222,1657
23.5250,1652
23.5278,1650
23.5306,1628
23.5333,1621
23.5361,1618
23.5389,1630
23.5417,1631
23.5444,1635
23.5472,1638
23.5500,1634
23.5528,1631
23.5556,1631
23.5583,1627
23.5611,1632
23.5639,1630
23.5667,1624
23.5694,1611
23.5722,1607
23.5750,1601
23.5778,1609
23.5806,1614
23.5833,1623
23.5861,1617
23.5889,1624
23.5917,1612
23.5944,1608
23.5972,1599
23.6000,1603
23.6028,1606
23.6056,1596
23.6083,1594
23.6111,1596
23.6139,1590
23.6167,1583
23.6194,1588
23.6222,1592
23.6250,1595
23.6278,1608
23.6306,1596
23.6333,1590
23.6361,1583
23.6389,1589
23.6417,1597
23.6444,1600
23.6472,1597
23.6500,1601
23.6528,1609
23.6556,1616
23.6583,1614
23.6611,1615
23.6639,1616
23.6667,1611
23.6694,1604
23.6722,1599
23.6750,1603
23.6778,1606
23.6806,1598
23.6833,1595
23.6861,1593
23.6889,1594
23.6917,1597
23.6944,1608
23.6972,1618
23.7000,1611
23.7028,1609
23.7056,1619
23.7083,1624
23.7111,1626
23.7139,1631
23.7167,1640
23.7194,1660
23.7222,1689
23.7250,1710
23.7278,1726
23.7306,1714
23.7333,1700
23.7361,1675
23.7389,1656
23.7417,1650
23.7444,1641
23.7472,1641
23.7500,1621
23.7528,1611
23.7556,1599
23.7583,1590
23.7611,1587
23.7639,1578
23.7667,1561
23.7694,1554
23.7722,1553
23.7750,1567
23.7778,1566
23.7806,1571
23.7833,1561
23.7861,1554
23.7889,1551
23.7917,1555
23.7944,1556
23.7972,1541
23.8000,1527
23.8028,1525
23.8056,1517
23.8083,1528
23.8111,1537
23.8139,1536
23.8167,1539
23.8194,1543
23.8222,1545
23.8250,1556
23.8278,1559
23.8306,1564
23.8333,1561
23.8361,1553
23.8389,1545
23.8417,1552
23.8444,1555
23.8472,1558
23.8500,1564
23.8528,1557
23.8556,1548
23.8583,1524
23.8611,1510
23.8639,1498
23.8667,1576
23.8694,1725
23.8722,1927
23.8750,2142
23.8778,2381
23.8806,2645
23.8833,2935
23.8861,3246
23.8889,3353
23.8917,3363
23.8944,3366
23.8972,3331
23.9000,2998
23.9028,2500
23.9056,2068
23.9083,1818
23.9111,1689
23.9139,1607
23.9167,1572
23.9194,1539
23.9222,1494
23.9250,1465
23.9278,1451
23.9306,1423
23.9333,1396
23.9361,1378
23.9389,1388
23.9417,1404
23.9444,1422
23.9472,1422
23.9500,1407
23.9528,1402
23.9556,1398
23.9583,1401
23.9611,1429
23.9639,1442
23.9667,1441
23.9694,1421
23.9722,1413
23.9750,1404
23.9778,1410
23.9806,1415
23.9833,1448
23.9861,1453
23.9889,1456
23.9917,1446
23.9944,1448
23.9972,1450
24.0000,1461
24.0028,1467
24.0056,1466
24.0083,1467
24.0111,1460
24.0139,1457
24.0167,1438
24.0194,1445
24.0222,1452
24.0250,1478
24.0278,1495
24.0306,1511
24.0333,1500
24.0361,1501
24.0389,1499
24.0417,1511
24.0444,1521
24.0472,1522
24.0500,1523
24.0528,1523
24.0556,1526
24.0583,1526
24.0611,1531
24.0639,1535
24.0667,1545
24.0694,1553
24.0722,1546
24.0750,1556
24.0778,1555
24.0806,1575
24.0833,1595
24.0861,1609
24.0889,1603
24.0917,1598
24.0944,1599
24.0972,1614
24.1000,1625
24.1028,1637
24.1056,1630
24.1083,1631
24.1111,1616
24.1139,1587
24.1167,1574
24.1194,1562
24.1222,1555
24.1250,1554
24.1278,1542
24.1306,1542
24.1333,1529
24.1361,1528
24.1389,1515
24.1417,1520
24.1444,1521
24.1472,1519
24.1500,1505
24.1528,1492
24.1556,1489
24.1583,1502
24.1611,1521
24.1639,1535
24.1667,1534
24.1694,1519
24.1722,1516
24.1750,1513
24.1778,1507
24.1806,1513
24.1833,1522
24.1861,1517
24.1889,1507
24.1917,1504
24.1944,1516
24.1972,1516
24.2000,1531
24.2028,1537
24.2056,1546
24.2083,1538
24.2111,1538
24.2139,1519
24.2167,1524
24.2194,1522
24.2222,1524
24.2250,1550
24.2278,1564
24.2306,1569
24.2333,1555
24.2361,1543
24.2389,1529
24.2417,1532
24.2444,1540
24.2472,1559
24.2500,1561
24.2528,1567
24.2556,1570
24.2583,1578
24.2611,1592
24.2639,1613
24.2667,1621
24.2694,1619
24.2722,1608
24.2750,1600
24.2778,1591
24.2806,1585
24.2833,1572
24.2861,1570
24.2889,1563
24.2917,1572
24.2944,1579
24.2972,1585
24.3000,1589
24.3028,1594
24.3056,1587
24.3083,1568
24.3111,1556
24.3139,1552
24.3167,1561
24.3194,1565
24.3222,1561
24.3250,1563
24.3278,1566
24.3306,1563
24.3333,1562
24.3361,1561
24.3389,1555
24.3417,1561
24.3444,1576
24.3472,1576
24.3500,1583
24.3528,1583
24.3556,1583
24.3583,1579
24.3611,1571
24.3639,1577
24.3667,1585
24.3694,1596
24.3722,1601
24.3750,1600
24.3778,1588
24.3806,1590
24.3833,1594
24.3861,1605
24.3889,1608
24.3917,1604
24.3944,1613
24.3972,1614
24.4000,1618
24.4028,1622
24.4056,1623
24.4083,1617
24.4111,1611
24.4139,1609
24.4167,1606
24.4194,1615
24.4222,1625
24.4250,1632
24.4278,1641
24.4306,1645
24.4333,1649
24.4361,1661
24.4389,1670
24.4417,1660
24.4444,1667
24.4472,1672
24.4500,1670
24.4528,1670
24.4556,1669
24.4583,1649
24.4611,1660
24.4639,1665
24.4667,1656
24.4694,1662
24.4722,1661
24.4750,1667
24.4778,1676
24.4806,1684
24.4833,1681
24.4861,1676
24.4889,1672
24.4917,1676
24.4944,1673
24.4972,1678
24.5000,1677
24.5028,1670
24.5056,1677
24.5083,1671
24.5111,1678
24.5139,1673
24.5167,1671
24.5194,1677
24.5222,1696
24.5250,1699
24.5278,1703
24.5306,1702
24.5333,1694
24.5361,1699
24.5389,1715
24.5417,1719
24.5444,1726
24.5472,1732
24.5500,1727
24.5528,1737
24.5556,1734
24.5583,1733
24.5611,1739
24.5639,1748
24.5667,1767
24.5694,1806
24.5722,1837
24.5750,1871
24.5778,1876
24.5806,1868
24.5833,1841
24.5861,1814
24.5889,1802
24.5917,1781
24.5944,1768
24.5972,1754
24.6000,1750
24.6028,1741
24.6056,1735
24.6083,1721
24.6111,1709
24.6139,1690
24.6167,1689
24.6194,1687
24.6222,1712
24.6250,1711
24.6278,1710
24.6306,1711
24.6333,1711
24.6361,1706
24.6389,1697
24.6417,1698
24.6444,1707
24.6472,1714
24.6500,1695
24.6528,1700
24.6556,1699
24.6583,1698
24.6611,1710
24.6639,1718
24.6667,1724
24.6694,1732
24.6722,1724
24.6750,1727
24.6778,1711
24.6806,1718
24.6833,1716
24.6861,1730
24.6889,1727
24.6917,1734
24.6944,1729
24.6972,1728
24.7000,1728
24.7028,1727
24.7056,1713
24.7083,1692
24.7111,1664
24.7139,1673
24.7167,1769
24.7194,1923
24.7222,2133
24.7250,2352
24.7278,2591
24.7306,2864
24.7333,3166
24.7361,3356
24.7389,3358
24.7417,3371
24.7444,3371
24.7472,3366
24.7500,3219
24.7528,2772
24.7556,2324
24.7583,2033
24.7611,1859
24.7639,1772
24.7667,1719
24.7694,1689
24.7722,1669
24.7750,1642
24.7778,1637
24.7806,1620
24.7833,1606
24.7861,1589
24.7889,1575
24.7917,1573
24.7944,1586
24.7972,1603
24.8000,1605
24.8028,1590
24.8056,1583
24.8083,1580
24.8111,1587
24.8139,1592
24.8167,1608
24.8194,1613
24.8222,1615
24.8250,1601
24.8278,1596
24.8306,1599
24.8333,1611
24.8361,1628
24.8389,1643
24.8417,1651
24.8444,1648
24.8472,1650
24.8500,1658
24.8528,1672
24.8556,1686
24.8583,1687
24.8611,1689
24.8639,1685
24.8667,1671
24.8694,1668
24.8722,1677
24.8750,1691
24.8778,1711
24.8806,1721
24.8833,1717
24.8861,1715
24.8889,1699
24.8917,1709
24.8944,1706
24.8972,1726
24.9000,1725
24.9028,1721
24.9056,1723
24.9083,1727
24.9111,1735
24.9139,1753
24.9167,1759
24.9194,1768
24.9222,1766
24.9250,1764
24.9278,1766
24.9306,1776
24.9333,1788
24.9361,1806
24.9389,1827
24.9417,1835
24.9444,1836
24.9472,1841
24.9500,1841
24.9528,1829
24.9556,1839
24.9583,1824
24.9611,1818
24.9639,1789
24.9667,1759
24.9694,1744
24.9722,1721
24.9750,1728
24.9778,1734
24.9806,1733
24.9833,1739
24.9861,1731
24.9889,1720
24.9917,1714
24.9944,1717
24.9972,1716
25.0000,1723
25.0028,1722
25.0056,1707
25.0083,1712
25.0111,1705
25.0139,1706
25.0167,1712
25.0194,1710
25.0222,1714
25.0250,1708
25.0278,1716
25.0306,1725
25.0333,1733
25.0361,1731
25.0389,1729
25.0417,1721
25.0444,1708
25.0472,1703
25.0500,1708
25.0528,1717
25.0556,1717
25.0583,1727
25.0611,1735
25.0639,1742
25.0667,1740
25.0694,1728
25.0722,1729
25.0750,1732
25.0778,1740
25.0806,1745
25.0833,1758
25.0861,1758
25.0889,1770
25.0917,1766
25.0944,1759
25.0972,1757
25.1000,1753
25.1028,1753
25.1056,1757
25.1083,1761
25.1111,1761
25.1139,1770
25.1167,1780
25.1194,1780
25.1222,1789
25.1250,1793
25.1278,1787
25.1306,1783
25.1333,1783
25.1361,1796
25.1389,1795
25.1417,1793
25.1444,1792
25.1472,1796
25.1500,1796
25.1528,1795
25.1556,1803
25.1583,1800
25.1611,1802
25.1639,1796
25.1667,1793
25.1694,1797
25.1722,1793
25.1750,1801
25.1778,1792
25.1806,1793
25.1833,1788
25.1861,1790
25.1889,1797
25.1917,1786
25.1944,1807
25.1972,1815
25.2000,1820
25.2028,1814
25.2056,1814
25.2083,1809
25.2111,1803
25.2139,1797
25.2167,1801
25.2194,1812
25.2222,1815
25.2250,1827
25.2278,1822
25.2306,1809
25.2333,1804
25.2361,1786
25.2389,1787
25.2417,1785
25.2444,1787
25.2472,1792
25.2500,1808
25.2528,1814
25.2556,1817
25.2583,1815
25.2611,1815
25.2639,1815
25.2667,1815
25.2694,1800
25.2722,1809
25.2750,1804
25.2778,1813
25.2806,1810
25.2833,1805
25.2861,1805
25.2889,1810
25.2917,1828
25.2944,1829
25.2972,1828
25.3000,1823
25.3028,1824
25.3056,1816
25.3083,1813
25.3111,1818
25.3139,1831
25.3167,1836
25.3194,1845
25.3222,1837
25.3250,1831
25.3278,1838
25.3306,1834
25.3333,1838
25.3361,1852
25.3389,1861
25.3417,1856
25.3444,1854
25.3472,1855
25.3500,1833
25.3528,1837
25.3556,1836
25.3583,1854
25.3611,1858
25.3639,1858
25.3667,1855
25.3694,1861
25.3722,1852
25.3750,1854
25.3778,1862
25.3806,1858
25.3833,1871
25.3861,1875
25.3889,1874
25.3917,1876
25.3944,1889
25.3972,1889
25.4000,1872
25.4028,1867
25.4056,1859
25.4083,1866
25.4111,1868
25.4139,1875
25.4167,1886
25.4194,1888
25.4222,1895
25.4250,1910
25.4278,1912
25.4306,1932
25.4333,1950
25.4361,1973
25.4389,1993
25.4417,2001
25.4444,1995
25.4472,1970
25.4500,1950
25.4528,1930
25.4556,1932
25.4583,1933
25.4611,1929
25.4639,1908
25.4667,1889
25.4694,1871
25.4722,1861
25.4750,1853
25.4778,1850
25.4806,1850
25.4833,1845
25.4861,1849
25.4889,1857
25.4917,1858
25.4944,1865
25.4972,1870
25.5000,1864
25.5028,1858
25.5056,1853
25.5083,1852
25.5111,1846
25.5139,1848
25.5167,1840
25.5194,1849
25.5222,1853
25.5250,1874
25.5278,1877
25.5306,1887
25.5333,1883
25.5361,1886
25.5389,1891
25.5417,1886
25.5444,1887
25.5472,1884
25.5500,1888
25.5528,1883
25.5556,1894
25.5583,1901
25.5611,1905
25.5639,1904
25.5667,1894
25.5694,1881
25.5722,1852
25.5750,1823
25.5778,1843
25.5806,1943
25.5833,2107
25.5861,2312
25.5889,2524
25.5917,2755
25.5944,3022
25.5972,3309
25.6000,3366
25.6028,3365
25.6056,3367
25.6083,3371
25.6111,3369
25.6139,3322
25.6167,2997
25.6194,2583
25.6222,2233
25.6250,2025
25.6278,1898
25.6306,1842
25.6333,1798
25.6361,1784
25.6389,1768
25.6417,1773
25.6444,1773
25.6472,1760
25.6500,1742
25.6528,1722
25.6556,1710
25.6583,1713
25.6611,1734
25.6639,1744
25.6667,1752
25.6694,1741
25.6722,1732
25.6750,1722
25.6778,1722
25.6806,1735
25.6833,1743
25.6861,1742
25.6889,1736
25.6917,1733
25.6944,1714
25.6972,1731
25.7000,1744
25.7028,1748
25.7056,1745
25.7083,1727
25.7111,1734
25.7139,1740
25.7167,1750
25.7194,1774
25.7222,1797
25.7250,1804
25.7278,1800
25.7306,1791
25.7333,1778
25.7361,1784
25.7389,1782
25.7417,1794
25.7444,1817
25.7472,1827
25.7500,1834
25.7528,1830
25.7556,1836
25.7583,1838
25.7611,1845
25.7639,1845
25.7667,1843
25.7694,1853
25.7722,1850
25.7750,1860
25.7778,1876
25.7806,1887
25.7833,1894
25.7861,1893
25.7889,1888
25.7917,1879
25.7944,1884
25.7972,1915
25.8000,1922
25.8028,1936
25.8056,1960
25.8083,1952
25.8111,1948
25.8139,1956
25.8167,1951
25.8194,1956
25.8222,1953
25.8250,1940
25.8278,1920
25.8306,1898
25.8333,1882
25.8361,1867
25.8389,1863
25.8417,1869
25.8444,1874
25.8472,1870
25.8500,1857
25.8528,1846
25.8556,1841
25.8583,1842
25.8611,1846
25.8639,1846
25.8667,1823
25.8694,1811
25.8722,1801
25.8750,1800
25.8778,1805
25.8806,1800
25.8833,1810
25.8861,1819
25.8889,1818
25.8917,1805
25.8944,1808
25.8972,1803
25.9000,1806
25.9028,1802
25.9056,1804
25.9083,1797
25.9111,1787
25.9139,1792
25.9167,1808
25.9194,1816
25.9222,1815
25.9250,1822
25.9278,1804
25.9306,1795
25.9333,1784
25.9361,1798
25.9389,1806
25.9417,1815
25.9444,1816
25.9472,1821
25.9500,1813
25.9528,1812
25.9556,1806
25.9583,1816
25.9611,1818
25.9639,1821
25.9667,1816
25.9694,1815
25.9722,1804
25.9750,1803
25.9778,1802
25.9806,1814
25.9833,1821
25.9861,1830
25.9889,1821
25.9917,1806
25.9944,1807
25.9972,1805
26.0000,1805
26.0028,1815
26.0056,1802
26.0083,1798
26.0111,1798
26.0139,1785
26.0167,1782
26.0194,1784
26.0222,1786
26.0250,1797
26.0278,1791
26.0306,1788
26.0333,1775
26.0361,1777
26.0389,1774
26.0417,1773
26.0444,1779
26.0472,1778
26.0500,1772
26.0528,1763
26.0556,1761
26.0583,1750
26.0611,1744
26.0639,1744
26.0667,1742
26.0694,1752
26.0722,1745
26.0750,1741
26.0778,1741
26.0806,1729
26.0833,1730
26.0861,1719
26.0889,1723
26.0917,1721
26.0944,1722
26.0972,1715
26.1000,1719
26.1028,1717
26.1056,1702
26.1083,1697
26.1111,1693
26.1139,1693
26.1167,1698
26.1194,1715
26.1222,1714
26.1250,1712
26.1278,1702
26.1306,1695
26.1333,1687
26.1361,1673
26.1389,1685
26.1417,1684
26.1444,1704
26.1472,1705
26.1500,1714
26.1528,1718
26.1556,1715
26.1583,1716
26.1611,1715
26.1639,1703
26.1667,1690
26.1694,1685
26.1722,1685
26.1750,1691
26.1778,1684
26.1806,1679
26.1833,1689
26.1861,1689
26.1889,1690
26.1917,1681
26.1944,1690
26.1972,1690
26.2000,1685
26.2028,1685
26.2056,1690
26.2083,1689
26.2111,1697
26.2139,1706
26.2167,1699
26.2194,1691
26.2222,1682
26.2250,1674
26.2278,1675
26.2306,1663
26.2333,1667
26.2361,1665
26.2389,1682
26.2417,1702
26.2444,1712
26.2472,1710
26.2500,1709
26.2528,1701
26.2556,1700
26.2583,1692
26.2611,1696
26.2639,1693
26.2667,1694
26.2694,1697
26.2722,1716
26.2750,1742
26.2778,1783
26.2806,1803
26.2833,1812
26.2861,1794
26.2889,1761
26.2917,1747
26.2944,1729
26.2972,1711
26.3000,1702
26.3028,1686
26.3056,1679
26.3083,1672
26.3111,1661
26.3139,1665
26.3167,1656
26.3194,1649
26.3222,1656
26.3250,1646
26.3278,1652
26.3306,1656
26.3333,1646
26.3361,1640
26.3389,1641
26.3417,1648
26.3444,1649
26.3472,1647
26.3500,1646
26.3528,1640
26.3556,1649
26.3583,1644
26.3611,1650
26.3639,1653
26.3667,1651
26.3694,1657
26.3722,1654
26.3750,1654
26.3778,1647
26.3806,1651
26.3833,1642
26.3861,1654
26.3889,1650
26.3917,1656
26.3944,1663
26.3972,1666
26.4000,1667
26.4028,1663
26.4056,1658
26.4083,1648
26.4111,1626
26.4139,1594
26.4167,1584
26.4194,1654
26.4222,1819
26.4250,2014
26.4278,2220
26.4306,2445
26.4333,2702
26.4361,2986
26.4389,3292
26.4417,3363
26.4444,3357
26.4472,3364
26.4500,3359
26.4528,3129
26.4556,2655
26.4583,2205
26.4611,1926
26.4639,1785
26.4667,1698
26.4694,1641
26.4722,1603
26.4750,1573
26.4778,1556
26.4806,1544
26.4833,1528
26.4861,1499
26.4889,1477
