Tiempo(s),Valor_ADC
0.0028,1733
0.0056,1723
0.0083,1734
0.0111,1749
0.0139,1755
0.0167,1744
0.0194,1727
0.0222,1706
0.0250,1689
0.0278,1690
0.0306,1704
0.0333,1719
0.0361,1715
0.0389,1705
0.0417,1688
0.0444,1675
0.0472,1673
0.0500,1678
0.0528,1683
0.0556,1686
0.0583,1681
0.0611,1671
0.0639,1664
0.0667,1673
0.0694,1682
0.0722,1695
0.0750,1695
0.0778,1673
0.0806,1660
0.0833,1657
0.0861,1646
0.0889,1661
0.0917,1671
0.0944,1672
0.0972,1670
0.1000,1663
0.1028,1660
0.1056,1669
0.1083,1680
0.1111,1691
0.1139,1679
0.1167,1668
0.1194,1660
0.1222,1651
0.1250,1646
0.1278,1711
0.1306,1721
0.1333,1735
0.1361,1745
0.1389,1741
0.1417,1749
0.1444,1752
0.1472,1751
0.1500,1760
0.1528,1766
0.1556,1766
0.1583,1769
0.1611,1747
0.1639,1741
0.1667,1739
0.1694,1752
0.1722,1764
0.1750,1755
0.1778,1746
0.1806,1721
0.1833,1701
0.1861,1688
0.1889,1682
0.1917,1675
0.1944,1667
0.1972,1645
0.2000,1636
0.2028,1615
0.2056,1607
0.2083,1605
0.2111,1601
0.2139,1593
0.2167,1586
0.2194,1569
0.2222,1567
0.2250,1557
0.2278,1558
0.2306,1554
0.2333,1548
0.2361,1558
0.2389,1537
0.2417,1519
0.2444,1510
0.2472,1505
0.2500,1516
0.2528,1525
0.2556,1548
0.2583,1545
0.2611,1544
0.2639,1547
0.2667,1543
0.2694,1550
0.2722,1545
0.2750,1557
0.2778,1551
0.2806,1545
0.2833,1554
0.2861,1561
0.2889,1560
0.2917,1572
0.2944,1575
0.2972,1583
0.3000,1590
0.3028,1598
0.3056,1591
0.3083,1593
0.3111,1594
0.3139,1591
0.3167,1591
0.3194,1611
0.3222,1606
0.3250,1595
0.3278,1600
0.3306,1600
0.3333,1605
0.3361,1613
0.3389,1611
0.3417,1616
0.3444,1613
0.3472,1618
0.3500,1626
0.3528,1628
0.3556,1639
0.3583,1632
0.3611,1633
0.3639,1625
0.3667,1632
0.3694,1636
0.3722,1646
0.3750,1642
0.3778,1644
0.3806,1639
0.3833,1641
0.3861,1639
0.3889,1649
0.3917,1666
0.3944,1670
0.3972,1673
0.4000,1668
0.4028,1664
0.4056,1661
0.4083,1659
0.4111,1665
0.4139,1666
0.4167,1660
0.4194,1651
0.4222,1659
0.4250,1661
0.4278,1668
0.4306,1672
0.4333,1678
0.4361,1678
0.4389,1680
0.4417,1675
0.4444,1677
0.4472,1681
0.4500,1686
0.4528,1693
0.4556,1693
0.4583,1688
0.4611,1693
0.4639,1692
0.4667,1699
0.4694,1695
0.4722,1688
0.4750,1697
0.4778,1692
0.4806,1682
0.4833,1691
0.4861,1701
0.4889,1711
0.4917,1708
0.4944,1712
0.4972,1714
0.5000,1702
0.5028,1694
0.5056,1699
0.5083,1714
0.5111,1715
0.5139,1738
0.5167,1737
0.5194,1722
0.5222,1704
0.5250,1708
0.5278,1713
0.5306,1736
0.5333,1734
0.5361,1732
0.5389,1728
0.5417,1737
0.5444,1727
0.5472,1722
0.5500,1730
0.5528,1748
0.5556,1754
0.5583,1756
0.5611,1759
0.5639,1750
0.5667,1746
0.5694,1747
0.5722,1744
0.5750,1754
0.5778,1751
0.5806,1747
0.5833,1741
0.5861,1731
0.5889,1739
0.5917,1745
0.5944,1760
0.5972,1769
0.6000,1776
0.6028,1776
0.6056,1773
0.6083,1768
0.6111,1755
0.6139,1752
0.6167,1745
0.6194,1749
0.6222,1750
0.6250,1751
0.6278,1747
0.6306,1749
0.6333,1764
0.6361,1773
0.6389,1771
0.6417,1768
0.6444,1771
0.6472,1776
0.6500,1773
0.6528,1778
0.6556,1772
0.6583,1762
0.6611,1762
0.6639,1755
0.6667,1748
0.6694,1763
0.6722,1775
0.6750,1780
0.6778,1778
0.6806,1791
0.6833,1816
0.6861,1839
0.6889,1866
0.6917,1886
0.6944,1921
0.6972,1939
0.7000,1954
0.7028,1965
0.7056,1978
0.7083,1992
0.7111,2022
0.7139,2053
0.7167,2082
0.7194,2101
0.7222,2112
0.7250,2119
0.7278,2130
0.7306,2123
0.7333,2086
0.7361,2068
0.7389,2045
0.7417,2048
0.7444,2051
0.7472,2031
0.7500,1990
0.7528,1920
0.7556,1853
0.7583,1804
0.7611,1778
0.7639,1769
0.7667,1751
0.7694,1739
0.7722,1740
0.7750,1747
0.7778,1767
0.7806,1770
0.7833,1766
0.7861,1753
0.7889,1748
0.7917,1743
0.7944,1742
0.7972,1734
0.8000,1728
0.8028,1725
0.8056,1727
0.8083,1739
0.8111,1747
0.8139,1744
0.8167,1760
0.8194,1755
0.8222,1742
0.8250,1722
0.8278,1714
0.8306,1712
0.8333,1703
0.8361,1677
0.8389,1648
0.8417,1591
0.8444,1538
0.8472,1521
0.8500,1551
0.8528,1654
0.8556,1834
0.8583,2082
0.8611,2368
0.8639,2655
0.8667,2958
0.8694,3259
0.8722,3364
0.8750,3361
0.8778,3378
0.8806,3370
0.8833,3340
0.8861,2917
0.8889,2256
0.8917,1692
0.8944,1333
0.8972,1158
0.9000,1106
0.9028,1105
0.9056,1168
0.9083,1311
0.9111,1489
0.9139,1678
0.9167,1809
0.9194,1876
0.9222,1896
0.9250,1901
0.9278,1884
0.9306,1867
0.9333,1857
0.9361,1835
0.9389,1819
0.9417,1814
0.9444,1810
0.9472,1827
0.9500,1839
0.9528,1866
0.9556,1857
0.9583,1841
0.9611,1814
0.9639,1807
0.9667,1812
0.9694,1821
0.9722,1825
0.9750,1837
0.9778,1838
0.9806,1835
0.9833,1834
0.9861,1839
0.9889,1839
0.9917,1844
0.9944,1831
0.9972,1830
1.0000,1821
1.0028,1827
1.0056,1822
1.0083,1824
1.0111,1838
1.0139,1840
1.0167,1849
1.0194,1835
1.0222,1834
1.0250,1837
1.0278,1842
1.0306,1851
1.0333,1853
1.0361,1847
1.0389,1835
1.0417,1822
1.0444,1826
1.0472,1838
1.0500,1859
1.0528,1868
1.0556,1868
1.0583,1858
1.0611,1843
1.0639,1837
1.0667,1845
1.0694,1859
1.0722,1885
1.0750,1881
1.0778,1877
1.0806,1872
1.0833,1857
1.0861,1914
1.0889,1922
1.0917,1940
1.0944,1960
1.0972,1970
1.1000,1959
1.1028,1937
1.1056,1944
1.1083,1950
1.1111,1976
1.1139,1990
1.1167,1983
1.1194,1974
1.1222,1970
1.1250,1969
1.1278,1965
1.1306,1958
1.1333,1941
1.1361,1931
1.1389,1922
1.1417,1908
1.1444,1895
1.1472,1886
1.1500,1866
1.1528,1843
1.1556,1832
1.1583,1809
1.1611,1797
1.1639,1775
1.1667,1762
1.1694,1760
1.1722,1756
1.1750,1756
1.1778,1745
1.1806,1709
1.1833,1691
1.1861,1690
1.1889,1691
1.1917,1698
1.1944,1713
1.1972,1696
1.2000,1690
1.2028,1674
1.2056,1677
1.2083,1693
1.2111,1692
1.2139,1689
1.2167,1682
1.2194,1684
1.2222,1671
1.2250,1675
1.2278,1679
1.2306,1692
1.2333,1692
1.2361,1686
1.2389,1672
1.2417,1670
1.2444,1675
1.2472,1692
1.2500,1699
1.2528,1700
1.2556,1701
1.2583,1702
1.2611,1701
1.2639,1704
1.2667,1701
1.2694,1699
1.2722,1698
1.2750,1701
1.2778,1713
1.2806,1709
1.2833,1696
1.2861,1704
1.2889,1705
1.2917,1715
1.2944,1715
1.2972,1724
1.3000,1720
1.3028,1727
1.3056,1735
1.3083,1730
1.3111,1735
1.3139,1736
1.3167,1725
1.3194,1715
1.3222,1705
1.3250,1703
1.3278,1716
1.3306,1718
1.3333,1724
1.3361,1715
1.3389,1714
1.3417,1718
1.3444,1711
1.3472,1721
1.3500,1726
1.3528,1723
1.3556,1711
1.3583,1705
1.3611,1697
1.3639,1693
1.3667,1711
1.3694,1712
1.3722,1719
1.3750,1710
1.3778,1707
1.3806,1706
1.3833,1709
1.3861,1710
1.3889,1714
1.3917,1715
1.3944,1717
1.3972,1708
1.4000,1703
1.4028,1709
1.4056,1711
1.4083,1714
1.4111,1728
1.4139,1729
1.4167,1738
1.4194,1734
1.4222,1731
1.4250,1714
1.4278,1714
1.4306,1715
1.4333,1729
1.4361,1733
1.4389,1733
1.4417,1721
1.4444,1717
1.4472,1726
1.4500,1729
1.4528,1748
1.4556,1742
1.4583,1741
1.4611,1730
1.4639,1725
1.4667,1729
1.4694,1730
1.4722,1735
1.4750,1743
1.4778,1758
1.4806,1744
1.4833,1751
1.4861,1741
1.4889,1727
1.4917,1719
1.4944,1717
1.4972,1724
1.5000,1728
1.5028,1727
1.5056,1738
1.5083,1745
1.5111,1761
1.5139,1756
1.5167,1750
1.5194,1745
1.5222,1731
1.5250,1732
1.5278,1739
1.5306,1743
1.5333,1755
1.5361,1762
1.5389,1768
1.5417,1764
1.5444,1755
1.5472,1753
1.5500,1762
1.5528,1759
1.5556,1766
1.5583,1772
1.5611,1781
1.5639,1789
1.5667,1770
1.5694,1766
1.5722,1768
1.5750,1773
1.5778,1764
1.5806,1770
1.5833,1773
1.5861,1770
1.5889,1779
1.5917,1776
1.5944,1779
1.5972,1783
1.6000,1787
1.6028,1787
1.6056,1793
1.6083,1794
1.6111,1797
1.6139,1789
1.6167,1790
1.6194,1785
1.6222,1783
1.6250,1795
1.6278,1796
1.6306,1798
1.6333,1800
1.6361,1790
1.6389,1798
1.6417,1801
1.6444,1801
1.6472,1799
1.6500,1788
1.6528,1801
1.6556,1817
1.6583,1808
1.6611,1807
1.6639,1811
1.6667,1810
1.6694,1814
1.6722,1825
1.6750,1823
1.6778,1829
1.6806,1821
1.6833,1808
1.6861,1801
1.6889,1810
1.6917,1818
1.6944,1821
1.6972,1828
1.7000,1836
1.7028,1843
1.7056,1828
1.7083,1820
1.7111,1818
1.7139,1825
1.7167,1832
1.7194,1826
1.7222,1824
1.7250,1820
1.7278,1817
1.7306,1821
1.7333,1841
1.7361,1845
1.7389,1841
1.7417,1839
1.7444,1841
1.7472,1839
1.7500,1833
1.7528,1828
1.7556,1826
1.7583,1827
1.7611,1828
1.7639,1843
1.7667,1862
1.7694,1896
1.7722,1929
1.7750,1944
1.7778,1959
1.7806,1971
1.7833,1983
1.7861,1993
1.7889,2008
1.7917,2030
1.7944,2062
1.7972,2101
1.8000,2137
1.8028,2162
1.8056,2171
1.8083,2179
1.8111,2160
1.8139,2144
1.8167,2127
1.8194,2111
1.8222,2100
1.8250,2093
1.8278,2109
1.8306,2096
1.8333,2081
1.8361,2032
1.8389,1963
1.8417,1910
1.8444,1863
1.8472,1841
1.8500,1826
1.8528,1822
1.8556,1804
1.8583,1809
1.8611,1800
1.8639,1791
1.8667,1791
1.8694,1792
1.8722,1792
1.8750,1801
1.8778,1792
1.8806,1787
1.8833,1785
1.8861,1783
1.8889,1786
1.8917,1780
1.8944,1775
1.8972,1778
1.9000,1786
1.9028,1801
1.9056,1793
1.9083,1790
1.9111,1769
1.9139,1767
1.9167,1756
1.9194,1723
1.9222,1689
1.9250,1644
1.9278,1598
1.9306,1554
1.9333,1561
1.9361,1618
1.9389,1744
1.9417,1942
1.9444,2183
1.9472,2458
1.9500,2749
1.9528,3039
1.9556,3323
1.9583,3363
1.9611,3373
1.9639,3372
1.9667,3375
1.9694,3338
1.9722,2923
1.9750,2270
1.9778,1706
1.9806,1346
1.9833,1195
1.9861,1150
1.9889,1156
1.9917,1219
1.9944,1342
1.9972,1519
2.0000,1697
2.0028,1826
2.0056,1899
2.0083,1914
2.0111,1900
2.0139,1876
2.0167,1867
2.0194,1853
2.0222,1832
2.0250,1816
2.0278,1804
2.0306,1794
2.0333,1811
2.0361,1829
2.0389,1839
2.0417,1838
2.0444,1839
2.0472,1846
2.0500,1871
2.0528,1916
2.0556,1971
2.0583,2009
2.0611,2026
2.0639,2023
2.0667,2017
2.0694,2013
2.0722,2020
2.0750,2040
2.0778,2056
2.0806,2066
2.0833,2050
2.0861,2050
2.0889,2024
2.0917,2028
2.0944,2038
2.0972,2049
2.1000,2051
2.1028,2041
2.1056,2020
2.1083,2023
2.1111,2026
2.1139,2037
2.1167,2051
2.1194,2043
2.1222,2040
2.1250,2025
2.1278,2020
2.1306,1996
2.1333,2017
2.1361,2012
2.1389,2018
2.1417,2015
2.1444,2001
2.1472,1976
2.1500,1967
2.1528,1968
2.1556,1977
2.1583,1979
2.1611,1976
2.1639,1971
2.1667,1967
2.1694,1967
2.1722,1899
2.1750,1911
2.1778,1932
2.1806,1950
2.1833,1959
2.1861,1947
2.1889,1926
2.1917,1917
2.1944,1922
2.1972,1933
2.2000,1948
2.2028,1949
2.2056,1937
2.2083,1933
2.2111,1925
2.2139,1926
2.2167,1937
2.2194,1948
2.2222,1948
2.2250,1922
2.2278,1902
2.2306,1864
2.2333,1848
2.2361,1838
2.2389,1850
2.2417,1835
2.2444,1814
2.2472,1779
2.2500,1762
2.2528,1758
2.2556,1747
2.2583,1744
2.2611,1735
2.2639,1721
2.2667,1696
2.2694,1674
2.2722,1673
2.2750,1657
2.2778,1654
2.2806,1659
2.2833,1641
2.2861,1637
2.2889,1623
2.2917,1634
2.2944,1642
2.2972,1642
2.3000,1641
2.3028,1626
2.3056,1624
2.3083,1616
2.3111,1612
2.3139,1611
2.3167,1609
2.3194,1618
2.3222,1613
2.3250,1631
2.3278,1638
2.3306,1646
2.3333,1647
2.3361,1660
2.3389,1675
2.3417,1676
2.3444,1668
2.3472,1661
2.3500,1652
2.3528,1643
2.3556,1650
2.3583,1662
2.3611,1664
2.3639,1659
2.3667,1666
2.3694,1652
2.3722,1651
2.3750,1655
2.3778,1659
2.3806,1666
2.3833,1657
2.3861,1640
2.3889,1634
2.3917,1632
2.3944,1633
2.3972,1639
2.4000,1643
2.4028,1642
2.4056,1642
2.4083,1638
2.4111,1649
2.4139,1635
2.4167,1633
2.4194,1645
2.4222,1647
2.4250,1641
2.4278,1628
2.4306,1626
2.4333,1616
2.4361,1602
2.4389,1596
2.4417,1601
2.4444,1599
2.4472,1604
2.4500,1597
2.4528,1593
2.4556,1609
2.4583,1610
2.4611,1617
2.4639,1603
2.4667,1598
2.4694,1583
2.4722,1589
2.4750,1587
2.4778,1588
2.4806,1580
2.4833,1574
2.4861,1572
2.4889,1568
2.4917,1570
2.4944,1582
2.4972,1603
2.5000,1605
2.5028,1600
2.5056,1590
2.5083,1579
2.5111,1574
2.5139,1566
2.5167,1568
2.5194,1579
2.5222,1584
2.5250,1586
2.5278,1585
2.5306,1577
2.5333,1586
2.5361,1594
2.5389,1593
2.5417,1583
2.5444,1581
2.5472,1561
2.5500,1549
2.5528,1535
2.5556,1533
2.5583,1550
2.5611,1556
2.5639,1562
2.5667,1563
2.5694,1564
2.5722,1560
2.5750,1547
2.5778,1541
2.5806,1544
2.5833,1546
2.5861,1548
2.5889,1555
2.5917,1564
2.5944,1565
2.5972,1553
2.6000,1558
2.6028,1547
2.6056,1557
2.6083,1561
2.6111,1568
2.6139,1564
2.6167,1576
2.6194,1563
2.6222,1553
2.6250,1544
2.6278,1542
2.6306,1555
2.6333,1568
2.6361,1574
2.6389,1589
2.6417,1589
2.6444,1584
2.6472,1594
2.6500,1597
2.6528,1599
2.6556,1601
2.6583,1594
2.6611,1592
2.6639,1593
2.6667,1587
2.6694,1597
2.6722,1585
2.6750,1588
2.6778,1595
2.6806,1600
2.6833,1601
2.6861,1593
2.6889,1588
2.6917,1588
2.6944,1598
2.6972,1605
2.7000,1605
2.7028,1597
2.7056,1602
2.7083,1592
2.7111,1599
2.7139,1601
2.7167,1614
2.7194,1608
2.7222,1609
2.7250,1621
2.7278,1614
2.7306,1621
2.7333,1637
2.7361,1632
2.7389,1633
2.7417,1641
2.7444,1643
2.7472,1650
2.7500,1641
2.7528,1636
2.7556,1634
2.7583,1632
2.7611,1630
2.7639,1636
2.7667,1647
2.7694,1658
2.7722,1669
2.7750,1682
2.7778,1682
2.7806,1683
2.7833,1676
2.7861,1670
2.7889,1661
2.7917,1665
2.7944,1670
2.7972,1683
2.8000,1691
2.8028,1701
2.8056,1711
2.8083,1707
2.8111,1716
2.8139,1713
2.8167,1719
2.8194,1725
2.8222,1740
2.8250,1758
2.8278,1784
2.8306,1808
2.8333,1831
2.8361,1846
2.8389,1863
2.8417,1869
2.8444,1884
2.8472,1900
2.8500,1913
2.8528,1935
2.8556,1970
2.8583,1997
2.8611,2022
2.8639,2031
2.8667,2033
2.8694,2030
2.8722,2031
2.8750,2005
2.8778,1976
2.8806,1948
2.8833,1918
2.8861,1920
2.8889,1922
2.8917,1882
2.8944,1834
2.8972,1762
2.9000,1711
2.9028,1664
2.9056,1652
2.9083,1650
2.9111,1637
2.9139,1634
2.9167,1624
2.9194,1627
2.9222,1617
2.9250,1618
2.9278,1616
2.9306,1605
2.9333,1597
2.9361,1604
2.9389,1608
2.9417,1603
2.9444,1591
2.9472,1581
2.9500,1585
2.9528,1587
2.9556,1592
2.9583,1597
2.9611,1594
2.9639,1591
2.9667,1598
2.9694,1600
2.9722,1603
2.9750,1602
2.9778,1584
2.9806,1550
2.9833,1508
2.9861,1456
2.9889,1389
2.9917,1389
2.9944,1443
2.9972,1573
3.0000,1774
3.0028,2039
3.0056,2325
3.0083,2602
3.0111,2890
3.0139,3175
3.0167,3358
3.0194,3370
3.0222,3371
3.0250,3361
3.0278,3191
3.0306,2637
3.0333,1970
3.0361,1458
3.0389,1159
3.0417,1038
3.0444,1002
3.0472,1019
3.0500,1065
3.0528,1192
3.0556,1358
3.0583,1537
3.0611,1681
3.0639,1774
3.0667,1813
3.0694,1823
3.0722,1814
3.0750,1811
3.0778,1799
3.0806,1780
3.0833,1761
3.0861,1742
3.0889,1745
3.0917,1751
3.0944,1753
3.0972,1764
3.1000,1758
3.1028,1757
3.1056,1745
3.1083,1754
3.1111,1768
3.1139,1785
3.1167,1796
3.1194,1787
3.1222,1759
3.1250,1733
3.1278,1730
3.1306,1746
3.1333,1752
3.1361,1775
3.1389,1767
3.1417,1756
3.1444,1737
3.1472,1724
3.1500,1732
3.1528,1751
3.1556,1758
3.1583,1763
3.1611,1766
3.1639,1759
3.1667,1761
3.1694,1765
3.1722,1766
3.1750,1761
3.1778,1755
3.1806,1736
3.1833,1728
3.1861,1722
3.1889,1729
3.1917,1749
3.1944,1770
3.1972,1771
3.2000,1760
3.2028,1748
3.2056,1737
3.2083,1741
3.2111,1749
3.2139,1763
3.2167,1762
3.2194,1754
3.2222,1738
3.2250,1731
3.2278,1732
3.2306,1801
3.2333,1818
3.2361,1832
3.2389,1818
3.2417,1816
3.2444,1807
3.2472,1815
3.2500,1820
3.2528,1837
3.2556,1836
3.2583,1835
3.2611,1833
3.2639,1832
3.2667,1821
3.2694,1815
3.2722,1822
3.2750,1824
3.2778,1824
3.2806,1807
3.2833,1792
3.2861,1778
3.2889,1764
3.2917,1758
3.2944,1750
3.2972,1736
3.3000,1726
3.3028,1712
3.3056,1682
3.3083,1666
3.3111,1643
3.3139,1635
3.3167,1627
3.3194,1614
3.3222,1602
3.3250,1579
3.3278,1570
3.3306,1570
3.3333,1572
3.3361,1579
3.3389,1583
3.3417,1568
3.3444,1551
3.3472,1527
3.3500,1534
3.3528,1531
3.3556,1529
3.3583,1529
3.3611,1530
3.3639,1530
3.3667,1530
3.3694,1542
3.3722,1541
3.3750,1535
3.3778,1538
3.3806,1531
3.3833,1524
3.3861,1528
3.3889,1539
3.3917,1540
3.3944,1555
3.3972,1559
3.4000,1562
3.4028,1563
3.4056,1556
3.4083,1548
3.4111,1560
3.4139,1584
3.4167,1584
3.4194,1598
3.4222,1593
3.4250,1582
3.4278,1566
3.4306,1563
3.4333,1560
3.4361,1566
3.4389,1567
3.4417,1560
3.4444,1540
3.4472,1538
3.4500,1533
3.4528,1535
3.4556,1552
3.4583,1545
3.4611,1540
3.4639,1528
3.4667,1533
3.4694,1553
3.4722,1568
3.4750,1590
3.4778,1607
3.4806,1617
3.4833,1618
3.4861,1627
3.4889,1616
3.4917,1604
3.4944,1605
3.4972,1588
3.5000,1578
3.5028,1570
3.5056,1570
3.5083,1558
3.5111,1555
3.5139,1546
3.5167,1520
3.5194,1511
3.5222,1513
3.5250,1513
3.5278,1509
3.5306,1504
3.5333,1505
3.5361,1505
3.5389,1494
3.5417,1487
3.5444,1479
3.5472,1482
3.5500,1495
3.5528,1509
3.5556,1517
3.5583,1513
3.5611,1498
3.5639,1492
3.5667,1483
3.5694,1488
3.5722,1493
3.5750,1492
3.5778,1493
3.5806,1482
3.5833,1478
3.5861,1480
3.5889,1495
3.5917,1502
3.5944,1507
3.5972,1515
3.6000,1508
3.6028,1500
3.6056,1486
3.6083,1478
3.6111,1482
3.6139,1493
3.6167,1510
3.6194,1524
3.6222,1525
3.6250,1519
3.6278,1508
3.6306,1514
3.6333,1506
3.6361,1500
3.6389,1499
3.6417,1512
3.6444,1510
3.6472,1502
3.6500,1503
3.6528,1514
3.6556,1530
3.6583,1542
3.6611,1540
3.6639,1544
3.6667,1545
3.6694,1535
3.6722,1538
3.6750,1531
3.6778,1552
3.6806,1554
3.6833,1560
3.6861,1558
3.6889,1554
3.6917,1561
3.6944,1566
3.6972,1576
3.7000,1588
3.7028,1582
3.7056,1579
3.7083,1563
3.7111,1563
3.7139,1569
3.7167,1584
3.7194,1592
3.7222,1592
3.7250,1590
3.7278,1586
3.7306,1580
3.7333,1580
3.7361,1573
3.7389,1568
3.7417,1554
3.7444,1554
3.7472,1567
3.7500,1580
3.7528,1590
3.7556,1596
3.7583,1593
3.7611,1580
3.7639,1575
3.7667,1590
3.7694,1602
3.7722,1608
3.7750,1594
3.7778,1585
3.7806,1585
3.7833,1602
3.7861,1593
3.7889,1599
3.7917,1611
3.7944,1625
3.7972,1628
3.8000,1639
3.8028,1627
3.8056,1616
3.8083,1611
3.8111,1612
3.8139,1633
3.8167,1645
3.8194,1657
3.8222,1668
3.8250,1660
3.8278,1667
3.8306,1670
3.8333,1678
3.8361,1681
3.8389,1686
3.8417,1681
3.8444,1674
3.8472,1672
3.8500,1679
3.8528,1690
3.8556,1698
3.8583,1707
3.8611,1690
3.8639,1701
3.8667,1702
3.8694,1720
3.8722,1739
3.8750,1760
3.8778,1791
3.8806,1828
3.8833,1859
3.8861,1872
3.8889,1898
3.8917,1905
3.8944,1914
3.8972,1935
3.9000,1974
3.9028,1988
3.9056,2025
3.9083,2054
3.9111,2085
3.9139,2104
3.9167,2103
3.9194,2083
3.9222,2066
3.9250,2039
3.9278,2018
3.9306,2016
3.9333,2020
3.9361,2018
3.9389,2000
3.9417,1947
3.9444,1889
3.9472,1838
3.9500,1799
3.9528,1777
3.9556,1761
3.9583,1750
3.9611,1749
3.9639,1756
3.9667,1759
3.9694,1752
3.9722,1746
3.9750,1738
3.9778,1738
3.9806,1739
3.9833,1742
3.9861,1758
3.9889,1761
3.9917,1758
3.9944,1750
3.9972,1746
4.0000,1749
4.0028,1739
4.0056,1749
4.0083,1743
4.0111,1748
4.0139,1756
4.0167,1758
4.0194,1752
4.0222,1753
4.0250,1739
4.0278,1703
4.0306,1640
4.0333,1568
4.0361,1532
4.0389,1544
4.0417,1624
4.0444,1779
4.0472,1996
4.0500,2271
4.0528,2569
4.0556,2862
4.0583,3168
4.0611,3359
4.0639,3361
4.0667,3376
4.0694,3370
4.0722,3366
4.0750,3206
4.0778,2635
4.0806,2002
4.0833,1531
4.0861,1287
4.0889,1186
4.0917,1157
4.0944,1192
4.0972,1300
4.1000,1481
4.1028,1683
4.1056,1847
4.1083,1950
4.1111,1985
4.1139,1982
4.1167,1981
4.1194,1974
4.1222,1954
4.1250,1930
4.1278,1903
4.1306,1886
4.1333,1879
4.1361,1894
4.1389,1912
4.1417,1930
4.1444,1928
4.1472,1921
4.1500,1913
4.1528,1898
4.1556,1895
4.1583,1914
4.1611,1930
4.1639,1925
4.1667,1913
4.1694,1885
4.1722,1870
4.1750,1861
4.1778,1870
4.1806,1884
4.1833,1888
4.1861,1903
4.1889,1906
4.1917,1900
4.1944,1901
4.1972,1894
4.2000,1910
4.2028,1917
4.2056,1921
4.2083,1915
4.2111,1909
4.2139,1893
4.2167,1879
4.2194,1893
4.2222,1909
4.2250,1920
4.2278,1924
4.2306,1907
4.2333,1889
4.2361,1895
4.2389,1903
4.2417,1911
4.2444,1912
4.2472,1917
4.2500,1906
4.2528,1899
4.2556,1902
4.2583,1912
4.2611,1921
4.2639,1930
4.2667,1911
4.2694,1899
4.2722,1883
4.2750,1879
4.2778,1966
4.2806,1970
4.2833,1991
4.2861,2022
4.2889,2042
4.2917,2071
4.2944,2095
4.2972,2112
4.3000,2134
4.3028,2160
4.3056,2160
4.3083,2157
4.3111,2156
4.3139,2151
4.3167,2157
4.3194,2172
4.3222,2174
4.3250,2164
4.3278,2132
4.3306,2089
4.3333,2069
4.3361,2060
4.3389,2056
4.3417,2053
4.3444,2041
4.3472,2022
4.3500,2000
4.3528,1979
4.3556,1953
4.3583,1937
4.3611,1930
4.3639,1907
4.3667,1883
4.3694,1873
4.3722,1847
4.3750,1850
4.3778,1844
4.3806,1839
4.3833,1839
4.3861,1830
4.3889,1813
4.3917,1797
4.3944,1782
4.3972,1775
4.4000,1774
4.4028,1778
4.4056,1776
4.4083,1760
4.4111,1744
4.4139,1731
4.4167,1738
4.4194,1748
4.4222,1755
4.4250,1762
4.4278,1750
4.4306,1745
4.4333,1737
4.4361,1731
4.4389,1729
4.4417,1721
4.4444,1727
4.4472,1727
4.4500,1728
4.4528,1725
4.4556,1726
4.4583,1732
4.4611,1738
4.4639,1731
4.4667,1731
4.4694,1718
4.4722,1715
4.4750,1713
4.4778,1720
4.4806,1716
4.4833,1708
4.4861,1709
4.4889,1706
4.4917,1700
4.4944,1702
4.4972,1705
4.5000,1715
4.5028,1702
4.5056,1701
4.5083,1708
4.5111,1703
4.5139,1702
4.5167,1709
4.5194,1704
4.5222,1705
4.5250,1704
4.5278,1691
4.5306,1685
4.5333,1683
4.5361,1683
4.5389,1685
4.5417,1691
4.5444,1690
4.5472,1704
4.5500,1687
4.5528,1681
4.5556,1674
4.5583,1671
4.5611,1678
4.5639,1685
4.5667,1699
4.5694,1695
4.5722,1706
4.5750,1704
4.5778,1706
4.5806,1695
4.5833,1692
4.5861,1687
4.5889,1689
4.5917,1684
4.5944,1680
4.5972,1680
4.6000,1687
4.6028,1687
4.6056,1680
4.6083,1684
4.6111,1676
4.6139,1679
4.6167,1688
4.6194,1697
4.6222,1708
4.6250,1712
4.6278,1712
4.6306,1695
4.6333,1680
4.6361,1669
4.6389,1677
4.6417,1690
4.6444,1702
4.6472,1711
4.6500,1712
4.6528,1712
4.6556,1699
4.6583,1704
4.6611,1710
4.6639,1714
4.6667,1702
4.6694,1697
4.6722,1692
4.6750,1702
4.6778,1704
4.6806,1704
4.6833,1700
4.6861,1690
4.6889,1663
4.6917,1627
4.6944,1604
4.6972,1585
4.7000,1574
4.7028,1566
4.7056,1569
4.7083,1576
4.7111,1586
4.7139,1593
4.7167,1590
4.7194,1601
4.7222,1603
4.7250,1617
4.7278,1631
4.7306,1672
4.7333,1719
4.7361,1781
4.7389,1825
4.7417,1865
4.7444,1878
4.7472,1885
4.7500,1897
4.7528,1894
4.7556,1912
4.7583,1919
4.7611,1921
4.7639,1926
4.7667,1926
4.7694,1925
4.7722,1916
4.7750,1904
4.7778,1901
4.7806,1904
4.7833,1904
4.7861,1909
4.7889,1904
4.7917,1900
4.7944,1895
4.7972,1895
4.8000,1893
4.8028,1905
4.8056,1901
4.8083,1895
4.8111,1889
4.8139,1879
4.8167,1880
4.8194,1889
4.8222,1875
4.8250,1872
4.8278,1867
4.8306,1857
4.8333,1854
4.8361,1845
4.8389,1854
4.8417,1863
4.8444,1878
4.8472,1886
4.8500,1870
4.8528,1871
4.8556,1855
4.8583,1846
4.8611,1846
4.8639,1842
4.8667,1825
4.8694,1832
4.8722,1835
4.8750,1832
4.8778,1824
4.8806,1827
4.8833,1829
4.8861,1830
4.8889,1824
4.8917,1821
4.8944,1813
4.8972,1818
4.9000,1811
4.9028,1811
4.9056,1810
4.9083,1815
4.9111,1801
4.9139,1796
4.9167,1797
4.9194,1810
4.9222,1811
4.9250,1823
4.9278,1832
4.9306,1833
4.9333,1838
4.9361,1849
4.9389,1881
4.9417,1895
4.9444,1923
4.9472,1946
4.9500,1956
4.9528,1960
4.9556,1955
4.9583,1974
4.9611,2004
4.9639,2042
4.9667,2077
4.9694,2107
4.9722,2134
4.9750,2139
4.9778,2128
4.9806,2136
4.9833,2117
4.9861,2101
4.9889,2090
4.9917,2075
4.9944,2085
4.9972,2086
5.0000,2053
5.0028,1998
5.0056,1936
5.0083,1879
5.0111,1834
5.0139,1809
5.0167,1774
5.0194,1767
5.0222,1764
5.0250,1760
5.0278,1759
5.0306,1755
5.0333,1753
5.0361,1745
5.0389,1737
5.0417,1739
5.0444,1740
5.0472,1738
5.0500,1727
5.0528,1720
5.0556,1718
5.0583,1710
5.0611,1694
5.0639,1693
5.0667,1699
5.0694,1711
5.0722,1713
5.0750,1714
5.0778,1706
5.0806,1685
5.0833,1674
5.0861,1648
5.0889,1620
5.0917,1569
5.0944,1515
5.0972,1480
5.1000,1511
5.1028,1594
5.1056,1747
5.1083,1960
5.1111,2239
5.1139,2530
5.1167,2816
5.1194,3097
5.1222,3337
5.1250,3351
5.1278,3367
5.1306,3373
5.1333,3338
5.1361,2949
5.1389,2327
5.1417,1747
5.1444,1348
5.1472,1162
5.1500,1087
5.1528,1086
5.1556,1101
5.1583,1164
5.1611,1296
5.1639,1442
5.1667,1589
5.1694,1714
5.1722,1792
5.1750,1830
5.1778,1845
5.1806,1851
5.1833,1849
5.1861,1828
5.1889,1803
5.1917,1773
5.1944,1767
5.1972,1774
5.2000,1802
5.2028,1810
5.2056,1805
5.2083,1788
5.2111,1769
5.2139,1781
5.2167,1790
5.2194,1811
5.2222,1820
5.2250,1809
5.2278,1787
5.2306,1774
5.2333,1765
5.2361,1766
5.2389,1790
5.2417,1807
5.2444,1812
5.2472,1801
5.2500,1791
5.2528,1789
5.2556,1787
5.2583,1808
5.2611,1825
5.2639,1827
5.2667,1823
5.2694,1808
5.2722,1799
5.2750,1792
5.2778,1799
5.2806,1819
5.2833,1826
5.2861,1826
5.2889,1818
5.2917,1809
5.2944,1806
5.2972,1811
5.3000,1809
5.3028,1819
5.3056,1829
5.3083,1835
5.3111,1826
5.3139,1821
5.3167,1825
5.3194,1836
5.3222,1838
5.3250,1844
5.3278,1835
5.3306,1828
5.3333,1817
5.3361,1953
5.3389,1950
5.3417,1963
5.3444,1968
5.3472,1954
5.3500,1949
5.3528,1932
5.3556,1926
5.3583,1923
5.3611,1938
5.3639,1954
5.3667,1950
5.3694,1958
5.3722,1947
5.3750,1942
5.3778,1934
5.3806,1920
5.3833,1914
5.3861,1891
5.3889,1877
5.3917,1861
5.3944,1847
5.3972,1840
5.4000,1829
5.4028,1823
5.4056,1793
5.4083,1764
5.4111,1729
5.4139,1708
5.4167,1687
5.4194,1685
5.4222,1694
5.4250,1692
5.4278,1685
5.4306,1668
5.4333,1638
5.4361,1624
5.4389,1612
5.4417,1598
5.4444,1602
5.4472,1588
5.4500,1589
5.4528,1567
5.4556,1573
5.4583,1571
5.4611,1584
5.4639,1579
5.4667,1570
5.4694,1552
5.4722,1550
5.4750,1557
5.4778,1555
5.4806,1566
5.4833,1571
5.4861,1563
5.4889,1542
5.4917,1530
5.4944,1524
5.4972,1532
5.5000,1544
5.5028,1561
5.5056,1575
5.5083,1576
5.5111,1563
5.5139,1559
5.5167,1540
5.5194,1526
5.5222,1532
5.5250,1544
5.5278,1561
5.5306,1560
5.5333,1558
5.5361,1552
5.5389,1541
5.5417,1548
5.5444,1554
5.5472,1553
5.5500,1547
5.5528,1534
5.5556,1520
5.5583,1524
5.5611,1530
5.5639,1549
5.5667,1541
5.5694,1529
5.5722,1525
5.5750,1517
5.5778,1519
5.5806,1518
5.5833,1525
5.5861,1521
5.5889,1515
5.5917,1505
5.5944,1503
5.5972,1506
5.6000,1512
5.6028,1522
5.6056,1510
5.6083,1518
5.6111,1520
5.6139,1527
5.6167,1524
5.6194,1527
5.6222,1540
5.6250,1543
5.6278,1531
5.6306,1533
5.6333,1536
5.6361,1538
5.6389,1548
5.6417,1539
5.6444,1531
5.6472,1524
5.6500,1527
5.6528,1548
5.6556,1541
5.6583,1556
5.6611,1557
5.6639,1558
5.6667,1568
5.6694,1574
5.6722,1567
5.6750,1563
5.6778,1560
5.6806,1559
5.6833,1557
5.6861,1563
5.6889,1572
5.6917,1559
5.6944,1571
5.6972,1580
5.7000,1578
5.7028,1575
5.7056,1573
5.7083,1564
5.7111,1571
5.7139,1567
5.7167,1570
5.7194,1583
5.7222,1580
5.7250,1589
5.7278,1588
5.7306,1574
5.7333,1580
5.7361,1584
5.7389,1597
5.7417,1599
5.7444,1594
5.7472,1595
5.7500,1584
5.7528,1593
5.7556,1587
5.7583,1606
5.7611,1613
5.7639,1604
5.7667,1590
5.7694,1572
5.7722,1563
5.7750,1562
5.7778,1572
5.7806,1579
5.7833,1587
5.7861,1589
5.7889,1592
5.7917,1590
5.7944,1591
5.7972,1596
5.8000,1603
5.8028,1608
5.8056,1610
5.8083,1604
5.8111,1593
5.8139,1586
5.8167,1590
5.8194,1594
5.8222,1595
5.8250,1605
5.8278,1621
5.8306,1617
5.8333,1612
5.8361,1606
5.8389,1610
5.8417,1615
5.8444,1618
5.8472,1612
5.8500,1621
5.8528,1627
5.8556,1640
5.8583,1656
5.8611,1672
5.8639,1690
5.8667,1718
5.8694,1754
5.8722,1772
5.8750,1788
5.8778,1776
5.8806,1786
5.8833,1805
5.8861,1847
5.8889,1881
5.8917,1914
5.8944,1942
5.8972,1951
5.9000,1960
5.9028,1947
5.9056,1935
5.9083,1914
5.9111,1894
5.9139,1889
5.9167,1896
5.9194,1904
5.9222,1893
5.9250,1853
5.9278,1802
5.9306,1743
5.9333,1694
5.9361,1659
5.9389,1633
5.9417,1615
5.9444,1608
5.9472,1615
5.9500,1639
5.9528,1632
5.9556,1637
5.9583,1626
5.9611,1628
5.9639,1638
5.9667,1643
5.9694,1635
5.9722,1641
5.9750,1648
5.9778,1635
5.9806,1650
5.9833,1655
5.9861,1653
5.9889,1647
5.9917,1654
5.9944,1659
5.9972,1675
6.0000,1684
6.0028,1676
6.0056,1661
6.0083,1636
6.0111,1602
6.0139,1567
6.0167,1511
6.0194,1464
6.0222,1470
6.0250,1540
6.0278,1671
6.0306,1882
6.0333,2138
6.0361,2420
6.0389,2689
6.0417,2981
6.0444,3286
6.0472,3364
6.0500,3362
6.0528,3376
6.0556,3379
6.0583,3309
6.0611,2822
6.0639,2160
6.0667,1615
6.0694,1284
6.0722,1156
6.0750,1103
6.0778,1113
6.0806,1187
6.0833,1348
6.0861,1558
6.0889,1735
6.0917,1865
6.0944,1921
6.0972,1929
6.1000,1912
6.1028,1907
6.1056,1901
6.1083,1894
6.1111,1877
6.1139,1855
6.1167,1826
6.1194,1825
6.1222,1845
6.1250,1873
6.1278,1895
6.1306,1885
6.1333,1871
6.1361,1848
6.1389,1849
6.1417,1859
6.1444,1872
6.1472,1866
6.1500,1853
6.1528,1842
6.1556,1830
6.1583,1836
6.1611,1845
6.1639,1865
6.1667,1891
6.1694,1884
6.1722,1870
6.1750,1855
6.1778,1844
6.1806,1824
6.1833,1816
6.1861,1809
6.1889,1811
6.1917,1822
6.1944,1838
6.1972,1840
6.2000,1841
6.2028,1858
6.2056,1864
6.2083,1861
6.2111,1843
6.2139,1817
6.2167,1808
6.2194,1806
6.2222,1818
6.2250,1836
6.2278,1845
6.2306,1845
6.2333,1832
6.2361,1826
6.2389,1819
6.2417,1832
6.2444,1850
6.2472,1857
6.2500,1853
6.2528,1859
6.2556,1864
6.2583,1855
6.2611,1904
6.2639,1910
6.2667,1927
6.2694,1923
6.2722,1933
6.2750,1930
6.2778,1949
6.2806,1955
6.2833,1962
6.2861,1963
6.2889,1967
6.2917,1976
6.2944,1967
6.2972,1960
6.3000,1934
6.3028,1937
6.3056,1932
6.3083,1927
6.3111,1912
6.3139,1894
6.3167,1867
6.3194,1853
6.3222,1830
6.3250,1818
6.3278,1797
6.3306,1777
6.3333,1757
6.3361,1741
6.3389,1745
6.3417,1754
6.3444,1749
6.3472,1752
6.3500,1730
6.3528,1721
6.3556,1688
6.3583,1673
6.3611,1662
6.3639,1663
6.3667,1677
6.3694,1675
6.3722,1677
6.3750,1674
6.3778,1663
6.3806,1669
6.3833,1669
6.3861,1666
6.3889,1658
6.3917,1662
6.3944,1659
6.3972,1653
6.4000,1651
6.4028,1644
6.4056,1653
6.4083,1651
6.4111,1651
6.4139,1653
6.4167,1650
6.4194,1650
6.4222,1653
6.4250,1667
6.4278,1679
6.4306,1673
6.4333,1643
6.4361,1630
6.4389,1637
6.4417,1637
6.4444,1644
6.4472,1679
6.4500,1682
6.4528,1677
6.4556,1671
6.4583,1671
6.4611,1660
6.4639,1662
6.4667,1664
6.4694,1663
6.4722,1670
6.4750,1680
6.4778,1689
6.4806,1682
6.4833,1693
6.4861,1697
6.4889,1701
6.4917,1692
6.4944,1690
6.4972,1676
6.5000,1680
6.5028,1697
6.5056,1703
6.5083,1706
6.5111,1703
6.5139,1694
6.5167,1697
6.5194,1701
6.5222,1702
6.5250,1693
6.5278,1699
6.5306,1692
6.5333,1697
6.5361,1694
6.5389,1691
6.5417,1687
6.5444,1686
6.5472,1692
6.5500,1698
6.5528,1679
6.5556,1667
6.5583,1668
6.5611,1671
6.5639,1683
6.5667,1696
6.5694,1700
6.5722,1699
6.5750,1691
6.5778,1688
6.5806,1694
6.5833,1701
6.5861,1711
6.5889,1705
6.5917,1700
6.5944,1685
6.5972,1687
6.6000,1710
6.6028,1713
6.6056,1714
6.6083,1712
6.6111,1707
6.6139,1702
6.6167,1712
6.6194,1705
6.6222,1716
6.6250,1712
6.6278,1716
6.6306,1717
6.6333,1718
6.6361,1722
6.6389,1716
6.6417,1726
6.6444,1714
6.6472,1719
6.6500,1720
6.6528,1729
6.6556,1723
6.6583,1732
6.6611,1735
6.6639,1748
6.6667,1747
6.6694,1738
6.6722,1745
6.6750,1736
6.6778,1728
6.6806,1739
6.6833,1747
6.6861,1752
6.6889,1768
6.6917,1776
6.6944,1770
6.6972,1767
6.7000,1767
6.7028,1760
6.7056,1750
6.7083,1744
6.7111,1750
6.7139,1755
6.7167,1772
6.7194,1790
6.7222,1802
6.7250,1810
6.7278,1817
6.7306,1809
6.7333,1803
6.7361,1803
6.7389,1792
6.7417,1785
6.7444,1785
6.7472,1789
6.7500,1798
6.7528,1803
6.7556,1806
6.7583,1815
6.7611,1828
6.7639,1842
6.7667,1850
6.7694,1856
6.7722,1862
6.7750,1850
6.7778,1848
6.7806,1854
6.7833,1881
6.7861,1915
6.7889,1942
6.7917,1974
6.7944,2005
6.7972,2037
6.8000,2054
6.8028,2062
6.8056,2081
6.8083,2096
6.8111,2127
6.8139,2163
6.8167,2185
6.8194,2208
6.8222,2236
6.8250,2238
6.8278,2239
6.8306,2220
6.8333,2207
6.8361,2182
6.8389,2162
6.8417,2182
6.8444,2184
6.8472,2177
6.8500,2133
6.8528,2061
6.8556,2019
6.8583,1968
6.8611,1936
6.8639,1915
6.8667,1897
6.8694,1898
6.8722,1904
6.8750,1893
6.8778,1886
6.8806,1882
6.8833,1875
6.8861,1875
6.8889,1884
6.8917,1878
6.8944,1878
6.8972,1871
6.9000,1875
6.9028,1873
6.9056,1863
6.9083,1859
6.9111,1874
6.9139,1882
6.9167,1876
6.9194,1867
6.9222,1863
6.9250,1875
6.9278,1870
6.9306,1869
6.9333,1856
6.9361,1823
6.9389,1765
6.9417,1699
6.9444,1648
6.9472,1644
6.9500,1707
6.9528,1819
6.9556,2010
6.9583,2258
6.9611,2549
6.9639,2846
6.9667,3155
6.9694,3361
6.9722,3359
6.9750,3379
6.9778,3367
6.9806,3373
6.9833,3356
6.9861,3106
6.9889,2492
6.9917,1901
6.9944,1517
6.9972,1339
7.0000,1277
7.0028,1274
7.0056,1324
7.0083,1454
7.0111,1626
7.0139,1818
7.0167,1964
7.0194,2038
7.0222,2052
7.0250,2048
7.0278,2027
7.0306,2020
7.0333,2017
7.0361,2004
7.0389,1985
7.0417,1960
7.0444,1954
7.0472,1953
7.0500,1960
7.0528,1977
7.0556,1974
7.0583,1954
7.0611,1934
7.0639,1914
7.0667,1906
7.0694,1931
7.0722,1951
7.0750,1951
7.0778,1934
7.0806,1905
7.0833,1876
7.0861,1868
7.0889,1886
7.0917,1907
7.0944,1911
7.0972,1898
7.1000,1889
7.1028,1865
7.1056,1869
7.1083,1873
7.1111,1881
7.1139,1890
7.1167,1879
7.1194,1867
7.1222,1845
7.1250,1854
7.1278,1875
7.1306,1897
7.1333,1914
7.1361,1906
7.1389,1893
7.1417,1882
7.1444,1864
7.1472,1865
7.1500,1875
7.1528,1880
7.1556,1884
7.1583,1878
7.1611,1873
7.1639,1863
7.1667,1869
7.1694,1877
7.1722,1896
7.1750,1910
7.1778,1917
7.1806,1918
7.1833,1915
7.1861,1911
7.1889,1920
7.1917,1931
7.1944,1947
7.1972,1946
7.2000,1955
7.2028,1949
7.2056,1956
7.2083,1967
7.2111,1989
7.2139,2018
7.2167,2005
7.2194,1996
7.2222,1990
7.2250,2003
7.2278,2022
7.2306,2027
7.2333,2012
7.2361,1976
7.2389,1946
7.2417,1926
7.2444,1918
7.2472,1907
7.2500,1912
7.2528,1919
7.2556,1906
7.2583,1898
7.2611,1872
7.2639,1847
7.2667,1841
7.2694,1829
7.2722,1817
7.2750,1812
7.2778,1805
7.2806,1800
7.2833,1790
7.2861,1787
7.2889,1787
7.2917,1790
7.2944,1790
7.2972,1777
7.3000,1768
7.3028,1765
7.3056,1762
7.3083,1768
7.3111,1778
7.3139,1790
7.3167,1789
7.3194,1795
7.3222,1781
7.3250,1763
7.3278,1758
7.3306,1763
7.3333,1786
7.3361,1796
7.3389,1798
7.3417,1798
7.3444,1806
7.3472,1801
7.3500,1809
7.3528,1818
7.3556,1815
7.3583,1812
7.3611,1806
7.3639,1814
7.3667,1814
7.3694,1824
7.3722,1830
7.3750,1846
7.3778,1847
7.3806,1866
7.3833,1854
7.3861,1853
7.3889,1860
7.3917,1857
7.3944,1867
7.3972,1854
7.4000,1854
7.4028,1847
7.4056,1855
7.4083,1866
7.4111,1875
7.4139,1882
7.4167,1864
7.4194,1861
7.4222,1837
7.4250,1839
7.4278,1845
7.4306,1855
7.4333,1872
7.4361,1872
7.4389,1861
7.4417,1846
7.4444,1843
7.4472,1856
7.4500,1858
7.4528,1861
7.4556,1858
7.4583,1863
7.4611,1862
7.4639,1857
7.4667,1850
7.4694,1829
7.4722,1827
7.4750,1832
7.4778,1848
7.4806,1854
7.4833,1870
7.4861,1869
7.4889,1866
7.4917,1853
7.4944,1839
7.4972,1839
7.5000,1850
7.5028,1849
7.5056,1852
7.5083,1854
7.5111,1853
7.5139,1853
7.5167,1863
7.5194,1837
7.5222,1833
7.5250,1820
7.5278,1820
7.5306,1827
7.5333,1837
7.5361,1847
7.5389,1842
7.5417,1837
7.5444,1829
7.5472,1812
7.5500,1809
7.5528,1812
7.5556,1814
7.5583,1827
7.5611,1819
7.5639,1821
7.5667,1813
7.5694,1815
7.5722,1814
7.5750,1805
7.5778,1804
7.5806,1793
7.5833,1798
7.5861,1792
7.5889,1796
7.5917,1804
7.5944,1807
7.5972,1815
7.6000,1812
7.6028,1810
7.6056,1804
7.6083,1791
7.6111,1791
7.6139,1793
7.6167,1790
7.6194,1782
7.6222,1772
7.6250,1764
7.6278,1764
7.6306,1766
7.6333,1767
7.6361,1789
7.6389,1811
7.6417,1836
7.6444,1855
7.6472,1880
7.6500,1896
7.6528,1910
7.6556,1909
7.6583,1916
7.6611,1925
7.6639,1941
7.6667,1969
7.6694,2003
7.6722,2036
7.6750,2047
7.6778,2046
7.6806,2054
7.6833,2053
7.6861,2032
7.6889,2015
7.6917,1994
7.6944,1978
7.6972,1981
7.7000,1984
7.7028,1945
7.7056,1881
7.7083,1822
7.7111,1763
7.7139,1724
7.7167,1693
7.7194,1664
7.7222,1640
7.7250,1615
7.7278,1617
7.7306,1623
7.7333,1629
7.7361,1626
7.7389,1620
7.7417,1608
7.7444,1613
7.7472,1611
7.7500,1618
7.7528,1623
7.7556,1621
7.7583,1624
7.7611,1614
7.7639,1600
7.7667,1604
7.7694,1612
7.7722,1618
7.7750,1622
7.7778,1610
7.7806,1609
7.7833,1609
7.7861,1594
7.7889,1589
7.7917,1574
7.7944,1546
7.7972,1484
7.8000,1424
7.8028,1400
7.8056,1452
7.8083,1582
7.8111,1782
7.8139,2042
7.8167,2332
7.8194,2606
7.8222,2873
7.8250,3143
7.8278,3347
7.8306,3367
7.8333,3377
7.8361,3362
7.8389,3142
7.8417,2592
7.8444,1984
7.8472,1495
7.8500,1207
7.8528,1081
7.8556,1049
7.8583,1050
7.8611,1072
7.8639,1160
7.8667,1304
7.8694,1471
7.8722,1617
7.8750,1727
7.8778,1801
7.8806,1828
7.8833,1844
7.8861,1832
7.8889,1809
7.8917,1782
7.8944,1754
7.8972,1747
7.9000,1748
7.9028,1759
7.9056,1784
7.9083,1788
7.9111,1778
7.9139,1765
7.9167,1760
7.9194,1774
7.9222,1789
7.9250,1794
7.9278,1790
7.9306,1771
7.9333,1760
7.9361,1755
7.9389,1743
7.9417,1751
7.9444,1762
7.9472,1767
7.9500,1761
7.9528,1741
7.9556,1728
7.9583,1735
7.9611,1728
7.9639,1744
7.9667,1755
7.9694,1754
7.9722,1742
7.9750,1724
7.9778,1715
7.9806,1720
7.9833,1734
7.9861,1754
7.9889,1749
7.9917,1752
7.9944,1718
7.9972,1709
8.0000,1717
8.0028,1726
8.0056,1745
8.0083,1745
8.0111,1738
8.0139,1726
8.0167,1722
8.0194,1713
8.0222,1720
8.0250,1725
8.0278,1728
8.0306,1729
8.0333,1715
8.0361,1700
8.0389,1696
8.0417,1720
8.0444,1723
8.0472,1729
8.0500,1735
8.0528,1731
8.0556,1727
8.0583,1718
8.0611,1723
8.0639,1736
8.0667,1734
8.0694,1741
8.0722,1730
8.0750,1727
8.0778,1734
8.0806,1732
8.0833,1740
8.0861,1737
8.0889,1733
8.0917,1730
8.0944,1717
8.0972,1693
8.1000,1689
8.1028,1682
8.1056,1690
8.1083,1680
8.1111,1676
8.1139,1651
8.1167,1625
8.1194,1616
8.1222,1622
8.1250,1630
8.1278,1631
8.1306,1620
8.1333,1604
8.1361,1584
8.1389,1573
8.1417,1565
8.1444,1573
8.1472,1570
8.1500,1575
8.1528,1564
8.1556,1557
8.1583,1562
8.1611,1562
8.1639,1572
8.1667,1573
8.1694,1580
8.1722,1576
8.1750,1573
8.1778,1578
8.1806,1583
8.1833,1595
8.1861,1598
8.1889,1595
8.1917,1604
8.1944,1595
8.1972,1597
8.2000,1599
8.2028,1610
8.2056,1621
8.2083,1628
8.2111,1631
8.2139,1626
8.2167,1621
8.2194,1622
8.2222,1630
8.2250,1629
8.2278,1631
8.2306,1617
8.2333,1616
8.2361,1613
8.2389,1616
8.2417,1625
8.2444,1638
8.2472,1625
8.2500,1623
8.2528,1613
8.2556,1606
8.2583,1609
8.2611,1608
8.2639,1611
8.2667,1610
8.2694,1608
8.2722,1606
8.2750,1604
8.2778,1603
8.2806,1604
8.2833,1614
8.2861,1606
8.2889,1605
8.2917,1601
8.2944,1594
8.2972,1588
8.3000,1586
8.3028,1582
8.3056,1578
8.3083,1585
8.3111,1576
8.3139,1568
8.3167,1572
8.3194,1567
8.3222,1574
8.3250,1570
8.3278,1570
8.3306,1566
8.3333,1554
8.3361,1531
8.3389,1541
8.3417,1537
8.3444,1544
8.3472,1545
8.3500,1548
8.3528,1539
8.3556,1538
8.3583,1536
8.3611,1535
8.3639,1546
8.3667,1557
8.3694,1552
8.3722,1552
8.3750,1545
8.3778,1541
8.3806,1539
8.3833,1542
8.3861,1548
8.3889,1550
8.3917,1551
8.3944,1561
8.3972,1554
8.4000,1552
8.4028,1544
8.4056,1532
8.4083,1531
8.4111,1531
8.4139,1535
8.4167,1535
8.4194,1532
8.4222,1546
8.4250,1544
8.4278,1551
8.4306,1542
8.4333,1531
8.4361,1535
8.4389,1518
8.4417,1530
8.4444,1526
8.4472,1528
8.4500,1537
8.4528,1533
8.4556,1544
8.4583,1542
8.4611,1543
8.4639,1538
8.4667,1537
8.4694,1534
8.4722,1540
8.4750,1536
8.4778,1535
8.4806,1540
8.4833,1545
8.4861,1550
8.4889,1546
8.4917,1539
8.4944,1541
8.4972,1541
8.5000,1544
8.5028,1538
8.5056,1541
8.5083,1542
8.5111,1547
8.5139,1551
8.5167,1547
8.5194,1547
8.5222,1554
8.5250,1575
8.5278,1607
8.5306,1640
8.5333,1681
8.5361,1695
8.5389,1715
8.5417,1726
8.5444,1742
8.5472,1743
8.5500,1759
8.5528,1791
8.5556,1826
8.5583,1847
8.5611,1885
8.5639,1894
8.5667,1905
8.5694,1895
8.5722,1889
8.5750,1869
8.5778,1854
8.5806,1838
8.5833,1833
8.5861,1850
8.5889,1844
8.5917,1808
8.5944,1748
8.5972,1688
8.6000,1638
8.6028,1593
8.6056,1579
8.6083,1566
8.6111,1562
8.6139,1565
8.6167,1565
8.6194,1579
8.6222,1578
8.6250,1578
8.6278,1578
8.6306,1580
8.6333,1581
8.6361,1577
8.6389,1575
8.6417,1582
8.6444,1591
8.6472,1596
8.6500,1592
8.6528,1594
8.6556,1600
8.6583,1606
8.6611,1609
8.6639,1613
8.6667,1614
8.6694,1613
8.6722,1598
8.6750,1569
8.6778,1526
8.6806,1478
8.6833,1429
8.6861,1415
8.6889,1440
8.6917,1550
8.6944,1736
8.6972,1999
8.7000,2284
8.7028,2590
8.7056,2884
8.7083,3171
8.7111,3352
8.7139,3368
8.7167,3366
8.7194,3368
8.7222,3354
8.7250,2994
8.7278,2312
8.7306,1691
8.7333,1293
8.7361,1106
8.7389,1067
8.7417,1080
8.7444,1146
8.7472,1297
8.7500,1489
8.7528,1679
8.7556,1808
8.7583,1888
8.7611,1904
8.7639,1884
8.7667,1874
8.7694,1859
8.7722,1848
8.7750,1830
8.7778,1806
8.7806,1791
8.7833,1792
8.7861,1799
8.7889,1811
8.7917,1833
8.7944,1840
8.7972,1829
8.8000,1816
8.8028,1808
8.8056,1794
8.8083,1804
8.8111,1818
8.8139,1818
8.8167,1804
8.8194,1789
8.8222,1782
8.8250,1797
8.8278,1817
8.8306,1822
8.8333,1819
8.8361,1815
8.8389,1791
8.8417,1789
8.8444,1782
8.8472,1792
8.8500,1803
8.8528,1801
8.8556,1795
8.8583,1784
8.8611,1787
8.8639,1792
8.8667,1805
8.8694,1817
8.8722,1823
8.8750,1825
8.8778,1812
8.8806,1802
8.8833,1800
8.8861,1808
8.8889,1815
8.8917,1833
8.8944,1830
8.8972,1814
8.9000,1803
8.9028,1794
8.9056,1809
8.9083,1816
8.9111,1828
8.9139,1834
8.9167,1830
8.9194,1818
8.9222,1816
8.9250,1876
8.9278,1889
8.9306,1902
8.9333,1909
8.9361,1909
8.9389,1901
8.9417,1899
8.9444,1910
8.9472,1919
8.9500,1935
8.9528,1948
8.9556,1942
8.9583,1939
8.9611,1933
8.9639,1923
8.9667,1919
8.9694,1929
8.9722,1928
8.9750,1921
8.9778,1896
8.9806,1880
8.9833,1863
8.9861,1851
8.9889,1842
8.9917,1838
8.9944,1824
8.9972,1805
9.0000,1781
9.0028,1764
9.0056,1752
9.0083,1748
9.0111,1753
9.0139,1752
9.0167,1737
9.0194,1717
9.0222,1698
9.0250,1692
9.0278,1682
9.0306,1684
9.0333,1685
9.0361,1677
9.0389,1668
9.0417,1664
9.0444,1662
9.0472,1663
9.0500,1683
9.0528,1680
9.0556,1673
9.0583,1659
9.0611,1649
9.0639,1637
9.0667,1630
9.0694,1639
9.0722,1643
9.0750,1646
9.0778,1641
9.0806,1639
9.0833,1635
9.0861,1643
9.0889,1640
9.0917,1623
9.0944,1630
9.0972,1628
9.1000,1637
9.1028,1637
9.1056,1640
9.1083,1642
9.1111,1647
9.1139,1657
9.1167,1659
9.1194,1662
9.1222,1653
9.1250,1663
9.1278,1666
9.1306,1677
9.1333,1691
9.1361,1682
9.1389,1670
9.1417,1669
9.1444,1671
9.1472,1672
9.1500,1663
9.1528,1659
9.1556,1663
9.1583,1662
9.1611,1645
9.1639,1653
9.1667,1643
9.1694,1654
9.1722,1654
9.1750,1657
9.1778,1654
9.1806,1651
9.1833,1653
9.1861,1651
9.1889,1645
9.1917,1643
9.1944,1648
9.1972,1647
9.2000,1642
9.2028,1638
9.2056,1629
9.2083,1652
9.2111,1661
9.2139,1665
9.2167,1657
9.2194,1648
9.2222,1636
9.2250,1635
9.2278,1641
9.2306,1644
9.2333,1659
9.2361,1668
9.2389,1663
9.2417,1666
9.2444,1661
9.2472,1669
9.2500,1671
9.2528,1677
9.2556,1675
9.2583,1659
9.2611,1655
9.2639,1670
9.2667,1660
9.2694,1660
9.2722,1663
9.2750,1660
9.2778,1662
9.2806,1663
9.2833,1664
9.2861,1676
9.2889,1692
9.2917,1692
9.2944,1688
9.2972,1696
9.3000,1687
9.3028,1674
9.3056,1659
9.3083,1657
9.3111,1658
9.3139,1668
9.3167,1670
9.3194,1667
9.3222,1668
9.3250,1666
9.3278,1681
9.3306,1679
9.3333,1680
9.3361,1676
9.3389,1675
9.3417,1673
9.3444,1683
9.3472,1685
9.3500,1683
9.3528,1697
9.3556,1692
9.3583,1693
9.3611,1685
9.3639,1681
9.3667,1676
9.3694,1686
9.3722,1689
9.3750,1691
9.3778,1690
9.3806,1706
9.3833,1725
9.3861,1761
9.3889,1794
9.3917,1830
9.3944,1850
9.3972,1862
9.4000,1865
9.4028,1852
9.4056,1853
9.4083,1874
9.4111,1911
9.4139,1949
9.4167,1964
9.4194,1990
9.4222,1996
9.4250,2000
9.4278,2007
9.4306,1991
9.4333,1974
9.4361,1957
9.4389,1941
9.4417,1939
9.4444,1949
9.4472,1938
9.4500,1892
9.4528,1827
9.4556,1763
9.4583,1709
9.4611,1668
9.4639,1648
9.4667,1641
9.4694,1647
9.4722,1644
9.4750,1638
9.4778,1623
9.4806,1620
9.4833,1622
9.4861,1627
9.4889,1631
9.4917,1630
9.4944,1638
9.4972,1647
9.5000,1647
9.5028,1631
9.5056,1622
9.5083,1622
9.5111,1633
9.5139,1634
9.5167,1645
9.5194,1645
9.5222,1650
9.5250,1642
9.5278,1647
9.5306,1635
9.5333,1617
9.5361,1610
9.5389,1592
9.5417,1555
9.5444,1486
9.5472,1450
9.5500,1442
9.5528,1497
9.5556,1629
9.5583,1836
9.5611,2122
9.5639,2425
9.5667,2716
9.5694,3013
9.5722,3310
9.5750,3365
9.5778,3366
9.5806,3365
9.5833,3370
9.5861,3246
9.5889,2698
9.5917,2026
9.5944,1502
9.5972,1215
9.6000,1103
9.6028,1078
9.6056,1096
9.6083,1182
9.6111,1340
9.6139,1542
9.6167,1718
9.6194,1829
9.6222,1891
9.6250,1884
9.6278,1881
9.6306,1865
9.6333,1861
9.6361,1840
9.6389,1820
9.6417,1790
9.6444,1782
9.6472,1780
9.6500,1802
9.6528,1828
9.6556,1833
9.6583,1823
9.6611,1812
9.6639,1797
9.6667,1784
9.6694,1785
9.6722,1801
9.6750,1818
9.6778,1814
9.6806,1795
9.6833,1792
9.6861,1780
9.6889,1777
9.6917,1788
9.6944,1800
9.6972,1809
9.7000,1805
9.7028,1779
9.7056,1781
9.7083,1797
9.7111,1807
9.7139,1812
9.7167,1825
9.7194,1820
9.7222,1805
9.7250,1788
9.7278,1789
9.7306,1799
9.7333,1804
9.7361,1812
9.7389,1800
9.7417,1784
9.7444,1779
9.7472,1793
9.7500,1809
9.7528,1822
9.7556,1823
9.7583,1823
9.7611,1810
9.7639,1799
9.7667,1788
9.7694,1795
9.7722,1807
9.7750,1820
9.7778,1826
9.7806,1822
9.7833,1811
9.7861,1795
9.7889,1897
9.7917,1911
9.7944,1927
9.7972,1931
9.8000,1937
9.8028,1943
9.8056,1938
9.8083,1953
9.8111,1948
9.8139,1958
9.8167,1947
9.8194,1940
9.8222,1930
9.8250,1933
9.8278,1926
9.8306,1952
9.8333,1944
9.8361,1946
9.8389,1923
9.8417,1899
9.8444,1883
9.8472,1878
9.8500,1869
9.8528,1867
9.8556,1856
9.8583,1828
9.8611,1801
9.8639,1778
9.8667,1763
9.8694,1760
9.8722,1767
9.8750,1763
9.8778,1758
9.8806,1746
9.8833,1721
9.8861,1724
9.8889,1708
9.8917,1701
9.8944,1707
9.8972,1701
9.9000,1694
9.9028,1695
9.9056,1688
9.9083,1692
9.9111,1688
9.9139,1698
9.9167,1704
9.9194,1700
9.9222,1684
9.9250,1679
9.9278,1675
9.9306,1680
9.9333,1687
9.9361,1683
9.9389,1688
9.9417,1683
9.9444,1688
9.9472,1695
9.9500,1693
9.9528,1696
9.9556,1693
9.9583,1699
9.9611,1699
9.9639,1689
9.9667,1691
9.9694,1692
9.9722,1699
9.9750,1703
9.9778,1697
9.9806,1700
9.9833,1693
9.9861,1681
9.9889,1690
9.9917,1697
9.9944,1700
9.9972,1702
10.0000,1700
10.0028,1691
10.0056,1697
10.0083,1708
10.0111,1707
10.0139,1718
10.0167,1711
10.0194,1698
10.0222,1700
10.0250,1694
10.0278,1686
10.0306,1681
10.0333,1680
10.0361,1696
10.0389,1713
10.0417,1706
10.0444,1714
10.0472,1702
10.0500,1696
10.0528,1704
10.0556,1704
10.0583,1706
10.0611,1694
10.0639,1691
10.0667,1683
10.0694,1676
10.0722,1675
10.0750,1678
10.0778,1682
10.0806,1686
10.0833,1684
10.0861,1683
10.0889,1681
10.0917,1693
10.0944,1701
10.0972,1703
10.1000,1704
10.1028,1694
10.1056,1697
10.1083,1698
10.1111,1703
10.1139,1706
10.1167,1694
10.1194,1688
10.1222,1685
10.1250,1687
10.1278,1694
10.1306,1710
10.1333,1721
10.1361,1731
10.1389,1735
10.1417,1730
10.1444,1730
10.1472,1725
10.1500,1728
10.1528,1739
10.1556,1755
10.1583,1748
10.1611,1743
10.1639,1731
10.1667,1737
10.1694,1735
10.1722,1751
10.1750,1758
10.1778,1758
10.1806,1749
10.1833,1749
10.1861,1751
10.1889,1753
10.1917,1762
10.1944,1762
10.1972,1759
10.2000,1771
10.2028,1768
10.2056,1766
10.2083,1761
10.2111,1765
10.2139,1779
10.2167,1791
10.2194,1800
10.2222,1803
10.2250,1790
10.2278,1788
10.2306,1790
10.2333,1796
10.2361,1801
10.2389,1805
10.2417,1805
10.2444,1804
10.2472,1795
10.2500,1794
10.2528,1799
10.2556,1801
10.2583,1803
10.2611,1799
10.2639,1805
10.2667,1815
10.2694,1811
10.2722,1820
10.2750,1820
10.2778,1822
10.2806,1811
10.2833,1803
10.2861,1814
10.2889,1817
10.2917,1829
10.2944,1825
10.2972,1835
10.3000,1832
10.3028,1825
10.3056,1825
10.3083,1826
10.3111,1818
10.3139,1830
10.3167,1839
10.3194,1836
10.3222,1839
10.3250,1845
10.3278,1846
10.3306,1839
10.3333,1846
10.3361,1841
10.3389,1844
10.3417,1850
10.3444,1869
10.3472,1868
10.3500,1864
10.3528,1853
10.3556,1859
10.3583,1857
10.3611,1859
10.3639,1860
10.3667,1858
10.3694,1865
10.3722,1873
10.3750,1877
10.3778,1869
10.3806,1877
10.3833,1879
10.3861,1881
10.3889,1888
10.3917,1884
10.3944,1883
10.3972,1879
10.4000,1874
10.4028,1876
10.4056,1885
10.4083,1903
10.4111,1907
10.4139,1914
10.4167,1904
10.4194,1885
10.4222,1891
10.4250,1895
10.4278,1904
10.4306,1908
10.4333,1916
10.4361,1911
10.4389,1912
10.4417,1921
10.4444,1920
10.4472,1928
10.4500,1930
10.4528,1926
10.4556,1932
10.4583,1931
10.4611,1917
10.4639,1926
10.4667,1917
10.4694,1912
10.4722,1913
10.4750,1912
10.4778,1915
10.4806,1916
10.4833,1907
10.4861,1904
10.4889,1906
10.4917,1910
10.4944,1912
10.4972,1915
10.5000,1920
10.5028,1920
10.5056,1915
10.5083,1909
10.5111,1918
10.5139,1921
10.5167,1909
10.5194,1904
10.5222,1902
10.5250,1900
10.5278,1896
10.5306,1888
10.5333,1889
10.5361,1895
10.5389,1885
10.5417,1884
10.5444,1875
10.5472,1866
10.5500,1875
10.5528,1891
10.5556,1878
10.5583,1870
10.5611,1868
10.5639,1866
10.5667,1868
10.5694,1872
10.5722,1865
10.5750,1849
10.5778,1853
10.5806,1839
10.5833,1839
10.5861,1840
10.5889,1836
10.5917,1839
10.5944,1848
10.5972,1850
10.6000,1856
10.6028,1872
10.6056,1896
10.6083,1913
10.6111,1939
10.6139,1962
10.6167,1986
10.6194,2007
10.6222,2014
10.6250,2018
10.6278,2017
10.6306,2023
10.6333,2039
10.6361,2066
10.6389,2085
10.6417,2114
10.6444,2128
10.6472,2126
10.6500,2110
10.6528,2087
10.6556,2060
10.6583,2049
10.6611,2037
10.6639,2038
10.6667,2018
10.6694,1969
10.6722,1904
10.6750,1862
10.6778,1816
10.6806,1800
10.6833,1781
10.6861,1769
10.6889,1769
10.6917,1777
10.6944,1774
10.6972,1780
10.7000,1775
10.7028,1767
10.7056,1765
10.7083,1772
10.7111,1769
10.7139,1771
10.7167,1761
10.7194,1758
10.7222,1749
10.7250,1740
10.7278,1736
10.7306,1745
10.7333,1745
10.7361,1749
10.7389,1753
10.7417,1743
10.7444,1748
10.7472,1738
10.7500,1745
10.7528,1759
10.7556,1761
10.7583,1750
10.7611,1717
10.7639,1674
10.7667,1608
10.7694,1547
10.7722,1517
10.7750,1546
10.7778,1624
10.7806,1764
10.7833,1980
10.7861,2261
10.7889,2558
10.7917,2848
10.7944,3152
10.7972,3348
10.8000,3355
10.8028,3366
10.8056,3371
10.8083,3360
10.8111,3146
10.8139,2567
10.8167,1953
10.8194,1492
10.8222,1264
10.8250,1171
10.8278,1158
10.8306,1171
10.8333,1225
10.8361,1359
10.8389,1517
10.8417,1694
10.8444,1821
10.8472,1897
10.8500,1926
10.8528,1930
10.8556,1924
10.8583,1908
10.8611,1882
10.8639,1853
10.8667,1830
10.8694,1823
10.8722,1832
10.8750,1849
10.8778,1864
10.8806,1875
10.8833,1857
10.8861,1836
10.8889,1823
10.8917,1822
10.8944,1828
10.8972,1835
10.9000,1845
10.9028,1857
10.9056,1836
10.9083,1840
10.9111,1825
10.9139,1826
10.9167,1838
10.9194,1838
10.9222,1838
10.9250,1826
10.9278,1814
10.9306,1818
10.9333,1832
10.9361,1857
10.9389,1864
10.9417,1858
10.9444,1841
10.9472,1821
10.9500,1802
10.9528,1800
10.9556,1819
10.9583,1841
10.9611,1857
10.9639,1845
10.9667,1830
10.9694,1843
10.9722,1839
10.9750,1854
10.9778,1878
10.9806,1892
10.9833,1872
10.9861,1857
10.9889,1844
10.9917,1836
10.9944,1838
10.9972,1858
11.0000,1862
11.0028,1864
11.0056,1856
11.0083,1837
11.0111,1834
11.0139,1930
11.0167,1948
11.0194,1945
11.0222,1941
11.0250,1921
11.0278,1904
11.0306,1903
11.0333,1903
11.0361,1903
11.0389,1905
11.0417,1897
11.0444,1889
11.0472,1878
11.0500,1866
11.0528,1866
11.0556,1865
11.0583,1867
11.0611,1868
11.0639,1863
11.0667,1845
11.0694,1836
11.0722,1820
11.0750,1808
11.0778,1790
11.0806,1774
11.0833,1747
11.0861,1722
11.0889,1694
11.0917,1676
11.0944,1663
11.0972,1669
11.1000,1664
11.1028,1657
11.1056,1648
11.1083,1632
11.1111,1611
11.1139,1609
11.1167,1599
11.1194,1577
11.1222,1557
11.1250,1532
11.1278,1519
11.1306,1524
11.1333,1525
11.1361,1536
11.1389,1526
11.1417,1528
11.1444,1517
11.1472,1511
11.1500,1508
11.1528,1512
11.1556,1518
11.1583,1523
11.1611,1527
11.1639,1513
11.1667,1508
11.1694,1517
11.1722,1513
11.1750,1521
11.1778,1530
11.1806,1540
11.1833,1531
11.1861,1523
11.1889,1521
11.1917,1528
11.1944,1532
11.1972,1530
11.2000,1543
11.2028,1526
11.2056,1521
11.2083,1515
11.2111,1508
11.2139,1511
11.2167,1519
11.2194,1519
11.2222,1517
11.2250,1518
11.2278,1519
11.2306,1515
11.2333,1519
11.2361,1535
11.2389,1538
11.2417,1528
11.2444,1516
11.2472,1504
11.2500,1514
11.2528,1514
11.2556,1525
11.2583,1522
11.2611,1524
11.2639,1524
11.2667,1525
11.2694,1520
11.2722,1519
11.2750,1523
11.2778,1542
11.2806,1541
11.2833,1535
11.2861,1520
11.2889,1518
11.2917,1525
11.2944,1537
11.2972,1551
11.3000,1550
11.3028,1540
11.3056,1528
11.3083,1520
11.3111,1531
11.3139,1542
11.3167,1549
11.3194,1570
11.3222,1571
11.3250,1576
11.3278,1566
11.3306,1560
11.3333,1562
11.3361,1560
11.3389,1565
11.3417,1570
11.3444,1578
11.3472,1578
11.3500,1574
11.3528,1566
11.3556,1573
11.3583,1575
11.3611,1583
11.3639,1588
11.3667,1604
11.3694,1601
11.3722,1589
11.3750,1595
11.3778,1592
11.3806,1591
11.3833,1604
11.3861,1602
11.3889,1599
11.3917,1595
11.3944,1599
11.3972,1610
11.4000,1611
11.4028,1614
11.4056,1610
11.4083,1608
11.4111,1612
11.4139,1611
11.4167,1607
11.4194,1613
11.4222,1631
11.4250,1634
11.4278,1632
11.4306,1620
11.4333,1612
11.4361,1615
11.4389,1612
11.4417,1602
11.4444,1599
11.4472,1611
11.4500,1624
11.4528,1629
11.4556,1633
11.4583,1626
11.4611,1615
11.4639,1618
11.4667,1622
11.4694,1622
11.4722,1631
11.4750,1625
11.4778,1627
11.4806,1625
11.4833,1626
11.4861,1626
11.4889,1625
11.4917,1628
11.4944,1646
11.4972,1651
11.5000,1658
11.5028,1661
11.5056,1661
11.5083,1655
11.5111,1650
11.5139,1650
11.5167,1654
11.5194,1662
11.5222,1663
11.5250,1658
11.5278,1655
11.5306,1669
11.5333,1668
11.5361,1672
11.5389,1671
11.5417,1683
11.5444,1685
11.5472,1691
11.5500,1695
11.5528,1687
11.5556,1688
11.5583,1681
11.5611,1695
11.5639,1696
11.5667,1697
11.5694,1696
11.5722,1693
11.5750,1688
11.5778,1690
11.5806,1694
11.5833,1695
11.5861,1683
11.5889,1693
11.5917,1698
11.5944,1712
11.5972,1719
11.6000,1726
11.6028,1727
11.6056,1713
11.6083,1698
11.6111,1701
11.6139,1694
11.6167,1703
11.6194,1701
11.6222,1707
11.6250,1707
11.6278,1711
11.6306,1718
11.6333,1711
11.6361,1711
11.6389,1717
11.6417,1710
11.6444,1702
11.6472,1704
11.6500,1709
11.6528,1704
11.6556,1697
11.6583,1698
11.6611,1705
11.6639,1708
11.6667,1717
11.6694,1714
11.6722,1714
11.6750,1706
11.6778,1709
11.6806,1716
11.6833,1722
11.6861,1729
11.6889,1724
11.6917,1720
11.6944,1724
11.6972,1721
11.7000,1723
11.7028,1728
11.7056,1731
11.7083,1720
11.7111,1716
11.7139,1720
11.7167,1720
11.7194,1726
11.7222,1722
11.7250,1722
11.7278,1716
11.7306,1715
11.7333,1714
11.7361,1707
11.7389,1704
11.7417,1716
11.7444,1707
11.7472,1725
11.7500,1728
11.7528,1721
11.7556,1726
11.7583,1718
11.7611,1714
11.7639,1709
11.7667,1714
11.7694,1729
11.7722,1737
11.7750,1761
11.7778,1780
11.7806,1808
11.7833,1833
11.7861,1846
11.7889,1867
11.7917,1875
11.7944,1883
11.7972,1909
11.8000,1934
11.8028,1967
11.8056,1983
11.8083,1999
11.8111,2017
11.8139,2030
11.8167,2038
11.8194,2031
11.8222,2014
11.8250,1986
11.8278,1970
11.8306,1951
11.8333,1954
11.8361,1946
11.8389,1917
11.8417,1869
11.8444,1812
11.8472,1761
11.8500,1728
11.8528,1698
11.8556,1679
11.8583,1675
11.8611,1675
11.8639,1667
11.8667,1655
11.8694,1655
11.8722,1662
11.8750,1671
11.8778,1673
11.8806,1676
11.8833,1689
11.8861,1675
11.8889,1670
11.8917,1666
11.8944,1656
11.8972,1666
11.9000,1665
11.9028,1671
11.9056,1680
11.9083,1675
11.9111,1676
11.9139,1678
11.9167,1680
11.9194,1683
11.9222,1662
11.9250,1635
11.9278,1598
11.9306,1546
11.9333,1492
11.9361,1458
11.9389,1466
11.9417,1536
11.9444,1686
11.9472,1902
11.9500,2174
11.9528,2455
11.9556,2726
11.9583,3013
11.9611,3301
11.9639,3353
11.9667,3369
11.9694,3377
11.9722,3367
11.9750,3129
11.9778,2517
11.9806,1870
11.9833,1389
11.9861,1142
11.9889,1050
11.9917,1036
11.9944,1075
11.9972,1209
12.0000,1391
12.0028,1588
12.0056,1748
12.0083,1848
12.0111,1894
12.0139,1912
12.0167,1897
12.0194,1886
12.0222,1872
12.0250,1857
12.0278,1830
12.0306,1813
12.0333,1805
12.0361,1818
12.0389,1853
12.0417,1880
12.0444,1891
12.0472,1873
12.0500,1847
12.0528,1828
12.0556,1829
12.0583,1850
12.0611,1867
12.0639,1880
12.0667,1868
12.0694,1850
12.0722,1826
12.0750,1822
12.0778,1837
12.0806,1861
12.0833,1868
12.0861,1868
12.0889,1855
12.0917,1845
12.0944,1831
12.0972,1840
12.1000,1857
12.1028,1871
12.1056,1874
12.1083,1868
12.1111,1859
12.1139,1865
12.1167,1865
12.1194,1878
12.1222,1883
12.1250,1893
12.1278,1882
12.1306,1870
12.1333,1847
12.1361,1854
12.1389,1867
12.1417,1881
12.1444,1901
12.1472,1902
12.1500,1893
12.1528,1881
12.1556,1878
12.1583,1865
12.1611,1879
12.1639,1899
12.1667,1909
12.1694,1912
12.1722,1898
12.1750,1897
12.1778,2017
12.1806,2025
12.1833,2037
12.1861,2042
12.1889,2050
12.1917,2056
12.1944,2054
12.1972,2053
12.2000,2056
12.2028,2051
12.2056,2044
12.2083,2036
12.2111,2038
12.2139,2037
12.2167,2035
12.2194,2027
12.2222,2029
12.2250,2014
12.2278,2016
12.2306,2000
12.2333,1997
12.2361,1978
12.2389,1975
12.2417,1952
12.2444,1946
12.2472,1931
12.2500,1909
12.2528,1879
12.2556,1861
12.2583,1842
12.2611,1827
12.2639,1814
12.2667,1795
12.2694,1766
12.2722,1755
12.2750,1736
12.2778,1739
12.2806,1733
12.2833,1745
12.2861,1726
12.2889,1717
12.2917,1706
12.2944,1702
12.2972,1701
12.3000,1701
12.3028,1686
12.3056,1677
12.3083,1676
12.3111,1658
12.3139,1656
12.3167,1649
12.3194,1648
12.3222,1654
12.3250,1664
12.3278,1671
12.3306,1664
12.3333,1666
12.3361,1663
12.3389,1659
12.3417,1661
12.3444,1654
12.3472,1646
12.3500,1638
12.3528,1643
12.3556,1654
12.3583,1658
12.3611,1670
12.3639,1667
12.3667,1663
12.3694,1651
12.3722,1639
12.3750,1645
12.3778,1654
12.3806,1660
12.3833,1665
12.3861,1671
12.3889,1671
12.3917,1665
12.3944,1647
12.3972,1647
12.4000,1638
12.4028,1643
12.4056,1651
12.4083,1652
12.4111,1655
12.4139,1646
12.4167,1644
12.4194,1636
12.4222,1634
12.4250,1620
12.4278,1618
12.4306,1629
12.4333,1628
12.4361,1613
12.4389,1623
12.4417,1626
12.4444,1631
12.4472,1626
12.4500,1616
12.4528,1610
12.4556,1612
12.4583,1616
12.4611,1612
12.4639,1615
12.4667,1608
12.4694,1598
12.4722,1593
12.4750,1585
12.4778,1595
12.4806,1608
12.4833,1616
12.4861,1613
12.4889,1613
12.4917,1605
12.4944,1607
12.4972,1598
12.5000,1597
12.5028,1594
12.5056,1588
12.5083,1586
12.5111,1600
12.5139,1607
12.5167,1613
12.5194,1604
12.5222,1599
12.5250,1592
12.5278,1580
12.5306,1585
12.5333,1590
12.5361,1596
12.5389,1601
12.5417,1600
12.5444,1583
12.5472,1581
12.5500,1580
12.5528,1583
12.5556,1580
12.5583,1580
12.5611,1585
12.5639,1583
12.5667,1588
12.5694,1588
12.5722,1585
12.5750,1577
12.5778,1575
12.5806,1574
12.5833,1578
12.5861,1577
12.5889,1583
12.5917,1585
12.5944,1592
12.5972,1591
12.6000,1585
12.6028,1579
12.6056,1568
12.6083,1575
12.6111,1581
12.6139,1582
12.6167,1589
12.6194,1600
12.6222,1602
12.6250,1606
12.6278,1600
12.6306,1593
12.6333,1599
12.6361,1607
12.6389,1613
12.6417,1614
12.6444,1622
12.6472,1627
12.6500,1632
12.6528,1634
12.6556,1629
12.6583,1629
12.6611,1632
12.6639,1642
12.6667,1646
12.6694,1658
12.6722,1667
12.6750,1667
12.6778,1668
12.6806,1667
12.6833,1661
12.6861,1651
12.6889,1651
12.6917,1660
12.6944,1666
12.6972,1665
12.7000,1683
12.7028,1681
12.7056,1684
12.7083,1692
12.7111,1692
12.7139,1699
12.7167,1689
12.7194,1691
12.7222,1700
12.7250,1693
12.7278,1702
12.7306,1698
12.7333,1699
12.7361,1697
12.7389,1690
12.7417,1703
12.7444,1713
12.7472,1726
12.7500,1734
12.7528,1742
12.7556,1737
12.7583,1735
12.7611,1735
12.7639,1724
12.7667,1732
12.7694,1743
12.7722,1736
12.7750,1736
12.7778,1746
12.7806,1749
12.7833,1751
12.7861,1761
12.7889,1747
12.7917,1739
12.7944,1741
12.7972,1751
12.8000,1763
12.8028,1767
12.8056,1776
12.8083,1774
12.8111,1782
12.8139,1772
12.8167,1770
12.8194,1769
12.8222,1786
12.8250,1789
12.8278,1798
12.8306,1793
12.8333,1797
12.8361,1794
12.8389,1783
12.8417,1778
12.8444,1775
12.8472,1772
12.8500,1778
12.8528,1782
12.8556,1781
12.8583,1782
12.8611,1784
12.8639,1799
12.8667,1801
12.8694,1797
12.8722,1802
12.8750,1796
12.8778,1796
12.8806,1817
12.8833,1821
12.8861,1826
12.8889,1856
12.8917,1880
12.8944,1907
12.8972,1929
12.9000,1964
12.9028,1969
12.9056,1972
12.9083,1985
12.9111,2005
12.9139,2039
12.9167,2061
12.9194,2102
12.9222,2123
12.9250,2132
12.9278,2133
12.9306,2135
12.9333,2122
12.9361,2096
12.9389,2077
12.9417,2065
12.9444,2061
12.9472,2068
12.9500,2047
12.9528,2011
12.9556,1946
12.9583,1879
12.9611,1820
12.9639,1785
12.9667,1772
12.9694,1760
12.9722,1762
12.9750,1764
12.9778,1759
12.9806,1770
12.9833,1772
12.9861,1781
12.9889,1769
12.9917,1758
12.9944,1748
12.9972,1747
13.0000,1755
13.0028,1751
13.0056,1746
13.0083,1731
13.0111,1732
13.0139,1733
13.0167,1738
13.0194,1753
13.0222,1748
13.0250,1755
13.0278,1753
13.0306,1748
13.0333,1738
13.0361,1724
13.0389,1687
13.0417,1650
13.0444,1599
13.0472,1539
13.0500,1518
13.0528,1553
13.0556,1644
13.0583,1783
13.0611,2005
13.0639,2291
13.0667,2586
13.0694,2883
13.0722,3199
13.0750,3352
13.0778,3364
13.0806,3366
13.0833,3365
13.0861,3362
13.0889,3199
13.0917,2618
13.0944,1980
13.0972,1507
13.1000,1279
13.1028,1206
13.1056,1202
13.1083,1234
13.1111,1323
13.1139,1482
13.1167,1677
13.1194,1849
13.1222,1960
13.1250,2013
13.1278,2014
13.1306,2010
13.1333,1993
13.1361,1987
13.1389,1972
13.1417,1945
13.1444,1923
13.1472,1908
13.1500,1912
13.1528,1940
13.1556,1954
13.1583,1957
13.1611,1935
13.1639,1913
13.1667,1891
13.1694,1894
13.1722,1896
13.1750,1904
13.1778,1915
13.1806,1916
13.1833,1899
13.1861,1872
13.1889,1855
13.1917,1848
13.1944,1861
13.1972,1886
13.2000,1901
13.2028,1886
13.2056,1865
13.2083,1850
13.2111,1859
13.2139,1873
13.2167,1892
13.2194,1878
13.2222,1867
13.2250,1847
13.2278,1842
13.2306,1849
13.2333,1859
13.2361,1878
13.2389,1880
13.2417,1868
13.2444,1867
13.2472,1857
13.2500,1859
13.2528,1863
13.2556,1887
13.2583,1899
13.2611,1880
13.2639,1864
13.2667,1851
13.2694,1845
13.2722,1848
13.2750,1868
13.2778,1877
13.2806,1861
13.2833,1842
13.2861,1831
13.2889,1825
13.2917,1848
13.2944,1865
13.2972,1874
13.3000,1891
13.3028,1868
13.3056,1863
13.3083,1848
13.3111,1834
13.3139,1852
13.3167,1868
13.3194,1879
13.3222,1884
13.3250,1886
13.3278,1873
13.3306,1879
13.3333,1877
13.3361,1871
13.3389,1859
13.3417,1846
13.3444,1822
13.3472,1818
13.3500,1816
13.3528,1803
13.3556,1793
13.3583,1771
13.3611,1748
13.3639,1730
13.3667,1713
13.3694,1706
13.3722,1698
13.3750,1689
13.3778,1692
13.3806,1677
13.3833,1657
13.3861,1652
13.3889,1641
13.3917,1622
13.3944,1626
13.3972,1620
13.4000,1610
13.4028,1602
13.4056,1579
13.4083,1582
13.4111,1571
13.4139,1582
13.4167,1597
13.4194,1601
13.4222,1595
13.4250,1585
13.4278,1579
13.4306,1558
13.4333,1560
13.4361,1570
13.4389,1581
13.4417,1567
13.4444,1556
13.4472,1561
13.4500,1565
13.4528,1570
13.4556,1569
13.4583,1573
13.4611,1573
13.4639,1560
13.4667,1556
13.4694,1555
13.4722,1569
13.4750,1573
13.4778,1568
13.4806,1569
13.4833,1553
13.4861,1557
13.4889,1549
13.4917,1548
13.4944,1549
13.4972,1548
13.5000,1553
13.5028,1564
13.5056,1576
13.5083,1566
13.5111,1566
13.5139,1576
13.5167,1578
13.5194,1583
13.5222,1570
13.5250,1564
13.5278,1563
13.5306,1567
13.5333,1572
13.5361,1577
13.5389,1584
13.5417,1578
13.5444,1565
13.5472,1567
13.5500,1561
13.5528,1559
13.5556,1566
13.5583,1568
13.5611,1571
13.5639,1576
13.5667,1576
13.5694,1580
13.5722,1597
13.5750,1596
13.5778,1589
13.5806,1590
13.5833,1585
13.5861,1572
13.5889,1581
13.5917,1581
13.5944,1591
13.5972,1610
13.6000,1615
13.6028,1614
13.6056,1606
13.6083,1590
13.6111,1579
13.6139,1589
13.6167,1605
13.6194,1620
13.6222,1619
13.6250,1612
13.6278,1619
13.6306,1617
13.6333,1613
13.6361,1609
13.6389,1607
13.6417,1614
13.6444,1620
13.6472,1623
13.6500,1631
13.6528,1644
13.6556,1655
13.6583,1655
13.6611,1647
13.6639,1640
13.6667,1636
13.6694,1636
13.6722,1638
13.6750,1641
13.6778,1648
13.6806,1638
13.6833,1624
13.6861,1611
13.6889,1611
13.6917,1625
13.6944,1627
13.6972,1628
13.7000,1615
13.7028,1619
13.7056,1622
13.7083,1628
13.7111,1633
13.7139,1632
13.7167,1643
13.7194,1646
13.7222,1650
13.7250,1645
13.7278,1642
13.7306,1643
13.7333,1650
13.7361,1651
13.7389,1649
13.7417,1646
13.7444,1645
13.7472,1660
13.7500,1670
13.7528,1688
13.7556,1678
13.7583,1684
13.7611,1685
13.7639,1692
13.7667,1698
13.7694,1697
13.7722,1682
13.7750,1680
13.7778,1675
13.7806,1681
13.7833,1681
13.7861,1686
13.7889,1690
13.7917,1691
13.7944,1688
13.7972,1672
13.8000,1672
13.8028,1673
13.8056,1680
13.8083,1686
13.8111,1692
13.8139,1703
13.8167,1704
13.8194,1711
13.8222,1719
13.8250,1715
13.8278,1713
13.8306,1706
13.8333,1713
13.8361,1718
13.8389,1726
13.8417,1727
13.8444,1725
13.8472,1716
13.8500,1721
13.8528,1730
13.8556,1738
13.8583,1742
13.8611,1734
13.8639,1723
13.8667,1725
13.8694,1720
13.8722,1729
13.8750,1722
13.8778,1722
13.8806,1726
13.8833,1729
13.8861,1735
13.8889,1737
13.8917,1733
13.8944,1735
13.8972,1744
13.9000,1741
13.9028,1752
13.9056,1750
13.9083,1752
13.9111,1744
13.9139,1759
13.9167,1765
13.9194,1769
13.9222,1757
13.9250,1755
13.9278,1749
13.9306,1745
13.9333,1745
13.9361,1752
13.9389,1758
13.9417,1754
13.9444,1749
13.9472,1745
13.9500,1745
13.9528,1752
13.9556,1758
13.9583,1775
13.9611,1764
13.9639,1763
13.9667,1783
13.9694,1807
13.9722,1837
13.9750,1860
13.9778,1883
13.9806,1901
13.9833,1923
13.9861,1955
13.9889,1985
13.9917,2016
13.9944,2034
13.9972,2060
14.0000,2065
14.0028,2071
14.0056,2073
14.0083,2052
14.0111,2042
14.0139,2026
14.0167,2013
14.0194,1998
14.0222,2006
14.0250,2014
14.0278,1993
14.0306,1953
14.0333,1885
14.0361,1828
14.0389,1777
14.0417,1747
14.0444,1717
14.0472,1702
14.0500,1700
14.0528,1706
14.0556,1719
14.0583,1712
14.0611,1697
14.0639,1693
14.0667,1696
14.0694,1709
14.0722,1716
14.0750,1727
14.0778,1721
14.0806,1725
14.0833,1731
14.0861,1726
14.0889,1721
14.0917,1715
14.0944,1710
14.0972,1702
14.1000,1700
14.1028,1709
14.1056,1712
14.1083,1717
14.1111,1707
14.1139,1686
14.1167,1659
14.1194,1602
14.1222,1543
14.1250,1492
14.1278,1485
14.1306,1541
14.1333,1664
14.1361,1864
14.1389,2126
14.1417,2422
14.1444,2711
14.1472,3003
14.1500,3302
14.1528,3363
14.1556,3361
14.1583,3361
14.1611,3361
14.1639,3269
14.1667,2744
14.1694,2058
14.1722,1533
14.1750,1217
14.1778,1099
14.1806,1065
14.1833,1073
14.1861,1150
14.1889,1315
14.1917,1525
14.1944,1712
14.1972,1837
14.2000,1885
14.2028,1888
14.2056,1882
14.2083,1871
14.2111,1864
14.2139,1849
14.2167,1841
14.2194,1823
14.2222,1815
14.2250,1814
14.2278,1832
14.2306,1840
14.2333,1836
14.2361,1839
14.2389,1820
14.2417,1803
14.2444,1798
14.2472,1811
14.2500,1829
14.2528,1839
14.2556,1845
14.2583,1841
14.2611,1826
14.2639,1816
14.2667,1819
14.2694,1837
14.2722,1849
14.2750,1849
14.2778,1842
14.2806,1818
14.2833,1810
14.2861,1810
14.2889,1821
14.2917,1838
14.2944,1831
14.2972,1819
14.3000,1817
14.3028,1805
14.3056,1809
14.3083,1826
14.3111,1842
14.3139,1855
14.3167,1853
14.3194,1847
14.3222,1839
14.3250,1833
14.3278,1838
14.3306,1839
14.3333,1847
14.3361,1849
14.3389,1838
14.3417,1821
14.3444,1820
14.3472,1836
14.3500,1858
14.3528,1875
14.3556,1874
14.3583,1862
14.3611,1858
14.3639,1845
14.3667,1923
14.3694,1929
14.3722,1941
14.3750,1957
14.3778,1953
14.3806,1954
14.3833,1943
14.3861,1933
14.3889,1943
14.3917,1950
14.3944,1958
14.3972,1967
14.4000,1969
14.4028,1966
14.4056,1966
14.4083,1969
14.4111,1971
14.4139,1971
14.4167,1945
14.4194,1934
14.4222,1916
14.4250,1915
14.4278,1914
14.4306,1907
14.4333,1897
14.4361,1873
14.4389,1838
14.4417,1805
14.4444,1788
14.4472,1782
14.4500,1777
14.4528,1778
14.4556,1776
14.4583,1777
14.4611,1759
14.4639,1740
14.4667,1733
14.4694,1725
14.4722,1725
14.4750,1722
14.4778,1703
14.4806,1692
14.4833,1676
14.4861,1668
14.4889,1680
14.4917,1688
14.4944,1694
14.4972,1697
14.5000,1690
14.5028,1677
14.5056,1676
14.5083,1671
14.5111,1676
14.5139,1679
14.5167,1689
14.5194,1687
14.5222,1678
14.5250,1677
14.5278,1680
14.5306,1695
14.5333,1695
14.5361,1687
14.5389,1684
14.5417,1680
14.5444,1676
14.5472,1680
14.5500,1695
14.5528,1710
14.5556,1712
14.5583,1708
14.5611,1712
14.5639,1720
14.5667,1715
14.5694,1730
14.5722,1731
14.5750,1717
14.5778,1706
14.5806,1703
14.5833,1705
14.5861,1703
14.5889,1715
14.5917,1718
14.5944,1713
14.5972,1708
14.6000,1702
14.6028,1709
14.6056,1716
14.6083,1724
14.6111,1730
14.6139,1731
14.6167,1721
14.6194,1712
14.6222,1701
14.6250,1691
14.6278,1685
14.6306,1691
14.6333,1694
14.6361,1701
14.6389,1714
14.6417,1713
14.6444,1711
14.6472,1706
14.6500,1686
14.6528,1681
14.6556,1679
14.6583,1691
14.6611,1694
14.6639,1696
14.6667,1716
14.6694,1715
14.6722,1712
14.6750,1717
14.6778,1718
14.6806,1708
14.6833,1699
14.6861,1685
14.6889,1692
14.6917,1705
14.6944,1709
14.6972,1717
14.7000,1715
14.7028,1705
14.7056,1699
14.7083,1692
14.7111,1700
14.7139,1704
14.7167,1712
14.7194,1721
14.7222,1715
14.7250,1711
14.7278,1712
14.7306,1722
14.7333,1726
14.7361,1725
14.7389,1723
14.7417,1713
14.7444,1713
14.7472,1706
14.7500,1702
14.7528,1703
14.7556,1714
14.7583,1711
14.7611,1705
14.7639,1703
14.7667,1714
14.7694,1731
14.7722,1742
14.7750,1731
14.7778,1716
14.7806,1715
14.7833,1711
14.7861,1715
14.7889,1728
14.7917,1742
14.7944,1739
14.7972,1732
14.8000,1727
14.8028,1716
14.8056,1718
14.8083,1725
14.8111,1730
14.8139,1725
14.8167,1724
14.8194,1730
14.8222,1734
14.8250,1732
14.8278,1732
14.8306,1731
14.8333,1730
14.8361,1722
14.8389,1722
14.8417,1729
14.8444,1735
14.8472,1721
14.8500,1726
14.8528,1725
14.8556,1732
14.8583,1747
14.8611,1747
14.8639,1747
14.8667,1742
14.8694,1743
14.8722,1745
14.8750,1741
14.8778,1719
14.8806,1715
14.8833,1710
14.8861,1709
14.8889,1711
14.8917,1717
14.8944,1730
14.8972,1736
14.9000,1743
14.9028,1751
14.9056,1746
14.9083,1740
14.9111,1738
14.9139,1736
14.9167,1729
14.9194,1739
14.9222,1749
14.9250,1762
14.9278,1787
14.9306,1809
14.9333,1831
14.9361,1858
14.9389,1873
14.9417,1885
14.9444,1889
14.9472,1905
14.9500,1932
14.9528,1952
14.9556,1973
14.9583,2008
14.9611,2035
14.9639,2055
14.9667,2066
14.9694,2061
14.9722,2057
14.9750,2040
14.9778,2020
14.9806,2015
14.9833,2008
14.9861,2019
14.9889,2007
14.9917,1969
14.9944,1905
14.9972,1825
15.0000,1769
15.0028,1729
15.0056,1707
15.0083,1704
15.0111,1702
15.0139,1712
15.0167,1712
15.0194,1704
15.0222,1711
15.0250,1708
15.0278,1705
15.0306,1701
15.0333,1709
15.0361,1709
15.0389,1705
15.0417,1706
15.0444,1707
15.0472,1695
15.0500,1700
15.0528,1698
15.0556,1697
15.0583,1702
15.0611,1698
15.0639,1707
15.0667,1706
15.0694,1712
15.0722,1699
15.0750,1674
15.0778,1643
15.0806,1600
15.0833,1556
15.0861,1515
15.0889,1521
15.0917,1583
15.0944,1721
15.0972,1912
15.1000,2154
15.1028,2431
15.1056,2699
15.1083,2975
15.1111,3268
15.1139,3351
15.1167,3359
15.1194,3368
15.1222,3368
15.1250,3246
15.1278,2726
15.1306,2097
15.1333,1566
15.1361,1256
15.1389,1134
15.1417,1109
15.1444,1115
15.1472,1160
15.1500,1250
15.1528,1393
15.1556,1559
15.1583,1714
15.1611,1811
15.1639,1868
15.1667,1884
15.1694,1886
15.1722,1882
15.1750,1854
15.1778,1833
15.1806,1814
15.1833,1798
15.1861,1790
15.1889,1812
15.1917,1830
15.1944,1850
15.1972,1843
15.2000,1833
15.2028,1820
15.2056,1816
15.2083,1815
15.2111,1818
15.2139,1820
15.2167,1814
15.2194,1805
15.2222,1790
15.2250,1786
15.2278,1798
15.2306,1812
15.2333,1829
15.2361,1827
15.2389,1815
15.2417,1791
15.2444,1771
15.2472,1766
15.2500,1777
15.2528,1807
15.2556,1816
15.2583,1818
15.2611,1821
15.2639,1800
15.2667,1812
15.2694,1835
15.2722,1832
15.2750,1828
15.2778,1812
15.2806,1795
15.2833,1778
15.2861,1787
15.2889,1809
15.2917,1821
15.2944,1835
15.2972,1821
15.3000,1799
15.3028,1786
15.3056,1785
15.3083,1792
15.3111,1806
15.3139,1809
15.3167,1810
15.3194,1796
15.3222,1787
15.3250,1777
15.3278,1862
15.3306,1856
15.3333,1884
15.3361,1879
15.3389,1875
15.3417,1859
15.3444,1854
15.3472,1860
15.3500,1871
15.3528,1874
15.3556,1883
15.3583,1873
15.3611,1864
15.3639,1859
15.3667,1864
15.3694,1870
15.3722,1884
15.3750,1874
15.3778,1864
15.3806,1843
15.3833,1826
15.3861,1809
15.3889,1797
15.3917,1786
15.3944,1776
15.3972,1756
15.4000,1745
15.4028,1730
15.4056,1730
15.4083,1731
15.4111,1730
15.4139,1726
15.4167,1704
15.4194,1693
15.4222,1674
15.4250,1653
15.4278,1643
15.4306,1637
15.4333,1634
15.4361,1625
15.4389,1621
15.4417,1612
15.4444,1608
15.4472,1606
15.4500,1608
15.4528,1620
15.4556,1621
15.4583,1620
15.4611,1608
15.4639,1593
15.4667,1583
15.4694,1584
15.4722,1595
15.4750,1599
15.4778,1600
15.4806,1597
15.4833,1605
15.4861,1620
15.4889,1622
15.4917,1640
15.4944,1627
15.4972,1605
15.5000,1586
15.5028,1579
15.5056,1572
15.5083,1572
15.5111,1587
15.5139,1597
15.5167,1609
15.5194,1615
15.5222,1607
15.5250,1595
15.5278,1592
15.5306,1599
15.5333,1595
15.5361,1600
15.5389,1590
15.5417,1578
15.5444,1571
15.5472,1582
15.5500,1593
15.5528,1613
15.5556,1607
15.5583,1596
15.5611,1590
15.5639,1594
15.5667,1582
15.5694,1570
15.5722,1571
15.5750,1566
15.5778,1563
15.5806,1569
15.5833,1579
15.5861,1589
15.5889,1596
15.5917,1602
15.5944,1604
15.5972,1596
15.6000,1588
15.6028,1582
15.6056,1591
15.6083,1593
15.6111,1608
15.6139,1610
15.6167,1588
15.6194,1570
15.6222,1565
15.6250,1552
15.6278,1555
15.6306,1572
15.6333,1585
15.6361,1596
15.6389,1585
15.6417,1583
15.6444,1592
15.6472,1591
15.6500,1611
15.6528,1610
15.6556,1611
15.6583,1606
15.6611,1590
15.6639,1591
15.6667,1597
15.6694,1602
15.6722,1610
15.6750,1605
15.6778,1603
15.6806,1590
15.6833,1589
15.6861,1585
15.6889,1585
15.6917,1597
15.6944,1589
15.6972,1596
15.7000,1598
15.7028,1597
15.7056,1601
15.7083,1591
15.7111,1597
15.7139,1589
15.7167,1585
15.7194,1594
15.7222,1594
15.7250,1578
15.7278,1580
15.7306,1581
15.7333,1583
15.7361,1600
15.7389,1606
15.7417,1605
15.7444,1612
15.7472,1609
15.7500,1602
15.7528,1603
15.7556,1606
15.7583,1598
15.7611,1598
15.7639,1598
15.7667,1600
15.7694,1616
15.7722,1619
15.7750,1612
15.7778,1615
15.7806,1602
15.7833,1598
15.7861,1611
15.7889,1616
15.7917,1629
15.7944,1632
15.7972,1633
15.8000,1617
15.8028,1603
15.8056,1609
15.8083,1609
15.8111,1610
15.8139,1616
15.8167,1619
15.8194,1617
15.8222,1613
15.8250,1612
15.8278,1625
15.8306,1632
15.8333,1642
15.8361,1665
15.8389,1691
15.8417,1722
15.8444,1750
15.8472,1774
15.8500,1794
15.8528,1800
15.8556,1806
15.8583,1807
15.8611,1827
15.8639,1844
15.8667,1871
15.8694,1904
15.8722,1943
15.8750,1964
15.8778,1978
15.8806,1959
15.8833,1934
15.8861,1898
15.8889,1864
15.8917,1851
15.8944,1876
15.8972,1873
15.9000,1835
15.9028,1791
15.9056,1724
15.9083,1667
15.9111,1631
15.9139,1605
15.9167,1599
15.9194,1584
15.9222,1582
15.9250,1581
15.9278,1581
15.9306,1577
15.9333,1579
15.9361,1586
15.9389,1584
15.9417,1589
15.9444,1585
15.9472,1576
15.9500,1566
15.9528,1561
15.9556,1561
15.9583,1563
15.9611,1560
15.9639,1563
15.9667,1564
15.9694,1555
15.9722,1544
15.9750,1543
15.9778,1562
15.9806,1573
15.9833,1578
15.9861,1536
15.9889,1490
15.9917,1449
15.9944,1386
15.9972,1355
16.0000,1389
16.0028,1487
16.0056,1688
16.0083,1948
16.0111,2254
16.0139,2561
16.0167,2846
16.0194,3131
16.0222,3352
16.0250,3364
16.0278,3370
16.0306,3365
16.0333,3276
16.0361,2783
16.0389,2093
16.0417,1523
16.0444,1178
16.0472,1018
16.0500,975
16.0528,974
16.0556,1036
16.0583,1174
16.0611,1349
16.0639,1525
16.0667,1647
16.0694,1724
16.0722,1757
16.0750,1767
16.0778,1763
16.0806,1748
16.0833,1720
16.0861,1695
16.0889,1670
16.0917,1657
16.0944,1666
16.0972,1688
16.1000,1717
16.1028,1732
16.1056,1734
16.1083,1726
16.1111,1702
16.1139,1685
16.1167,1685
16.1194,1691
16.1222,1694
16.1250,1686
16.1278,1675
16.1306,1664
16.1333,1670
16.1361,1679
16.1389,1685
16.1417,1702
16.1444,1711
16.1472,1706
16.1500,1706
16.1528,1698
16.1556,1697
16.1583,1706
16.1611,1719
16.1639,1721
16.1667,1720
16.1694,1717
16.1722,1690
16.1750,1681
16.1778,1694
16.1806,1702
16.1833,1720
16.1861,1713
16.1889,1711
16.1917,1701
16.1944,1706
16.1972,1722
16.2000,1721
16.2028,1732
16.2056,1731
16.2083,1708
16.2111,1701
16.2139,1709
16.2167,1722
16.2194,1728
16.2222,1724
16.2250,1714
16.2278,1700
16.2306,1694
16.2333,1687
16.2361,1794
16.2389,1803
16.2417,1823
16.2444,1837
16.2472,1835
16.2500,1833
16.2528,1847
16.2556,1845
16.2583,1855
16.2611,1860
16.2639,1874
16.2667,1868
16.2694,1863
16.2722,1846
16.2750,1852
16.2778,1859
16.2806,1865
16.2833,1858
16.2861,1838
16.2889,1812
16.2917,1796
16.2944,1786
16.2972,1793
16.3000,1784
16.3028,1770
16.3056,1767
16.3083,1743
16.3111,1714
16.3139,1700
16.3167,1687
16.3194,1670
16.3222,1676
16.3250,1683
16.3278,1689
16.3306,1673
16.3333,1657
16.3361,1656
16.3389,1651
16.3417,1649
16.3444,1634
16.3472,1621
16.3500,1608
16.3528,1584
16.3556,1591
16.3583,1602
16.3611,1629
16.3639,1626
16.3667,1625
16.3694,1618
16.3722,1614
16.3750,1612
16.3778,1610
16.3806,1618
16.3833,1624
16.3861,1626
16.3889,1617
16.3917,1616
16.3944,1607
16.3972,1601
16.4000,1602
16.4028,1603
16.4056,1612
16.4083,1619
16.4111,1626
16.4139,1641
16.4167,1648
16.4194,1642
16.4222,1641
16.4250,1639
16.4278,1640
16.4306,1626
16.4333,1631
16.4361,1629
16.4389,1628
16.4417,1631
16.4444,1638
16.4472,1637
16.4500,1635
16.4528,1621
16.4556,1618
16.4583,1627
16.4611,1630
16.4639,1637
16.4667,1642
16.4694,1626
16.4722,1613
16.4750,1607
16.4778,1610
16.4806,1623
16.4833,1626
16.4861,1629
16.4889,1624
16.4917,1622
16.4944,1603
16.4972,1607
16.5000,1608
16.5028,1623
16.5056,1635
16.5083,1638
16.5111,1626
16.5139,1619
16.5167,1617
16.5194,1616
16.5222,1613
16.5250,1601
16.5278,1612
16.5306,1611
16.5333,1611
16.5361,1618
16.5389,1624
16.5417,1624
16.5444,1622
16.5472,1612
16.5500,1610
16.5528,1607
16.5556,1615
16.5583,1629
16.5611,1636
16.5639,1637
16.5667,1633
16.5694,1632
16.5722,1633
16.5750,1644
16.5778,1647
16.5806,1639
16.5833,1640
16.5861,1631
16.5889,1621
16.5917,1622
16.5944,1625
16.5972,1631
16.6000,1627
16.6028,1637
16.6056,1633
16.6083,1643
16.6111,1636
16.6139,1641
16.6167,1636
16.6194,1632
16.6222,1646
16.6250,1647
16.6278,1654
16.6306,1646
16.6333,1640
16.6361,1653
16.6389,1659
16.6417,1661
16.6444,1669
16.6472,1665
16.6500,1651
16.6528,1637
16.6556,1656
16.6583,1664
16.6611,1676
16.6639,1686
16.6667,1685
16.6694,1672
16.6722,1684
16.6750,1685
16.6778,1683
16.6806,1689
16.6833,1685
16.6861,1684
16.6889,1698
16.6917,1688
16.6944,1674
16.6972,1667
16.7000,1664
16.7028,1674
16.7056,1682
16.7083,1689
16.7111,1694
16.7139,1687
16.7167,1680
16.7194,1694
16.7222,1709
16.7250,1716
16.7278,1708
16.7306,1704
16.7333,1708
16.7361,1713
16.7389,1717
16.7417,1731
16.7444,1763
16.7472,1796
16.7500,1827
16.7528,1848
16.7556,1875
16.7583,1893
16.7611,1893
16.7639,1904
16.7667,1909
16.7694,1938
16.7722,1973
16.7750,2007
16.7778,2023
16.7806,2038
16.7833,2031
16.7861,2028
16.7889,2024
16.7917,2005
16.7944,1990
16.7972,1987
16.8000,1986
16.8028,1983
16.8056,1950
16.8083,1877
16.8111,1815
16.8139,1758
16.8167,1717
16.8194,1689
16.8222,1679
16.8250,1676
16.8278,1663
16.8306,1662
16.8333,1667
16.8361,1676
16.8389,1674
16.8417,1674
16.8444,1678
16.8472,1671
16.8500,1678
16.8528,1674
16.8556,1679
16.8583,1669
16.8611,1670
16.8639,1673
16.8667,1683
16.8694,1687
16.8722,1696
16.8750,1699
16.8778,1694
16.8806,1687
16.8833,1685
16.8861,1673
16.8889,1665
16.8917,1635
16.8944,1600
16.8972,1545
16.9000,1482
16.9028,1448
16.9056,1477
16.9083,1579
16.9111,1738
16.9139,1974
16.9167,2251
16.9194,2540
16.9222,2856
16.9250,3165
16.9278,3350
16.9306,3359
16.9333,3357
16.9361,3363
16.9389,3356
16.9417,3032
16.9444,2398
16.9472,1778
16.9500,1353
16.9528,1151
16.9556,1071
16.9583,1075
16.9611,1122
16.9639,1238
16.9667,1417
16.9694,1604
16.9722,1747
16.9750,1845
16.9778,1887
16.9806,1893
16.9833,1890
16.9861,1877
16.9889,1860
16.9917,1839
16.9944,1810
16.9972,1809
17.0000,1804
17.0028,1818
17.0056,1822
17.0083,1836
17.0111,1835
17.0139,1826
17.0167,1813
17.0194,1805
17.0222,1800
17.0250,1802
17.0278,1805
17.0306,1806
17.0333,1796
17.0361,1791
17.0389,1782
17.0417,1786
17.0444,1787
17.0472,1807
17.0500,1817
17.0528,1812
17.0556,1803
17.0583,1792
17.0611,1787
17.0639,1789
17.0667,1805
17.0694,1814
17.0722,1823
17.0750,1817
17.0778,1816
17.0806,1808
17.0833,1817
17.0861,1819
17.0889,1820
17.0917,1817
17.0944,1809
17.0972,1797
17.1000,1794
17.1028,1799
17.1056,1812
17.1083,1813
17.1111,1829
17.1139,1821
17.1167,1816
17.1194,1805
17.1222,1813
17.1250,1834
17.1278,1845
17.1306,1845
17.1333,1841
17.1361,1821
17.1389,1806
17.1417,1881
17.1444,1899
17.1472,1932
17.1500,1939
17.1528,1928
17.1556,1917
17.1583,1896
17.1611,1904
17.1639,1919
17.1667,1940
17.1694,1954
17.1722,1951
17.1750,1939
17.1778,1917
17.1806,1912
17.1833,1910
17.1861,1912
17.1889,1915
17.1917,1914
17.1944,1892
17.1972,1879
17.2000,1856
17.2028,1839
17.2056,1843
17.2083,1840
17.2111,1836
17.2139,1818
17.2167,1802
17.2194,1783
17.2222,1754
17.2250,1750
17.2278,1741
17.2306,1719
17.2333,1703
17.2361,1698
17.2389,1699
17.2417,1706
17.2444,1709
17.2472,1703
17.2500,1687
17.2528,1677
17.2556,1661
17.2583,1655
17.2611,1660
17.2639,1672
17.2667,1688
17.2694,1685
17.2722,1678
17.2750,1674
17.2778,1657
17.2806,1666
17.2833,1658
17.2861,1667
17.2889,1674
17.2917,1673
17.2944,1665
17.2972,1653
17.3000,1654
17.3028,1669
17.3056,1675
17.3083,1687
17.3111,1688
17.3139,1682
17.3167,1689
17.3194,1673
17.3222,1665
17.3250,1668
17.3278,1676
17.3306,1685
17.3333,1684
17.3361,1686
17.3389,1690
17.3417,1690
17.3444,1687
17.3472,1703
17.3500,1704
17.3528,1699
17.3556,1695
17.3583,1680
17.3611,1674
17.3639,1679
17.3667,1686
17.3694,1686
17.3722,1692
17.3750,1694
17.3778,1680
17.3806,1671
17.3833,1678
17.3861,1686
17.3889,1699
17.3917,1704
17.3944,1685
17.3972,1670
17.4000,1662
17.4028,1662
17.4056,1671
17.4083,1679
17.4111,1685
17.4139,1686
17.4167,1692
17.4194,1692
17.4222,1678
17.4250,1676
17.4278,1667
17.4306,1663
17.4333,1670
17.4361,1684
17.4389,1683
17.4417,1677
17.4444,1654
17.4472,1654
17.4500,1690
17.4528,1696
17.4556,1680
17.4583,1683
17.4611,1671
17.4639,1664
17.4667,1688
17.4694,1684
17.4722,1662
17.4750,1640
17.4778,1650
17.4806,1691
17.4833,1728
17.4861,1755
17.4889,1713
17.4917,1676
17.4944,1665
17.4972,1671
17.5000,1682
17.5028,1690
17.5056,1703
17.5083,1703
17.5111,1682
17.5139,1659
17.5167,1632
17.5194,1621
17.5222,1626
17.5250,1659
17.5278,1698
17.5306,1719
17.5333,1711
17.5361,1720
17.5389,1738
17.5417,1723
17.5444,1714
17.5472,1685
17.5500,1660
17.5528,1675
17.5556,1705
17.5583,1729
17.5611,1738
17.5639,1721
17.5667,1712
17.5694,1715
17.5722,1718
17.5750,1723
17.5778,1729
17.5806,1720
17.5833,1729
17.5861,1731
17.5889,1726
17.5917,1739
17.5944,1730
17.5972,1727
17.6000,1725
17.6028,1719
17.6056,1725
17.6083,1736
17.6111,1738
17.6139,1732
17.6167,1720
17.6194,1708
17.6222,1692
17.6250,1689
17.6278,1703
17.6306,1715
17.6333,1727
17.6361,1725
17.6389,1718
17.6417,1702
17.6444,1703
17.6472,1719
17.6500,1727
17.6528,1739
17.6556,1728
17.6583,1720
17.6611,1723
17.6639,1728
17.6667,1729
17.6694,1730
17.6722,1721
17.6750,1730
17.6778,1715
17.6806,1706
17.6833,1704
17.6861,1724
17.6889,1743
17.6917,1758
17.6944,1739
17.6972,1737
17.7000,1741
17.7028,1737
17.7056,1738
17.7083,1739
17.7111,1749
17.7139,1759
17.7167,1760
17.7194,1743
17.7222,1746
17.7250,1746
17.7278,1735
17.7306,1734
17.7333,1733
17.7361,1736
17.7389,1738
17.7417,1738
17.7444,1719
17.7472,1709
17.7500,1702
17.7528,1712
17.7556,1732
17.7583,1753
17.7611,1763
17.7639,1757
17.7667,1760
17.7694,1751
17.7722,1742
17.7750,1754
17.7778,1748
17.7806,1742
17.7833,1740
17.7861,1730
17.7889,1734
17.7917,1739
17.7944,1744
17.7972,1763
17.8000,1791
17.8028,1817
17.8056,1831
17.8083,1843
17.8111,1861
17.8139,1877
17.8167,1878
17.8194,1895
17.8222,1937
17.8250,1954
17.8278,1982
17.8306,1991
17.8333,2013
17.8361,2027
17.8389,2053
17.8417,2070
17.8444,2073
17.8472,2073
17.8500,2058
17.8528,2047
17.8556,2020
17.8583,1995
17.8611,1983
17.8639,1986
17.8667,1955
17.8694,1927
17.8722,1880
17.8750,1837
17.8778,1774
17.8806,1740
17.8833,1712
17.8861,1699
17.8889,1695
17.8917,1703
17.8944,1701
17.8972,1700
17.9000,1687
17.9028,1680
17.9056,1690
17.9083,1700
17.9111,1702
17.9139,1696
17.9167,1677
17.9194,1661
17.9222,1658
17.9250,1644
17.9278,1660
17.9306,1673
17.9333,1688
17.9361,1695
17.9389,1696
17.9417,1681
17.9444,1665
17.9472,1661
17.9500,1650
17.9528,1649
17.9556,1634
17.9583,1589
17.9611,1543
17.9639,1501
17.9667,1460
17.9694,1477
17.9722,1560
17.9750,1723
17.9778,1955
17.9806,2245
17.9833,2544
17.9861,2861
17.9889,3159
17.9917,3349
17.9944,3355
17.9972,3370
18.0000,3371
18.0028,3351
18.0056,2999
18.0083,2350
18.0111,1735
18.0139,1330
18.0167,1130
18.0194,1058
18.0222,1036
18.0250,1076
18.0278,1208
18.0306,1402
18.0333,1604
18.0361,1766
18.0389,1848
18.0417,1862
18.0444,1851
18.0472,1853
18.0500,1865
18.0528,1856
18.0556,1853
18.0583,1827
18.0611,1796
18.0639,1788
18.0667,1789
18.0694,1812
18.0722,1828
18.0750,1815
18.0778,1787
18.0806,1760
18.0833,1760
18.0861,1785
18.0889,1804
18.0917,1820
18.0944,1818
18.0972,1796
18.1000,1778
18.1028,1779
18.1056,1780
18.1083,1770
18.1111,1787
18.1139,1803
18.1167,1793
18.1194,1784
18.1222,1756
18.1250,1749
18.1278,1758
18.1306,1759
18.1333,1777
18.1361,1785
18.1389,1777
18.1417,1765
18.1444,1752
18.1472,1758
18.1500,1763
18.1528,1787
18.1556,1794
18.1583,1795
18.1611,1782
18.1639,1774
18.1667,1773
18.1694,1766
18.1722,1780
18.1750,1790
18.1778,1791
18.1806,1788
18.1833,1777
18.1861,1766
18.1889,1769
18.1917,1777
18.1944,1775
18.1972,1777
18.2000,1768
18.2028,1762
18.2056,1839
18.2083,1847
18.2111,1854
18.2139,1851
18.2167,1845
18.2194,1853
18.2222,1856
18.2250,1866
18.2278,1873
18.2306,1870
18.2333,1881
18.2361,1896
18.2389,1895
18.2417,1890
18.2444,1889
18.2472,1891
18.2500,1904
18.2528,1901
18.2556,1888
18.2583,1864
18.2611,1850
18.2639,1842
18.2667,1831
18.2694,1837
18.2722,1818
18.2750,1808
18.2778,1779
18.2806,1767
18.2833,1755
18.2861,1756
18.2889,1736
18.2917,1715
18.2944,1704
18.2972,1687
18.3000,1692
18.3028,1690
18.3056,1677
18.3083,1673
18.3111,1659
18.3139,1658
18.3167,1640
18.3194,1634
18.3222,1639
18.3250,1638
18.3278,1631
18.3306,1624
18.3333,1626
18.3361,1629
18.3389,1622
18.3417,1613
18.3444,1607
18.3472,1621
18.3500,1628
18.3528,1624
18.3556,1620
18.3583,1626
18.3611,1619
18.3639,1622
18.3667,1608
18.3694,1630
18.3722,1634
18.3750,1623
18.3778,1615
18.3806,1604
18.3833,1614
18.3861,1625
18.3889,1630
18.3917,1638
18.3944,1642
18.3972,1642
18.4000,1638
18.4028,1635
18.4056,1620
18.4083,1615
18.4111,1633
18.4139,1634
18.4167,1634
18.4194,1628
18.4222,1620
18.4250,1620
18.4278,1631
18.4306,1632
18.4333,1632
18.4361,1620
18.4389,1610
18.4417,1612
18.4444,1629
18.4472,1637
18.4500,1634
18.4528,1636
18.4556,1639
18.4583,1651
18.4611,1635
18.4639,1627
18.4667,1619
18.4694,1615
18.4722,1628
18.4750,1637
18.4778,1634
18.4806,1635
18.4833,1634
18.4861,1615
18.4889,1631
18.4917,1651
18.4944,1666
18.4972,1658
18.5000,1648
18.5028,1641
18.5056,1633
18.5083,1636
18.5111,1637
18.5139,1633
18.5167,1629
18.5194,1627
18.5222,1633
18.5250,1643
18.5278,1651
18.5306,1654
18.5333,1653
18.5361,1652
18.5389,1641
18.5417,1625
18.5444,1624
18.5472,1615
18.5500,1626
18.5528,1637
18.5556,1645
18.5583,1670
18.5611,1681
18.5639,1677
18.5667,1677
18.5694,1666
18.5722,1653
18.5750,1644
18.5778,1628
18.5806,1630
18.5833,1644
18.5861,1662
18.5889,1671
18.5917,1675
18.5944,1672
18.5972,1668
18.6000,1663
18.6028,1667
18.6056,1667
18.6083,1664
18.6111,1678
18.6139,1685
18.6167,1684
18.6194,1669
18.6222,1665
18.6250,1657
18.6278,1662
18.6306,1683
18.6333,1688
18.6361,1678
18.6389,1685
18.6417,1678
18.6444,1680
18.6472,1690
18.6500,1708
18.6528,1705
18.6556,1713
18.6583,1715
18.6611,1703
18.6639,1693
18.6667,1704
18.6694,1713
18.6722,1728
18.6750,1729
18.6778,1719
18.6806,1718
18.6833,1710
18.6861,1709
18.6889,1709
18.6917,1725
18.6944,1725
18.6972,1721
18.7000,1716
18.7028,1706
18.7056,1710
18.7083,1712
18.7111,1725
18.7139,1733
18.7167,1725
18.7194,1731
18.7222,1740
18.7250,1755
18.7278,1750
18.7306,1759
18.7333,1750
18.7361,1745
18.7389,1756
18.7417,1745
18.7444,1745
18.7472,1741
18.7500,1741
18.7528,1740
18.7556,1742
18.7583,1738
18.7611,1738
18.7639,1752
18.7667,1761
18.7694,1774
18.7722,1766
18.7750,1772
18.7778,1768
18.7806,1758
18.7833,1772
18.7861,1768
18.7889,1766
18.7917,1770
18.7944,1776
18.7972,1770
18.8000,1775
18.8028,1782
18.8056,1789
18.8083,1781
18.8111,1776
18.8139,1782
18.8167,1791
18.8194,1785
18.8222,1794
18.8250,1797
18.8278,1794
18.8306,1797
18.8333,1800
18.8361,1805
18.8389,1806
18.8417,1802
18.8444,1801
18.8472,1799
18.8500,1800
18.8528,1805
18.8556,1816
18.8583,1815
18.8611,1818
18.8639,1819
18.8667,1815
18.8694,1809
18.8722,1809
18.8750,1804
18.8778,1814
18.8806,1821
18.8833,1850
18.8861,1884
18.8889,1901
18.8917,1936
18.8944,1959
18.8972,1972
18.9000,1968
18.9028,1984
18.9056,2001
18.9083,2024
18.9111,2068
18.9139,2107
18.9167,2124
18.9194,2145
18.9222,2144
18.9250,2133
18.9278,2129
18.9306,2112
18.9333,2077
18.9361,2062
18.9389,2051
18.9417,2052
18.9444,2039
18.9472,2008
18.9500,1963
18.9528,1922
18.9556,1892
18.9583,1860
18.9611,1842
18.9639,1824
18.9667,1812
18.9694,1814
18.9722,1811
18.9750,1805
18.9778,1806
18.9806,1805
18.9833,1808
18.9861,1796
18.9889,1787
18.9917,1806
18.9944,1817
18.9972,1819
19.0000,1803
19.0028,1803
19.0056,1807
19.0083,1819
19.0111,1829
19.0139,1842
19.0167,1837
19.0194,1832
19.0222,1827
19.0250,1802
19.0278,1806
19.0306,1805
19.0333,1805
19.0361,1770
19.0389,1732
19.0417,1667
19.0444,1618
19.0472,1595
19.0500,1611
19.0528,1697
19.0556,1849
19.0583,2079
19.0611,2365
19.0639,2673
19.0667,2985
19.0694,3305
19.0722,3359
19.0750,3366
19.0778,3370
19.0806,3378
19.0833,3361
19.0861,3232
19.0889,2693
19.0917,2058
19.0944,1593
19.0972,1341
19.1000,1233
19.1028,1200
19.1056,1207
19.1083,1296
19.1111,1447
19.1139,1627
19.1167,1781
19.1194,1874
19.1222,1920
19.1250,1949
19.1278,1960
19.1306,1965
19.1333,1967
19.1361,1966
19.1389,1942
19.1417,1905
19.1444,1885
19.1472,1881
19.1500,1878
19.1528,1871
19.1556,1867
19.1583,1868
19.1611,1873
19.1639,1881
19.1667,1889
19.1694,1874
19.1722,1864
19.1750,1860
19.1778,1851
19.1806,1861
19.1833,1843
19.1861,1828
19.1889,1851
19.1917,1890
19.1944,1908
19.1972,1892
19.2000,1854
19.2028,1840
19.2056,1839
19.2083,1837
19.2111,1850
19.2139,1861
19.2167,1863
19.2194,1850
19.2222,1839
19.2250,1811
19.2278,1800
19.2306,1832
19.2333,1850
19.2361,1862
19.2389,1844
19.2417,1813
19.2444,1813
19.2472,1810
19.2500,1815
19.2528,1804
19.2556,1797
19.2583,1800
19.2611,1785
19.2639,1781
19.2667,1792
19.2694,1797
19.2722,1807
19.2750,1820
19.2778,1814
19.2806,1786
19.2833,1768
19.2861,1760
19.2889,1825
19.2917,1837
19.2944,1849
19.2972,1843
19.3000,1826
19.3028,1825
19.3056,1825
19.3083,1853
19.3111,1870
19.3139,1860
19.3167,1847
19.3194,1819
19.3222,1821
19.3250,1823
19.3278,1841
19.3306,1851
19.3333,1849
19.3361,1850
19.3389,1844
19.3417,1834
19.3444,1820
19.3472,1791
19.3500,1762
19.3528,1759
19.3556,1766
19.3583,1753
19.3611,1751
19.3639,1736
19.3667,1722
19.3694,1715
19.3722,1701
19.3750,1689
19.3778,1663
19.3806,1638
19.3833,1606
19.3861,1609
19.3889,1642
19.3917,1666
19.3944,1674
19.3972,1656
19.4000,1652
19.4028,1647
19.4056,1632
19.4083,1643
19.4111,1625
19.4139,1621
19.4167,1620
19.4194,1626
19.4222,1620
19.4250,1620
19.4278,1616
19.4306,1614
19.4333,1623
19.4361,1626
19.4389,1629
19.4417,1618
19.4444,1603
19.4472,1596
19.4500,1614
19.4528,1637
19.4556,1651
19.4583,1658
19.4611,1662
19.4639,1650
19.4667,1639
19.4694,1618
19.4722,1614
19.4750,1611
19.4778,1602
19.4806,1607
19.4833,1633
19.4861,1644
19.4889,1654
19.4917,1657
19.4944,1665
19.4972,1673
19.5000,1654
19.5028,1639
19.5056,1619
19.5083,1613
19.5111,1607
19.5139,1606
19.5167,1626
19.5194,1645
19.5222,1649
19.5250,1639
19.5278,1633
19.5306,1640
19.5333,1652
19.5361,1649
19.5389,1643
19.5417,1625
19.5444,1607
19.5472,1605
19.5500,1600
19.5528,1604
19.5556,1608
19.5583,1618
19.5611,1628
19.5639,1622
19.5667,1638
19.5694,1636
19.5722,1639
19.5750,1630
19.5778,1624
19.5806,1613
19.5833,1610
19.5861,1615
19.5889,1615
19.5917,1627
19.5944,1615
19.5972,1621
19.6000,1622
19.6028,1611
19.6056,1613
19.6083,1619
19.6111,1633
19.6139,1652
19.6167,1659
19.6194,1662
19.6222,1658
19.6250,1646
19.6278,1646
19.6306,1643
19.6333,1657
19.6361,1656
19.6389,1659
19.6417,1644
19.6444,1648
19.6472,1645
19.6500,1653
19.6528,1659
19.6556,1666
19.6583,1680
19.6611,1686
19.6639,1692
19.6667,1700
19.6694,1689
19.6722,1685
19.6750,1685
19.6778,1685
19.6806,1673
19.6833,1663
19.6861,1660
19.6889,1673
19.6917,1686
19.6944,1698
19.6972,1700
19.7000,1685
19.7028,1686
19.7056,1679
19.7083,1668
19.7111,1666
19.7139,1666
19.7167,1670
19.7194,1692
19.7222,1706
19.7250,1709
19.7278,1719
19.7306,1726
19.7333,1725
19.7361,1712
19.7389,1704
19.7417,1696
19.7444,1689
19.7472,1687
19.7500,1694
19.7528,1704
19.7556,1703
19.7583,1701
19.7611,1695
19.7639,1685
19.7667,1692
19.7694,1706
19.7722,1700
19.7750,1714
19.7778,1707
19.7806,1694
19.7833,1696
19.7861,1703
19.7889,1706
19.7917,1723
19.7944,1735
19.7972,1748
19.8000,1738
19.8028,1730
19.8056,1713
19.8083,1707
19.8111,1720
19.8139,1733
19.8167,1754
19.8194,1750
19.8222,1751
19.8250,1749
19.8278,1755
19.8306,1755
19.8333,1748
19.8361,1757
19.8389,1750
19.8417,1749
19.8444,1745
19.8472,1759
19.8500,1771
19.8528,1777
19.8556,1786
19.8583,1782
19.8611,1778
19.8639,1771
19.8667,1775
19.8694,1780
19.8722,1789
19.8750,1794
19.8778,1810
19.8806,1805
19.8833,1808
19.8861,1792
19.8889,1778
19.8917,1776
19.8944,1772
19.8972,1785
19.9000,1778
19.9028,1784
19.9056,1776
19.9083,1783
19.9111,1784
19.9139,1801
19.9167,1805
19.9194,1814
19.9222,1809
19.9250,1795
19.9278,1803
19.9306,1803
19.9333,1817
19.9361,1835
19.9389,1867
19.9417,1902
19.9444,1937
19.9472,1968
19.9500,1988
19.9528,1992
19.9556,1988
19.9583,1993
19.9611,1991
19.9639,2020
19.9667,2043
19.9694,2089
19.9722,2133
19.9750,2149
19.9778,2159
19.9806,2146
19.9833,2129
19.9861,2113
19.9889,2079
19.9917,2052
19.9944,2042
19.9972,2055
20.0000,2045
20.0028,2031
20.0056,1966
20.0083,1910
20.0111,1853
20.0139,1825
20.0167,1812
20.0194,1828
20.0222,1825
20.0250,1825
20.0278,1821
20.0306,1807
20.0333,1785
20.0361,1768
20.0389,1763
20.0417,1755
20.0444,1757
20.0472,1752
20.0500,1764
20.0528,1771
20.0556,1769
20.0583,1772
20.0611,1769
20.0639,1753
20.0667,1753
20.0694,1742
20.0722,1734
20.0750,1727
20.0778,1733
20.0806,1744
20.0833,1764
20.0861,1757
20.0889,1723
20.0917,1669
20.0944,1605
20.0972,1523
20.1000,1480
20.1028,1511
20.1056,1642
20.1083,1853
20.1111,2124
20.1139,2430
20.1167,2695
20.1194,2987
20.1222,3309
20.1250,3364
20.1278,3367
20.1306,3368
20.1333,3369
20.1361,3307
20.1389,2846
20.1417,2201
20.1444,1634
20.1472,1277
20.1500,1119
20.1528,1078
20.1556,1079
20.1583,1131
20.1611,1267
20.1639,1452
20.1667,1623
20.1694,1766
20.1722,1838
20.1750,1854
20.1778,1843
20.1806,1828
20.1833,1815
20.1861,1790
20.1889,1768
20.1917,1735
20.1944,1727
20.1972,1724
20.2000,1733
20.2028,1762
20.2056,1766
20.2083,1762
20.2111,1750
20.2139,1736
20.2167,1723
20.2194,1730
20.2222,1736
20.2250,1749
20.2278,1737
20.2306,1721
20.2333,1703
20.2361,1690
20.2389,1692
20.2417,1697
20.2444,1703
20.2472,1708
20.2500,1704
20.2528,1705
20.2556,1693
20.2583,1696
20.2611,1719
20.2639,1727
20.2667,1727
20.2694,1735
20.2722,1734
20.2750,1719
20.2778,1722
20.2806,1730
20.2833,1733
20.2861,1739
20.2889,1744
20.2917,1723
20.2944,1715
20.2972,1712
20.3000,1730
20.3028,1752
20.3056,1758
20.3083,1761
20.3111,1756
20.3139,1748
20.3167,1737
20.3194,1734
20.3222,1763
20.3250,1769
20.3278,1777
20.3306,1766
20.3333,1761
20.3361,1755
20.3389,1860
20.3417,1876
20.3444,1895
20.3472,1901
20.3500,1907
20.3528,1905
20.3556,1910
20.3583,1917
20.3611,1923
20.3639,1943
20.3667,1949
20.3694,1942
20.3722,1926
20.3750,1921
20.3778,1910
20.3806,1921
20.3833,1923
20.3861,1920
20.3889,1920
20.3917,1912
20.3944,1886
20.3972,1870
20.4000,1876
20.4028,1868
20.4056,1870
20.4083,1838
20.4111,1807
20.4139,1773
20.4167,1780
20.4194,1779
20.4222,1771
20.4250,1771
20.4278,1755
20.4306,1736
20.4333,1714
20.4361,1679
20.4389,1668
20.4417,1660
20.4444,1672
20.4472,1669
20.4500,1675
20.4528,1673
20.4556,1659
20.4583,1664
20.4611,1671
20.4639,1669
20.4667,1669
20.4694,1668
20.4722,1655
20.4750,1644
20.4778,1643
20.4806,1646
20.4833,1656
20.4861,1670
20.4889,1676
20.4917,1664
20.4944,1660
20.4972,1657
20.5000,1666
20.5028,1675
20.5056,1673
20.5083,1658
20.5111,1645
20.5139,1628
20.5167,1638
20.5194,1653
20.5222,1678
20.5250,1688
20.5278,1687
20.5306,1687
20.5333,1675
20.5361,1673
20.5389,1663
20.5417,1664
20.5444,1669
20.5472,1655
20.5500,1652
20.5528,1636
20.5556,1646
20.5583,1669
20.5611,1690
20.5639,1695
20.5667,1700
20.5694,1698
20.5722,1680
20.5750,1648
20.5778,1647
20.5806,1652
20.5833,1649
20.5861,1652
20.5889,1656
20.5917,1666
20.5944,1664
20.5972,1651
20.6000,1645
20.6028,1653
20.6056,1654
20.6083,1655
20.6111,1661
20.6139,1666
20.6167,1666
20.6194,1660
20.6222,1658
20.6250,1656
20.6278,1649
20.6306,1645
20.6333,1636
20.6361,1640
20.6389,1638
20.6417,1645
20.6444,1653
20.6472,1656
20.6500,1662
20.6528,1662
20.6556,1659
20.6583,1655
20.6611,1656
20.6639,1664
20.6667,1674
20.6694,1678
20.6722,1677
20.6750,1673
20.6778,1662
20.6806,1667
20.6833,1665
20.6861,1671
20.6889,1669
20.6917,1667
20.6944,1679
20.6972,1697
20.7000,1694
20.7028,1706
20.7056,1696
20.7083,1701
20.7111,1699
20.7139,1685
20.7167,1680
20.7194,1671
20.7222,1671
20.7250,1671
20.7278,1673
20.7306,1681
20.7333,1690
20.7361,1688
20.7389,1696
20.7417,1699
20.7444,1698
20.7472,1705
20.7500,1718
20.7528,1710
20.7556,1705
20.7583,1714
20.7611,1715
20.7639,1721
20.7667,1727
20.7694,1715
20.7722,1708
20.7750,1710
20.7778,1714
20.7806,1712
20.7833,1721
20.7861,1720
20.7889,1710
20.7917,1705
20.7944,1702
20.7972,1709
20.8000,1702
20.8028,1714
20.8056,1721
20.8083,1724
20.8111,1727
20.8139,1735
20.8167,1731
20.8194,1734
20.8222,1739
20.8250,1744
20.8278,1743
20.8306,1748
20.8333,1740
20.8361,1737
20.8389,1737
20.8417,1729
20.8444,1734
20.8472,1747
20.8500,1761
20.8528,1752
20.8556,1749
20.8583,1742
20.8611,1748
20.8639,1758
20.8667,1756
20.8694,1762
20.8722,1762
20.8750,1771
20.8778,1767
20.8806,1778
20.8833,1776
20.8861,1774
20.8889,1772
20.8917,1767
20.8944,1764
20.8972,1764
20.9000,1768
20.9028,1769
20.9056,1776
20.9083,1771
20.9111,1775
20.9139,1767
20.9167,1770
20.9194,1759
20.9222,1762
20.9250,1768
20.9278,1775
20.9306,1799
20.9333,1812
20.9361,1804
20.9389,1796
20.9417,1791
20.9444,1789
20.9472,1786
20.9500,1771
20.9528,1763
20.9556,1757
20.9583,1758
20.9611,1767
20.9639,1763
20.9667,1764
20.9694,1774
20.9722,1776
20.9750,1780
20.9778,1772
20.9806,1769
20.9833,1777
20.9861,1788
20.9889,1789
20.9917,1787
20.9944,1797
20.9972,1795
21.0000,1781
21.0028,1785
21.0056,1784
21.0083,1785
21.0111,1782
21.0139,1789
21.0167,1788
21.0194,1795
21.0222,1800
21.0250,1795
21.0278,1788
21.0306,1790
21.0333,1805
21.0361,1805
21.0389,1801
21.0417,1802
21.0444,1809
21.0472,1810
21.0500,1817
21.0528,1841
21.0556,1864
21.0583,1885
21.0611,1904
21.0639,1932
21.0667,1957
21.0694,1980
21.0722,1983
21.0750,1997
21.0778,2007
21.0806,2009
21.0833,2035
21.0861,2058
21.0889,2099
21.0917,2112
21.0944,2115
21.0972,2104
21.1000,2094
21.1028,2097
21.1056,2074
21.1083,2052
21.1111,2037
21.1139,2023
21.1167,2013
21.1194,1980
21.1222,1933
21.1250,1891
21.1278,1830
21.1306,1787
21.1333,1760
21.1361,1762
21.1389,1774
21.1417,1789
21.1444,1792
21.1472,1786
21.1500,1774
21.1528,1756
21.1556,1752
21.1583,1750
21.1611,1749
21.1639,1755
21.1667,1761
21.1694,1760
21.1722,1760
21.1750,1745
21.1778,1735
21.1806,1732
21.1833,1718
21.1861,1726
21.1889,1713
21.1917,1721
21.1944,1733
21.1972,1736
21.2000,1734
21.2028,1729
21.2056,1719
21.2083,1686
21.2111,1645
21.2139,1573
21.2167,1516
21.2194,1495
21.2222,1526
21.2250,1637
21.2278,1815
21.2306,2073
21.2333,2375
21.2361,2663
21.2389,2957
21.2417,3258
21.2444,3358
21.2472,3369
21.2500,3366
21.2528,3371
21.2556,3352
21.2583,2999
21.2611,2370
21.2639,1768
21.2667,1379
21.2694,1202
21.2722,1147
21.2750,1136
21.2778,1164
21.2806,1255
21.2833,1414
21.2861,1589
21.2889,1746
21.2917,1844
21.2944,1890
21.2972,1908
21.3000,1905
21.3028,1881
21.3056,1876
21.3083,1857
21.3111,1819
21.3139,1791
21.3167,1779
21.3194,1786
21.3222,1803
21.3250,1823
21.3278,1828
21.3306,1823
21.3333,1799
21.3361,1788
21.3389,1792
21.3417,1812
21.3444,1827
21.3472,1816
21.3500,1802
21.3528,1777
21.3556,1755
21.3583,1756
21.3611,1766
21.3639,1784
21.3667,1795
21.3694,1782
21.3722,1772
21.3750,1772
21.3778,1766
21.3806,1773
21.3833,1801
21.3861,1809
21.3889,1812
21.3917,1804
21.3944,1783
21.3972,1778
21.4000,1766
21.4028,1774
21.4056,1784
21.4083,1790
21.4111,1789
21.4139,1791
21.4167,1789
21.4194,1783
21.4222,1778
21.4250,1782
21.4278,1787
21.4306,1772
21.4333,1772
21.4361,1768
21.4389,1769
21.4417,1779
21.4444,1798
21.4472,1801
21.4500,1789
21.4528,1776
21.4556,1763
21.4583,1829
21.4611,1835
21.4639,1856
21.4667,1853
21.4694,1846
21.4722,1832
21.4750,1819
21.4778,1826
21.4806,1830
21.4833,1851
21.4861,1862
21.4889,1867
21.4917,1860
21.4944,1869
21.4972,1868
21.5000,1873
21.5028,1863
21.5056,1859
21.5083,1838
21.5111,1826
21.5139,1808
21.5167,1807
21.5194,1799
21.5222,1787
21.5250,1774
21.5278,1762
21.5306,1747
21.5333,1733
21.5361,1716
21.5389,1705
21.5417,1699
21.5444,1674
21.5472,1658
21.5500,1640
21.5528,1636
21.5556,1626
21.5583,1619
21.5611,1623
21.5639,1617
21.5667,1614
21.5694,1612
21.5722,1600
21.5750,1576
21.5778,1567
21.5806,1567
21.5833,1571
21.5861,1577
21.5889,1560
21.5917,1543
21.5944,1525
21.5972,1518
21.6000,1529
21.6028,1543
21.6056,1553
21.6083,1553
21.6111,1544
21.6139,1530
21.6167,1526
21.6194,1527
21.6222,1544
21.6250,1553
21.6278,1551
21.6306,1546
21.6333,1535
21.6361,1537
21.6389,1538
21.6417,1546
21.6444,1559
21.6472,1556
21.6500,1549
21.6528,1528
21.6556,1521
21.6583,1511
21.6611,1505
21.6639,1508
21.6667,1509
21.6694,1496
21.6722,1493
21.6750,1499
21.6778,1508
21.6806,1523
21.6833,1527
21.6861,1528
21.6889,1525
21.6917,1525
21.6944,1507
21.6972,1511
21.7000,1499
21.7028,1504
21.7056,1508
21.7083,1510
21.7111,1492
21.7139,1488
21.7167,1488
21.7194,1499
21.7222,1512
21.7250,1514
21.7278,1508
21.7306,1495
21.7333,1477
21.7361,1483
21.7389,1496
21.7417,1519
21.7444,1537
21.7472,1538
21.7500,1534
21.7528,1516
21.7556,1515
21.7583,1521
21.7611,1530
21.7639,1531
21.7667,1531
21.7694,1527
21.7722,1534
21.7750,1523
21.7778,1534
21.7806,1544
21.7833,1545
21.7861,1545
21.7889,1552
21.7917,1548
21.7944,1545
21.7972,1558
21.8000,1555
21.8028,1560
21.8056,1567
21.8083,1576
21.8111,1572
21.8139,1577
21.8167,1574
21.8194,1572
21.8222,1573
21.8250,1581
21.8278,1585
21.8306,1598
21.8333,1588
21.8361,1579
21.8389,1581
21.8417,1585
21.8444,1594
21.8472,1602
21.8500,1610
21.8528,1612
21.8556,1613
21.8583,1617
21.8611,1616
21.8639,1616
21.8667,1608
21.8694,1615
21.8722,1616
21.8750,1622
21.8778,1623
21.8806,1626
21.8833,1627
21.8861,1636
21.8889,1643
21.8917,1643
21.8944,1629
21.8972,1628
21.9000,1637
21.9028,1639
21.9056,1641
21.9083,1628
21.9111,1628
21.9139,1633
21.9167,1634
21.9194,1649
21.9222,1647
21.9250,1646
21.9278,1652
21.9306,1646
21.9333,1651
21.9361,1645
21.9389,1650
21.9417,1654
21.9444,1668
21.9472,1672
21.9500,1668
21.9528,1660
21.9556,1657
21.9583,1648
21.9611,1660
21.9639,1659
21.9667,1656
21.9694,1663
21.9722,1673
21.9750,1686
21.9778,1687
21.9806,1678
21.9833,1674
21.9861,1668
21.9889,1679
21.9917,1683
21.9944,1686
21.9972,1685
22.0000,1689
22.0028,1672
22.0056,1673
22.0083,1689
22.0111,1689
22.0139,1690
22.0167,1682
22.0194,1682
22.0222,1698
22.0250,1704
22.0278,1714
22.0306,1712
22.0333,1714
22.0361,1723
22.0389,1748
22.0417,1784
22.0444,1792
22.0472,1809
22.0500,1837
22.0528,1854
22.0556,1870
22.0583,1878
22.0611,1892
22.0639,1908
22.0667,1941
22.0694,1967
22.0722,1986
22.0750,1997
22.0778,2010
22.0806,2013
22.0833,2026
22.0861,2003
22.0889,1995
22.0917,1978
22.0944,1962
22.0972,1955
22.1000,1928
22.1028,1890
22.1056,1844
22.1083,1793
22.1111,1745
22.1139,1716
22.1167,1698
22.1194,1670
22.1222,1657
22.1250,1648
22.1278,1647
22.1306,1644
22.1333,1646
22.1361,1652
22.1389,1651
22.1417,1655
22.1444,1655
22.1472,1662
22.1500,1662
22.1528,1663
22.1556,1656
22.1583,1660
22.1611,1673
22.1639,1681
22.1667,1680
22.1694,1661
22.1722,1653
22.1750,1659
22.1778,1664
22.1806,1679
22.1833,1692
22.1861,1688
22.1889,1680
22.1917,1647
22.1944,1598
22.1972,1538
22.2000,1503
22.2028,1512
22.2056,1582
22.2083,1717
22.2111,1928
22.2139,2191
22.2167,2485
22.2194,2777
22.2222,3077
22.2250,3344
22.2278,3359
22.2306,3359
22.2333,3374
22.2361,3370
22.2389,3286
22.2417,2766
22.2444,2101
22.2472,1566
22.2500,1260
22.2528,1134
22.2556,1107
22.2583,1106
22.2611,1175
22.2639,1330
22.2667,1521
22.2694,1692
22.2722,1812
22.2750,1867
22.2778,1886
22.2806,1878
22.2833,1879
22.2861,1871
22.2889,1858
22.2917,1826
22.2944,1797
22.2972,1782
22.3000,1789
22.3028,1810
22.3056,1838
22.3083,1846
22.3111,1838
22.3139,1816
22.3167,1802
22.3194,1789
22.3222,1794
22.3250,1808
22.3278,1818
22.3306,1818
22.3333,1805
22.3361,1787
22.3389,1772
22.3417,1778
22.3444,1786
22.3472,1793
22.3500,1812
22.3528,1807
22.3556,1793
22.3583,1777
22.3611,1771
22.3639,1781
22.3667,1799
22.3694,1819
22.3722,1816
22.3750,1806
22.3778,1790
22.3806,1781
22.3833,1789
22.3861,1793
22.3889,1815
22.3917,1824
22.3944,1823
22.3972,1796
22.4000,1786
22.4028,1794
22.4056,1804
22.4083,1818
22.4111,1826
22.4139,1809
22.4167,1795
22.4194,1795
22.4222,1788
22.4250,1812
22.4278,1822
22.4306,1819
22.4333,1809
22.4361,1803
22.4389,1801
22.4417,1882
22.4444,1890
22.4472,1906
22.4500,1900
22.4528,1896
22.4556,1889
22.4583,1874
22.4611,1875
22.4639,1889
22.4667,1894
22.4694,1905
22.4722,1907
22.4750,1913
22.4778,1917
22.4806,1924
22.4833,1922
22.4861,1927
22.4889,1915
22.4917,1891
22.4944,1867
22.4972,1843
22.5000,1838
22.5028,1835
22.5056,1843
22.5083,1842
22.5111,1808
22.5139,1778
22.5167,1764
22.5194,1754
22.5222,1745
22.5250,1738
22.5278,1735
22.5306,1732
22.5333,1724
22.5361,1713
22.5389,1698
22.5417,1687
22.5444,1685
22.5472,1685
22.5500,1680
22.5528,1669
22.5556,1659
22.5583,1660
22.5611,1644
22.5639,1657
22.5667,1667
22.5694,1679
22.5722,1672
22.5750,1661
22.5778,1639
22.5806,1643
22.5833,1662
22.5861,1679
22.5889,1688
22.5917,1659
22.5944,1654
22.5972,1653
22.6000,1674
22.6028,1691
22.6056,1708
22.6083,1713
22.6111,1700
22.6139,1694
22.6167,1695
22.6194,1710
22.6222,1710
22.6250,1721
22.6278,1724
22.6306,1725
22.6333,1711
22.6361,1716
22.6389,1720
22.6417,1719
22.6444,1728
22.6472,1725
22.6500,1729
22.6528,1725
22.6556,1711
22.6583,1710
22.6611,1716
22.6639,1730
22.6667,1743
22.6694,1746
22.6722,1732
22.6750,1729
22.6778,1731
22.6806,1735
22.6833,1736
22.6861,1744
22.6889,1746
22.6917,1743
22.6944,1735
22.6972,1737
22.7000,1740
22.7028,1732
22.7056,1727
22.7083,1733
22.7111,1741
22.7139,1741
22.7167,1731
22.7194,1711
22.7222,1695
22.7250,1705
22.7278,1735
22.7306,1753
22.7333,1765
22.7361,1761
22.7389,1753
22.7417,1735
22.7444,1738
22.7472,1738
22.7500,1746
22.7528,1732
22.7556,1726
22.7583,1726
22.7611,1736
22.7639,1746
22.7667,1768
22.7694,1772
22.7722,1770
22.7750,1764
22.7778,1767
22.7806,1750
22.7833,1744
22.7861,1740
22.7889,1736
22.7917,1739
22.7944,1741
22.7972,1739
22.8000,1746
22.8028,1755
22.8056,1769
22.8083,1771
22.8111,1778
22.8139,1772
22.8167,1768
22.8194,1758
22.8222,1754
22.8250,1741
22.8278,1717
22.8306,1719
22.8333,1741
22.8361,1759
22.8389,1759
22.8417,1748
22.8444,1750
22.8472,1760
22.8500,1765
22.8528,1763
22.8556,1748
22.8583,1744
22.8611,1737
22.8639,1737
22.8667,1747
22.8694,1741
22.8722,1738
22.8750,1729
22.8778,1735
22.8806,1753
22.8833,1769
22.8861,1769
22.8889,1763
22.8917,1756
22.8944,1746
22.8972,1742
22.9000,1743
22.9028,1752
22.9056,1773
22.9083,1790
22.9111,1776
22.9139,1760
22.9167,1749
22.9194,1745
22.9222,1762
22.9250,1762
22.9278,1774
22.9306,1766
22.9333,1770
22.9361,1778
22.9389,1784
22.9417,1780
22.9444,1775
22.9472,1770
22.9500,1761
22.9528,1767
22.9556,1757
22.9583,1761
22.9611,1765
22.9639,1774
22.9667,1784
22.9694,1788
22.9722,1779
22.9750,1759
22.9778,1749
22.9806,1752
22.9833,1768
22.9861,1787
22.9889,1794
22.9917,1792
22.9944,1793
22.9972,1795
23.0000,1795
23.0028,1796
23.0056,1788
23.0083,1794
23.0111,1793
23.0139,1796
23.0167,1796
23.0194,1802
23.0222,1802
23.0250,1810
23.0278,1814
23.0306,1816
23.0333,1816
23.0361,1818
23.0389,1812
23.0417,1812
23.0444,1818
23.0472,1817
23.0500,1825
23.0528,1829
23.0556,1841
23.0583,1836
23.0611,1837
23.0639,1824
23.0667,1823
23.0694,1825
23.0722,1825
23.0750,1832
23.0778,1830
23.0806,1831
23.0833,1828
23.0861,1825
23.0889,1833
23.0917,1841
23.0944,1840
23.0972,1841
23.1000,1850
23.1028,1851
23.1056,1863
23.1083,1860
23.1111,1877
23.1139,1913
23.1167,1939
23.1194,1966
23.1222,1978
23.1250,1991
23.1278,2000
23.1306,2013
23.1333,2044
23.1361,2072
23.1389,2099
23.1417,2122
23.1444,2142
23.1472,2143
23.1500,2132
23.1528,2123
23.1556,2113
23.1583,2092
23.1611,2086
23.1639,2080
23.1667,2082
23.1694,2075
23.1722,2046
23.1750,1995
23.1778,1918
23.1806,1848
23.1833,1798
23.1861,1758
23.1889,1753
23.1917,1753
23.1944,1763
23.1972,1767
23.2000,1771
23.2028,1772
23.2056,1754
23.2083,1755
23.2111,1746
23.2139,1740
23.2167,1744
23.2194,1755
23.2222,1752
23.2250,1734
23.2278,1734
23.2306,1725
23.2333,1731
23.2361,1736
23.2389,1726
23.2417,1738
23.2444,1733
23.2472,1725
23.2500,1714
23.2528,1691
23.2556,1694
23.2583,1685
23.2611,1664
23.2639,1633
23.2667,1596
23.2694,1534
23.2722,1505
23.2750,1534
23.2778,1631
23.2806,1793
23.2833,2034
23.2861,2310
23.2889,2605
23.2917,2899
23.2944,3208
23.2972,3362
23.3000,3372
23.3028,3375
23.3056,3374
23.3083,3351
23.3111,3046
23.3139,2410
23.3167,1799
23.3194,1390
23.3222,1181
23.3250,1116
23.3278,1109
23.3306,1152
23.3333,1254
23.3361,1428
23.3389,1611
23.3417,1765
23.3444,1871
23.3472,1917
23.3500,1930
23.3528,1929
23.3556,1916
23.3583,1896
23.3611,1876
23.3639,1857
23.3667,1841
23.3694,1834
23.3722,1832
23.3750,1850
23.3778,1863
23.3806,1872
23.3833,1855
23.3861,1841
23.3889,1830
23.3917,1824
23.3944,1833
23.3972,1850
23.4000,1840
23.4028,1821
23.4056,1805
23.4083,1802
23.4111,1803
23.4139,1817
23.4167,1833
23.4194,1841
23.4222,1840
23.4250,1826
23.4278,1811
23.4306,1819
23.4333,1831
23.4361,1841
23.4389,1844
23.4417,1840
23.4444,1837
23.4472,1815
23.4500,1813
23.4528,1808
23.4556,1838
23.4583,1870
23.4611,1887
23.4639,1874
23.4667,1856
23.4694,1844
23.4722,1852
23.4750,1861
23.4778,1870
23.4806,1857
23.4833,1852
23.4861,1834
23.4889,1832
23.4917,1833
23.4944,1856
23.4972,1885
23.5000,1891
23.5028,1890
23.5056,1879
23.5083,1872
23.5111,1913
23.5139,1930
23.5167,1952
23.5194,1969
23.5222,1969
23.5250,1951
23.5278,1925
23.5306,1899
23.5333,1910
23.5361,1928
23.5389,1944
23.5417,1945
23.5444,1936
23.5472,1922
23.5500,1930
23.5528,1947
23.5556,1971
23.5583,1985
23.5611,1986
23.5639,1976
23.5667,1960
23.5694,1930
23.5722,1897
23.5750,1882
23.5778,1884
23.5806,1885
23.5833,1897
23.5861,1897
23.5889,1860
23.5917,1822
23.5944,1793
23.5972,1784
23.6000,1781
23.6028,1781
23.6056,1773
23.6083,1768
23.6111,1764
23.6139,1772
23.6167,1750
23.6194,1744
23.6222,1728
23.6250,1706
23.6278,1693
23.6306,1680
23.6333,1678
23.6361,1689
23.6389,1694
23.6417,1689
23.6444,1693
23.6472,1683
23.6500,1677
23.6528,1681
23.6556,1694
23.6583,1694
23.6611,1687
23.6639,1670
23.6667,1666
23.6694,1683
23.6722,1699
23.6750,1709
23.6778,1700
23.6806,1682
23.6833,1682
23.6861,1674
23.6889,1684
23.6917,1704
23.6944,1708
23.6972,1706
23.7000,1703
23.7028,1701
23.7056,1703
23.7083,1698
23.7111,1700
23.7139,1701
23.7167,1699
23.7194,1712
23.7222,1710
23.7250,1704
23.7278,1694
23.7306,1701
23.7333,1704
23.7361,1709
23.7389,1721
23.7417,1709
23.7444,1700
23.7472,1683
23.7500,1687
23.7528,1690
23.7556,1705
23.7583,1704
23.7611,1697
23.7639,1690
23.7667,1678
23.7694,1671
23.7722,1665
23.7750,1662
23.7778,1660
23.7806,1664
23.7833,1669
23.7861,1678
23.7889,1679
23.7917,1677
23.7944,1672
23.7972,1679
23.8000,1668
23.8028,1669
23.8056,1672
23.8083,1671
23.8111,1667
23.8139,1666
23.8167,1655
23.8194,1661
23.8222,1662
23.8250,1659
23.8278,1664
23.8306,1668
23.8333,1659
23.8361,1661
23.8389,1661
23.8417,1664
23.8444,1669
23.8472,1671
23.8500,1669
23.8528,1666
23.8556,1674
23.8583,1676
23.8611,1667
23.8639,1656
23.8667,1652
23.8694,1643
23.8722,1650
23.8750,1664
23.8778,1668
23.8806,1663
23.8833,1660
23.8861,1654
23.8889,1660
23.8917,1657
23.8944,1659
23.8972,1661
23.9000,1654
23.9028,1667
23.9056,1670
23.9083,1674
23.9111,1664
23.9139,1657
23.9167,1660
23.9194,1666
23.9222,1665
23.9250,1674
23.9278,1667
23.9306,1672
23.9333,1664
23.9361,1663
23.9389,1664
23.9417,1653
23.9444,1659
23.9472,1675
23.9500,1672
23.9528,1691
23.9556,1700
23.9583,1698
23.9611,1693
23.9639,1680
23.9667,1675
23.9694,1668
23.9722,1657
23.9750,1675
23.9778,1675
23.9806,1672
23.9833,1673
23.9861,1669
23.9889,1679
23.9917,1687
23.9944,1678
23.9972,1683
24.0000,1678
24.0028,1693
24.0056,1700
24.0083,1692
24.0111,1685
24.0139,1672
24.0167,1672
24.0194,1677
24.0222,1684
24.0250,1687
24.0278,1685
24.0306,1677
24.0333,1673
24.0361,1675
24.0389,1677
24.0417,1677
24.0444,1662
24.0472,1663
24.0500,1675
24.0528,1687
24.0556,1710
24.0583,1744
24.0611,1764
24.0639,1791
24.0667,1805
24.0694,1816
24.0722,1822
24.0750,1835
24.0778,1845
24.0806,1852
24.0833,1870
24.0861,1899
24.0889,1929
24.0917,1954
24.0944,1991
24.0972,1993
24.1000,1994
24.1028,1974
24.1056,1948
24.1083,1926
24.1111,1908
24.1139,1905
24.1167,1915
24.1194,1915
24.1222,1883
24.1250,1822
24.1278,1750
24.1306,1696
24.1333,1676
24.1361,1644
24.1389,1632
24.1417,1632
24.1444,1623
24.1472,1634
24.1500,1633
24.1528,1635
24.1556,1629
24.1583,1618
24.1611,1624
24.1639,1628
24.1667,1620
24.1694,1616
24.1722,1609
24.1750,1598
24.1778,1604
24.1806,1601
24.1833,1608
24.1861,1612
24.1889,1627
24.1917,1625
24.1944,1626
24.1972,1639
24.2000,1639
24.2028,1627
24.2056,1619
24.2083,1604
24.2111,1571
24.2139,1516
24.2167,1441
24.2194,1394
24.2222,1419
24.2250,1501
24.2278,1655
24.2306,1879
24.2333,2157
24.2361,2465
24.2389,2755
24.2417,3044
24.2444,3312
24.2472,3357
24.2500,3354
24.2528,3375
24.2556,3360
24.2583,3062
24.2611,2463
24.2639,1851
24.2667,1387
24.2694,1158
24.2722,1083
24.2750,1073
24.2778,1084
24.2806,1136
24.2833,1260
24.2861,1428
24.2889,1585
24.2917,1708
24.2944,1775
24.2972,1808
24.3000,1812
24.3028,1814
24.3056,1797
24.3083,1768
24.3111,1737
24.3139,1729
24.3167,1715
24.3194,1728
24.3222,1746
24.3250,1762
24.3278,1773
24.3306,1770
24.3333,1747
24.3361,1740
24.3389,1746
24.3417,1771
24.3444,1780
24.3472,1771
24.3500,1746
24.3528,1723
24.3556,1713
24.3583,1729
24.3611,1749
24.3639,1769
24.3667,1771
24.3694,1761
24.3722,1745
24.3750,1722
24.3778,1716
24.3806,1732
24.3833,1744
24.3861,1765
24.3889,1767
24.3917,1765
24.3944,1752
24.3972,1748
24.4000,1757
24.4028,1762
24.4056,1761
24.4083,1765
24.4111,1768
24.4139,1758
24.4167,1752
24.4194,1759
24.4222,1762
24.4250,1772
24.4278,1783
24.4306,1771
24.4333,1759
24.4361,1752
24.4389,1754
24.4417,1759
24.4444,1773
24.4472,1782
24.4500,1772
24.4528,1769
24.4556,1766
24.4583,1848
24.4611,1852
24.4639,1863
24.4667,1865
24.4694,1857
24.4722,1847
24.4750,1849
24.4778,1857
24.4806,1871
24.4833,1884
24.4861,1894
24.4889,1898
24.4917,1895
24.4944,1882
24.4972,1884
24.5000,1890
24.5028,1908
24.5056,1919
24.5083,1905
24.5111,1886
24.5139,1865
24.5167,1842
24.5194,1823
24.5222,1835
24.5250,1821
24.5278,1821
24.5306,1810
24.5333,1794
24.5361,1774
24.5389,1772
24.5417,1754
24.5444,1759
24.5472,1743
24.5500,1735
24.5528,1718
24.5556,1698
24.5583,1682
24.5611,1679
24.5639,1673
24.5667,1676
24.5694,1658
24.5722,1648
24.5750,1647
24.5778,1638
24.5806,1637
24.5833,1649
24.5861,1654
24.5889,1654
24.5917,1656
24.5944,1643
24.5972,1640
24.6000,1642
24.6028,1651
24.6056,1657
24.6083,1655
24.6111,1643
24.6139,1646
24.6167,1644
24.6194,1649
24.6222,1670
24.6250,1686
24.6278,1687
24.6306,1687
24.6333,1695
24.6361,1706
24.6389,1712
24.6417,1711
24.6444,1706
24.6472,1697
24.6500,1693
24.6528,1687
24.6556,1677
24.6583,1685
24.6611,1694
24.6639,1691
24.6667,1698
24.6694,1700
24.6722,1700
24.6750,1692
24.6778,1694
24.6806,1695
24.6833,1703
24.6861,1716
24.6889,1706
24.6917,1692
24.6944,1678
24.6972,1671
24.7000,1679
24.7028,1686
24.7056,1693
24.7083,1697
24.7111,1687
24.7139,1684
24.7167,1672
24.7194,1673
24.7222,1677
24.7250,1671
24.7278,1683
24.7306,1686
24.7333,1691
24.7361,1690
24.7389,1689
24.7417,1693
24.7444,1683
24.7472,1663
24.7500,1648
24.7528,1641
24.7556,1653
24.7583,1670
24.7611,1682
24.7639,1678
24.7667,1679
24.7694,1690
24.7722,1671
24.7750,1681
24.7778,1659
24.7806,1665
24.7833,1667
24.7861,1670
24.7889,1677
24.7917,1669
24.7944,1667
24.7972,1664
24.8000,1665
24.8028,1662
24.8056,1664
24.8083,1663
24.8111,1670
24.8139,1682
24.8167,1688
24.8194,1690
24.8222,1682
24.8250,1664
24.8278,1677
24.8306,1695
24.8333,1697
24.8361,1683
24.8389,1655
24.8417,1643
24.8444,1670
24.8472,1694
24.8500,1701
24.8528,1701
24.8556,1684
24.8583,1679
24.8611,1683
24.8639,1697
24.8667,1706
24.8694,1709
24.8722,1696
24.8750,1676
24.8778,1667
24.8806,1670
24.8833,1684
24.8861,1689
24.8889,1708
24.8917,1709
24.8944,1715
24.8972,1713
24.9000,1709
24.9028,1701
24.9056,1701
24.9083,1702
24.9111,1699
24.9139,1702
24.9167,1716
24.9194,1721
24.9222,1725
24.9250,1728
24.9278,1728
24.9306,1717
24.9333,1707
24.9361,1709
24.9389,1711
24.9417,1710
24.9444,1711
24.9472,1706
24.9500,1708
24.9528,1709
24.9556,1718
24.9583,1728
24.9611,1734
24.9639,1724
24.9667,1720
24.9694,1721
24.9722,1712
24.9750,1710
24.9778,1718
24.9806,1729
24.9833,1744
24.9861,1759
24.9889,1765
24.9917,1749
24.9944,1756
24.9972,1789
25.0000,1839
25.0028,1878
25.0056,1898
25.0083,1914
25.0111,1923
25.0139,1921
25.0167,1906
25.0194,1915
25.0222,1963
25.0250,2008
25.0278,2040
25.0306,2055
25.0333,2071
25.0361,2064
25.0389,2054
25.0417,2016
25.0444,1985
25.0472,1970
25.0500,1968
25.0528,1977
25.0556,1975
25.0583,1939
25.0611,1883
25.0639,1816
25.0667,1755
25.0694,1712
25.0722,1685
25.0750,1672
25.0778,1674
25.0806,1665
25.0833,1655
25.0861,1661
25.0889,1661
25.0917,1645
25.0944,1643
25.0972,1637
25.1000,1643
25.1028,1632
25.1056,1625
25.1083,1629
25.1111,1636
25.1139,1652
25.1167,1667
25.1194,1669
25.1222,1664
25.1250,1658
25.1278,1650
25.1306,1646
25.1333,1646
25.1361,1638
25.1389,1647
25.1417,1636
25.1444,1610
25.1472,1573
25.1500,1524
25.1528,1474
25.1556,1454
25.1583,1480
25.1611,1584
25.1639,1752
25.1667,1997
25.1694,2276
25.1722,2586
25.1750,2892
25.1778,3226
25.1806,3362
25.1833,3364
25.1861,3369
25.1889,3374
25.1917,3367
25.1944,3140
25.1972,2495
25.2000,1838
25.2028,1360
25.2056,1128
25.2083,1046
25.2111,1044
25.2139,1107
25.2167,1245
25.2194,1452
25.2222,1640
25.2250,1789
25.2278,1868
25.2306,1873
25.2333,1853
25.2361,1829
25.2389,1815
25.2417,1812
25.2444,1809
25.2472,1795
25.2500,1767
25.2528,1751
25.2556,1764
25.2583,1786
25.2611,1814
25.2639,1818
25.2667,1808
25.2694,1773
25.2722,1736
25.2750,1727
25.2778,1744
25.2806,1771
25.2833,1792
25.2861,1796
25.2889,1764
25.2917,1750
25.2944,1742
25.2972,1745
25.3000,1755
25.3028,1761
25.3056,1760
25.3083,1747
25.3111,1726
25.3139,1719
25.3167,1728
25.3194,1755
25.3222,1771
25.3250,1790
25.3278,1785
25.3306,1759
25.3333,1735
25.3361,1727
25.3389,1742
25.3417,1753
25.3444,1758
25.3472,1766
25.3500,1776
25.3528,1788
25.3556,1789
25.3583,1794
25.3611,1796
25.3639,1792
25.3667,1784
25.3694,1785
25.3722,1795
25.3750,1790
25.3778,1774
25.3806,1774
25.3833,1789
25.3861,1807
25.3889,1807
25.3917,1791
25.3944,1797
25.3972,1882
25.4000,1892
25.4028,1903
25.4056,1897
25.4083,1872
25.4111,1843
25.4139,1845
25.4167,1845
25.4194,1866
25.4222,1882
25.4250,1893
25.4278,1900
25.4306,1913
25.4333,1895
25.4361,1891
25.4389,1885
25.4417,1896
25.4444,1889
25.4472,1878
25.4500,1862
25.4528,1833
25.4556,1807
25.4583,1808
25.4611,1801
25.4639,1790
25.4667,1787
25.4694,1761
25.4722,1745
25.4750,1736
25.4778,1726
25.4806,1707
25.4833,1702
25.4861,1681
25.4889,1665
25.4917,1660
25.4944,1637
25.4972,1641
25.5000,1642
25.5028,1643
25.5056,1639
25.5083,1619
25.5111,1600
25.5139,1597
25.5167,1600
25.5194,1608
25.5222,1599
25.5250,1593
25.5278,1592
25.5306,1583
25.5333,1602
25.5361,1614
25.5389,1632
25.5417,1643
25.5444,1639
25.5472,1618
25.5500,1598
25.5528,1590
25.5556,1608
25.5583,1629
25.5611,1647
25.5639,1656
25.5667,1649
25.5694,1630
25.5722,1612
25.5750,1619
25.5778,1613
25.5806,1616
25.5833,1633
25.5861,1648
25.5889,1645
25.5917,1636
25.5944,1633
25.5972,1624
25.6000,1645
25.6028,1650
25.6056,1662
25.6083,1667
25.6111,1670
25.6139,1685
25.6167,1680
25.6194,1677
25.6222,1678
25.6250,1691
25.6278,1689
25.6306,1681
25.6333,1681
25.6361,1684
25.6389,1686
25.6417,1681
25.6444,1675
25.6472,1665
25.6500,1668
25.6528,1664
25.6556,1662
25.6583,1664
25.6611,1677
25.6639,1681
25.6667,1685
25.6694,1682
25.6722,1668
25.6750,1676
25.6778,1691
25.6806,1693
25.6833,1704
25.6861,1681
25.6889,1672
25.6917,1670
25.6944,1665
25.6972,1665
25.7000,1673
25.7028,1682
25.7056,1678
25.7083,1686
25.7111,1687
25.7139,1687
25.7167,1686
25.7194,1687
25.7222,1696
25.7250,1691
25.7278,1690
25.7306,1692
25.7333,1695
25.7361,1680
25.7389,1671
25.7417,1665
25.7444,1666
25.7472,1689
25.7500,1698
25.7528,1705
25.7556,1718
25.7583,1727
25.7611,1716
25.7639,1702
25.7667,1696
25.7694,1700
25.7722,1716
25.7750,1734
25.7778,1736
25.7806,1727
25.7833,1729
25.7861,1733
25.7889,1731
25.7917,1729
25.7944,1729
25.7972,1727
25.8000,1734
25.8028,1737
25.8056,1743
25.8083,1737
25.8111,1737
25.8139,1733
25.8167,1734
25.8194,1723
25.8222,1710
25.8250,1713
25.8278,1727
25.8306,1736
25.8333,1735
25.8361,1719
25.8389,1722
25.8417,1730
25.8444,1741
25.8472,1738
25.8500,1721
25.8528,1720
25.8556,1725
25.8583,1754
25.8611,1757
25.8639,1742
25.8667,1737
25.8694,1729
25.8722,1720
25.8750,1716
25.8778,1702
25.8806,1702
25.8833,1701
25.8861,1698
25.8889,1692
25.8917,1701
25.8944,1702
25.8972,1697
25.9000,1702
25.9028,1698
25.9056,1704
25.9083,1706
25.9111,1701
25.9139,1710
25.9167,1712
25.9194,1718
25.9222,1715
25.9250,1718
25.9278,1706
25.9306,1692
25.9333,1689
25.9361,1702
25.9389,1697
25.9417,1703
25.9444,1715
25.9472,1704
25.9500,1712
25.9528,1703
25.9556,1702
25.9583,1703
25.9611,1718
25.9639,1718
25.9667,1717
25.9694,1708
25.9722,1718
25.9750,1745
25.9778,1763
25.9806,1774
25.9833,1776
25.9861,1771
25.9889,1779
25.9917,1802
25.9944,1836
25.9972,1871
26.0000,1896
26.0028,1919
26.0056,1917
26.0083,1931
26.0111,1924
26.0139,1937
26.0167,1963
26.0194,2002
26.0222,2046
26.0250,2062
26.0278,2061
26.0306,2063
26.0333,2051
26.0361,2044
26.0389,2032
26.0417,2000
26.0444,1997
26.0472,2007
26.0500,2005
26.0528,1980
26.0556,1927
26.0583,1862
26.0611,1802
26.0639,1762
26.0667,1723
26.0694,1703
26.0722,1693
26.0750,1703
26.0778,1709
26.0806,1722
26.0833,1723
26.0861,1719
26.0889,1711
26.0917,1712
26.0944,1706
26.0972,1710
26.1000,1717
26.1028,1719
26.1056,1709
26.1083,1701
26.1111,1702
26.1139,1706
26.1167,1722
26.1194,1722
26.1222,1715
26.1250,1722
26.1278,1723
26.1306,1715
26.1333,1707
26.1361,1698
26.1389,1668
26.1417,1630
26.1444,1588
26.1472,1556
26.1500,1517
26.1528,1527
26.1556,1598
26.1583,1755
26.1611,1988
26.1639,2287
26.1667,2602
26.1694,2900
26.1722,3219
26.1750,3369
26.1778,3378
26.1806,3382
26.1833,3387
26.1861,3371
26.1889,3237
26.1917,2668
26.1944,2019
26.1972,1524
26.2000,1253
26.2028,1156
26.2056,1122
26.2083,1159
26.2111,1270
26.2139,1454
26.2167,1657
26.2194,1828
26.2222,1913
26.2250,1944
26.2278,1932
26.2306,1925
26.2333,1913
26.2361,1905
26.2389,1893
26.2417,1876
26.2444,1855
26.2472,1841
26.2500,1843
26.2528,1871
26.2556,1890
26.2583,1889
26.2611,1880
26.2639,1867
26.2667,1867
26.2694,1855
26.2722,1848
26.2750,1860
26.2778,1856
26.2806,1838
26.2833,1820
26.2861,1800
26.2889,1800
26.2917,1793
26.2944,1804
26.2972,1818
26.3000,1813
26.3028,1804
26.3056,1795
26.3083,1782
26.3111,1788
26.3139,1803
26.3167,1813
26.3194,1823
26.3222,1808
26.3250,1806
26.3278,1800
26.3306,1794
26.3333,1800
26.3361,1809
26.3389,1802
26.3417,1793
26.3444,1777
26.3472,1776
26.3500,1787
26.3528,1791
26.3556,1812
26.3583,1826
26.3611,1828
26.3639,1820
26.3667,1801
26.3694,1802
26.3722,1800
26.3750,1793
26.3778,1790
26.3806,1784
26.3833,1790
26.3861,1797
26.3889,1803
26.3917,1836
26.3944,1849
26.3972,1867
26.4000,1868
26.4028,1871
26.4056,1862
