Tiempo(s),Valor_ADC
0.0028,1700
0.0056,1774
0.0083,1801
0.0111,1766
0.0139,1827
0.0167,1814
0.0194,1695
0.0222,1655
0.0250,1702
0.0278,1716
0.0306,1662
0.0333,1684
0.0361,1700
0.0389,1606
0.0417,1561
0.0444,1602
0.0472,1590
0.0500,1459
0.0528,1365
0.0556,1410
0.0583,1365
0.0611,1328
0.0639,1400
0.0667,1475
0.0694,1477
0.0722,1507
0.0750,1641
0.0778,1646
0.0806,1571
0.0833,1618
0.0861,1651
0.0889,1618
0.0917,1556
0.0944,1626
0.0972,1663
0.1000,1590
0.1028,1610
0.1056,1657
0.1083,1677
0.1111,1678
0.1139,1818
0.1167,1931
0.1194,1874
0.1222,1865
0.1250,1905
0.1278,1874
0.1306,1811
0.1333,1807
0.1361,1838
0.1389,1739
0.1417,1669
0.1444,1708
0.1472,1709
0.1500,1673
0.1528,1711
0.1556,1824
0.1583,1836
0.1611,1855
0.1639,2042
0.1667,2288
0.1694,2462
0.1722,2575
0.1750,2623
0.1778,2444
0.1806,2168
0.1833,2044
0.1861,1975
0.1889,1882
0.1917,1797
0.1944,1853
0.1972,1883
0.2000,1847
0.2028,1883
0.2056,1917
0.2083,1839
0.2111,1714
0.2139,1712
0.2167,1736
0.2194,1677
0.2222,1693
0.2250,1746
0.2278,1732
0.2306,1621
0.2333,1612
0.2361,1674
0.2389,1627
0.2417,1616
0.2444,1654
0.2472,1633
0.2500,1536
0.2528,1518
0.2556,1631
0.2583,1630
0.2611,1593
0.2639,1637
0.2667,1634
0.2694,1554
0.2722,1498
0.2750,1584
0.2778,1597
0.2806,1544
0.2833,1600
0.2861,1632
0.2889,1581
0.2917,1528
0.2944,1617
0.2972,1654
0.3000,1602
0.3028,1614
0.3056,1652
0.3083,1585
0.3111,1499
0.3139,1562
0.3167,1629
0.3194,1586
0.3222,1620
0.3250,1704
0.3278,1726
0.3306,1638
0.3333,1614
0.3361,1666
0.3389,1626
0.3417,1622
0.3444,1707
0.3472,1738
0.3500,1658
0.3528,1600
0.3556,1657
0.3583,1652
0.3611,1644
0.3639,1344
0.3667,1652
0.3694,1676
0.3722,1748
0.3750,1842
0.3778,1756
0.3806,1636
0.3833,1632
0.3861,1652
0.3889,1659
0.3917,1728
0.3944,1833
0.3972,1755
0.4000,1581
0.4028,1569
0.4056,1602
0.4083,1628
0.4111,1625
0.4139,1694
0.4167,1678
0.4194,1577
0.4222,1570
0.4250,1557
0.4278,1541
0.4306,1556
0.4333,1696
0.4361,1767
0.4389,1652
0.4417,1586
0.4444,1589
0.4472,1585
0.4500,1559
0.4528,1630
0.4556,1716
0.4583,1619
0.4611,1513
0.4639,1517
0.4667,1536
0.4694,1549
0.4722,1635
0.4750,1742
0.4778,1677
0.4806,1586
0.4833,1595
0.4861,1595
0.4889,1562
0.4917,1581
0.4944,1690
0.4972,1687
0.5000,1593
0.5028,1591
0.5056,1603
0.5083,1591
0.5111,1602
0.5139,1710
0.5167,1719
0.5194,1626
0.5222,1627
0.5250,1668
0.5278,1647
0.5306,1602
0.5333,1666
0.5361,1697
0.5389,1603
0.5417,1562
0.5444,1567
0.5472,1541
0.5500,1526
0.5528,1658
0.5556,1794
0.5583,1775
0.5611,1735
0.5639,1774
0.5667,1774
0.5694,1709
0.5722,1730
0.5750,1795
0.5778,1746
0.5806,1654
0.5833,1694
0.5861,1747
0.5889,1746
0.5917,1747
0.5944,1849
0.5972,1840
0.6000,1749
0.6028,1764
0.6056,1768
0.6083,1721
0.6111,1682
0.6139,1728
0.6167,1713
0.6194,1617
0.6222,1631
0.6250,1698
0.6278,1721
0.6306,1658
0.6333,1679
0.6361,1692
0.6389,1598
0.6417,1594
0.6444,1673
0.6472,1691
0.6500,1631
0.6528,1654
0.6556,1727
0.6583,1660
0.6611,1628
0.6639,1691
0.6667,1677
0.6694,1623
0.6722,1635
0.6750,1718
0.6778,1689
0.6806,1626
0.6833,1692
0.6861,1724
0.6889,1673
0.6917,1632
0.6944,1681
0.6972,1656
0.7000,1574
0.7028,1611
0.7056,1642
0.7083,1620
0.7111,1569
0.7139,1646
0.7167,1699
0.7194,1664
0.7222,1785
0.7250,2014
0.7278,2201
0.7306,2363
0.7333,2547
0.7361,2600
0.7389,2376
0.7417,2161
0.7444,2038
0.7472,1944
0.7500,1843
0.7528,1835
0.7556,1864
0.7583,1783
0.7611,1745
0.7639,1798
0.7667,1764
0.7694,1651
0.7722,1621
0.7750,1717
0.7778,1712
0.7806,1651
0.7833,1692
0.7861,1716
0.7889,1688
0.7917,1655
0.7944,1725
0.7972,1713
0.8000,1634
0.8028,1658
0.8056,1691
0.8083,1660
0.8111,1608
0.8139,1667
0.8167,1680
0.8194,1608
0.8222,1639
0.8250,1691
0.8278,1674
0.8306,1587
0.8333,1593
0.8361,1635
0.8389,1606
0.8417,1665
0.8444,1784
0.8472,1791
0.8500,1683
0.8528,1647
0.8556,1697
0.8583,1669
0.8611,1659
0.8639,1722
0.8667,1744
0.8694,1682
0.8722,1648
0.8750,1717
0.8778,1714
0.8806,1663
0.8833,1726
0.8861,1754
0.8889,1698
0.8917,1665
0.8944,1762
0.8972,1771
0.9000,1710
0.9028,1774
0.9056,1833
0.9083,1811
0.9111,1742
0.9139,1782
0.9167,1804
0.9194,1741
0.9222,1774
0.9250,1469
0.9278,1772
0.9306,1787
0.9333,1922
0.9361,1924
0.9389,1796
0.9417,1781
0.9444,1792
0.9472,1794
0.9500,1784
0.9528,1877
0.9556,1891
0.9583,1736
0.9611,1651
0.9639,1661
0.9667,1670
0.9694,1682
0.9722,1759
0.9750,1823
0.9778,1701
0.9806,1605
0.9833,1619
0.9861,1624
0.9889,1631
0.9917,1713
0.9944,1833
0.9972,1753
1.0000,1596
1.0028,1583
1.0056,1590
1.0083,1588
1.0111,1669
1.0139,1814
1.0167,1789
1.0194,1668
1.0222,1648
1.0250,1625
1.0278,1583
1.0306,1607
1.0333,1745
1.0361,1762
1.0389,1642
1.0417,1625
1.0444,1623
1.0472,1618
1.0500,1639
1.0528,1774
1.0556,1816
1.0583,1678
1.0611,1607
1.0639,1634
1.0667,1624
1.0694,1629
1.0722,1720
1.0750,1787
1.0778,1686
1.0806,1621
1.0833,1664
1.0861,1673
1.0889,1651
1.0917,1702
1.0944,1772
1.0972,1719
1.1000,1635
1.1028,1665
1.1056,1677
1.1083,1631
1.1111,1646
1.1139,1770
1.1167,1779
1.1194,1685
1.1222,1724
1.1250,1767
1.1278,1761
1.1306,1741
1.1333,1817
1.1361,1813
1.1389,1692
1.1417,1680
1.1444,1736
1.1472,1760
1.1500,1733
1.1528,1804
1.1556,1844
1.1583,1743
1.1611,1711
1.1639,1754
1.1667,1764
1.1694,1718
1.1722,1726
1.1750,1753
1.1778,1668
1.1806,1627
1.1833,1698
1.1861,1712
1.1889,1655
1.1917,1656
1.1944,1733
1.1972,1685
1.2000,1615
1.2028,1647
1.2056,1670
1.2083,1632
1.2111,1631
1.2139,1729
1.2167,1723
1.2194,1630
1.2222,1650
1.2250,1654
1.2278,1607
1.2306,1562
1.2333,1662
1.2361,1710
1.2389,1647
1.2417,1684
1.2444,1733
1.2472,1742
1.2500,1673
1.2528,1711
1.2556,1732
1.2583,1633
1.2611,1617
1.2639,1666
1.2667,1651
1.2694,1569
1.2722,1578
1.2750,1667
1.2778,1658
1.2806,1686
1.2833,1816
1.2861,1934
1.2889,2034
1.2917,2234
1.2944,2486
1.2972,2550
1.3000,2451
1.3028,2332
1.3056,2176
1.3083,1985
1.3111,1858
1.3139,1883
1.3167,1848
1.3194,1761
1.3222,1805
1.3250,1836
1.3278,1809
1.3306,1726
1.3333,1769
1.3361,1757
1.3389,1650
1.3417,1656
1.3444,1691
1.3472,1659
1.3500,1573
1.3528,1633
1.3556,1719
1.3583,1681
1.3611,1684
1.3639,1730
1.3667,1695
1.3694,1614
1.3722,1637
1.3750,1721
1.3778,1681
1.3806,1642
1.3833,1698
1.3861,1727
1.3889,1693
1.3917,1669
1.3944,1723
1.3972,1681
1.4000,1617
1.4028,1676
1.4056,1745
1.4083,1731
1.4111,1677
1.4139,1750
1.4167,1755
1.4194,1673
1.4222,1713
1.4250,1753
1.4278,1715
1.4306,1642
1.4333,1703
1.4361,1739
1.4389,1688
1.4417,1739
1.4444,1829
1.4472,1801
1.4500,1698
1.4528,1686
1.4556,1722
1.4583,1689
1.4611,1723
1.4639,1803
1.4667,1806
1.4694,1733
1.4722,1730
1.4750,1818
1.4778,1779
1.4806,1743
1.4833,1832
1.4861,1536
1.4889,1748
1.4917,1869
1.4944,1929
1.4972,1826
1.5000,1733
1.5028,1774
1.5056,1813
1.5083,1810
1.5111,1857
1.5139,1923
1.5167,1806
1.5194,1684
1.5222,1700
1.5250,1730
1.5278,1730
1.5306,1754
1.5333,1831
1.5361,1754
1.5389,1617
1.5417,1631
1.5444,1689
1.5472,1700
1.5500,1732
1.5528,1846
1.5556,1842
1.5583,1685
1.5611,1611
1.5639,1594
1.5667,1607
1.5694,1642
1.5722,1784
1.5750,1834
1.5778,1687
1.5806,1622
1.5833,1649
1.5861,1638
1.5889,1608
1.5917,1698
1.5944,1791
1.5972,1749
1.6000,1702
1.6028,1717
1.6056,1718
1.6083,1668
1.6111,1689
1.6139,1772
1.6167,1726
1.6194,1654
1.6222,1680
1.6250,1699
1.6278,1658
1.6306,1668
1.6333,1754
1.6361,1717
1.6389,1627
1.6417,1655
1.6444,1696
1.6472,1683
1.6500,1661
1.6528,1753
1.6556,1750
1.6583,1654
1.6611,1644
1.6639,1678
1.6667,1679
1.6694,1659
1.6722,1750
1.6750,1785
1.6778,1687
1.6806,1637
1.6833,1683
1.6861,1709
1.6889,1702
1.6917,1773
1.6944,1851
1.6972,1775
1.7000,1691
1.7028,1699
1.7056,1717
1.7083,1724
1.7111,1779
1.7139,1871
1.7167,1810
1.7194,1719
1.7222,1754
1.7250,1775
1.7278,1757
1.7306,1757
1.7333,1851
1.7361,1829
1.7389,1729
1.7417,1747
1.7444,1795
1.7472,1795
1.7500,1756
1.7528,1806
1.7556,1758
1.7583,1628
1.7611,1622
1.7639,1679
1.7667,1675
1.7694,1631
1.7722,1682
1.7750,1712
1.7778,1603
1.7806,1604
1.7833,1675
1.7861,1682
1.7889,1642
1.7917,1704
1.7944,1757
1.7972,1687
1.8000,1642
1.8028,1670
1.8056,1650
1.8083,1591
1.8111,1628
1.8139,1757
1.8167,1747
1.8194,1680
1.8222,1715
1.8250,1724
1.8278,1679
1.8306,1643
1.8333,1703
1.8361,1680
1.8389,1601
1.8417,1626
1.8444,1649
1.8472,1598
1.8500,1568
1.8528,1678
1.8556,1744
1.8583,1720
1.8611,1823
1.8639,1972
1.8667,2099
1.8694,2222
1.8722,2462
1.8750,2654
1.8778,2551
1.8806,2351
1.8833,2173
1.8861,2002
1.8889,1840
1.8917,1794
1.8944,1851
1.8972,1805
1.9000,1765
1.9028,1844
1.9056,1856
1.9083,1761
1.9111,1693
1.9139,1727
1.9167,1698
1.9194,1651
1.9222,1725
1.9250,1734
1.9278,1666
1.9306,1627
1.9333,1731
1.9361,1715
1.9389,1652
1.9417,1690
1.9444,1739
1.9472,1704
1.9500,1655
1.9528,1699
1.9556,1708
1.9583,1631
1.9611,1673
1.9639,1736
1.9667,1735
1.9694,1656
1.9722,1684
1.9750,1721
1.9778,1670
1.9806,1668
1.9833,1720
1.9861,1696
1.9889,1651
1.9917,1693
1.9944,1775
1.9972,1705
2.0000,1643
2.0028,1728
2.0056,1779
2.0083,1726
2.0111,1695
2.0139,1783
2.0167,1756
2.0194,1699
2.0222,1756
2.0250,1771
2.0278,1708
2.0306,1656
2.0333,1761
2.0361,1788
2.0389,1752
2.0417,1779
2.0444,1804
2.0472,1778
2.0500,1730
2.0528,1802
2.0556,1856
2.0583,1775
2.0611,1799
2.0639,1868
2.0667,1684
2.0694,1807
2.0722,1927
2.0750,1950
2.0778,1815
2.0806,1738
2.0833,1736
2.0861,1729
2.0889,1729
2.0917,1844
2.0944,1891
2.0972,1770
2.1000,1689
2.1028,1681
2.1056,1683
2.1083,1694
2.1111,1811
2.1139,1869
2.1167,1733
2.1194,1631
2.1222,1653
2.1250,1677
2.1278,1705
2.1306,1804
2.1333,1894
2.1361,1818
2.1389,1696
2.1417,1671
2.1444,1654
2.1472,1615
2.1500,1623
2.1528,1728
2.1556,1733
2.1583,1663
2.1611,1672
2.1639,1695
2.1667,1662
2.1694,1643
2.1722,1742
2.1750,1759
2.1778,1646
2.1806,1621
2.1833,1652
2.1861,1676
2.1889,1668
2.1917,1767
2.1944,1824
2.1972,1721
2.2000,1681
2.2028,1715
2.2056,1734
2.2083,1693
2.2111,1745
2.2139,1821
2.2167,1742
2.2194,1676
2.2222,1696
2.2250,1691
2.2278,1653
2.2306,1701
2.2333,1805
2.2361,1746
2.2389,1642
2.2417,1660
2.2444,1686
2.2472,1648
2.2500,1649
2.2528,1742
2.2556,1744
2.2583,1653
2.2611,1676
2.2639,1711
2.2667,1703
2.2694,1679
2.2722,1802
2.2750,1835
2.2778,1739
2.2806,1739
2.2833,1740
2.2861,1669
2.2889,1610
2.2917,1710
2.2944,1839
2.2972,1840
2.3000,1842
2.3028,1850
2.3056,1821
2.3083,1747
2.3111,1762
2.3139,1794
2.3167,1705
2.3194,1658
2.3222,1742
2.3250,1797
2.3278,1787
2.3306,1826
2.3333,1921
2.3361,1861
2.3389,1759
2.3417,1756
2.3444,1744
2.3472,1686
2.3500,1674
2.3528,1778
2.3556,1774
2.3583,1666
2.3611,1674
2.3639,1712
2.3667,1701
2.3694,1644
2.3722,1709
2.3750,1725
2.3778,1645
2.3806,1670
2.3833,1742
2.3861,1733
2.3889,1657
2.3917,1668
2.3944,1696
2.3972,1630
2.4000,1641
2.4028,1720
2.4056,1752
2.4083,1704
2.4111,1702
2.4139,1742
2.4167,1658
2.4194,1626
2.4222,1700
2.4250,1734
2.4278,1702
2.4306,1698
2.4333,1730
2.4361,1656
2.4389,1572
2.4417,1638
2.4444,1717
2.4472,1706
2.4500,1698
2.4528,1801
2.4556,1884
2.4583,1971
2.4611,2210
2.4639,2488
2.4667,2619
2.4694,2579
2.4722,2495
2.4750,2315
2.4778,2043
2.4806,1945
2.4833,1931
2.4861,1880
2.4889,1797
2.4917,1867
2.4944,1938
2.4972,1877
2.5000,1840
2.5028,1842
2.5056,1775
2.5083,1673
2.5111,1692
2.5139,1764
2.5167,1697
2.5194,1638
2.5222,1696
2.5250,1727
2.5278,1684
2.5306,1678
2.5333,1765
2.5361,1746
2.5389,1694
2.5417,1758
2.5444,1778
2.5472,1716
2.5500,1660
2.5528,1695
2.5556,1682
2.5583,1609
2.5611,1649
2.5639,1712
2.5667,1710
2.5694,1684
2.5722,1768
2.5750,1800
2.5778,1717
2.5806,1722
2.5833,1752
2.5861,1719
2.5889,1643
2.5917,1675
2.5944,1739
2.5972,1679
2.6000,1686
2.6028,1754
2.6056,1753
2.6083,1668
2.6111,1672
2.6139,1740
2.6167,1704
2.6194,1682
2.6222,1776
2.6250,1799
2.6278,1740
2.6306,1700
2.6333,1771
2.6361,1749
2.6389,1719
2.6417,1790
2.6444,1809
2.6472,1760
2.6500,1720
2.6528,1813
2.6556,1845
2.6583,1659
2.6611,1755
2.6639,1736
2.6667,1717
2.6694,1780
2.6722,1908
2.6750,1887
2.6778,1730
2.6806,1687
2.6833,1683
2.6861,1694
2.6889,1731
2.6917,1876
2.6944,1907
2.6972,1773
2.7000,1718
2.7028,1703
2.7056,1673
2.7083,1644
2.7111,1714
2.7139,1763
2.7167,1674
2.7194,1639
2.7222,1668
2.7250,1687
2.7278,1679
2.7306,1770
2.7333,1849
2.7361,1750
2.7389,1646
2.7417,1646
2.7444,1630
2.7472,1594
2.7500,1661
2.7528,1782
2.7556,1732
2.7583,1619
2.7611,1595
2.7639,1602
2.7667,1591
2.7694,1627
2.7722,1749
2.7750,1749
2.7778,1616
2.7806,1594
2.7833,1599
2.7861,1580
2.7889,1585
2.7917,1714
2.7944,1784
2.7972,1705
2.8000,1690
2.8028,1699
2.8056,1674
2.8083,1638
2.8111,1737
2.8139,1783
2.8167,1663
2.8194,1606
2.8222,1639
2.8250,1635
2.8278,1611
2.8306,1682
2.8333,1775
2.8361,1696
2.8389,1643
2.8417,1686
2.8444,1692
2.8472,1619
2.8500,1596
2.8528,1686
2.8556,1653
2.8583,1565
2.8611,1578
2.8639,1619
2.8667,1638
2.8694,1652
2.8722,1743
2.8750,1750
2.8778,1655
2.8806,1668
2.8833,1705
2.8861,1691
2.8889,1660
2.8917,1733
2.8944,1750
2.8972,1634
2.9000,1626
2.9028,1662
2.9056,1684
2.9083,1647
2.9111,1732
2.9139,1767
2.9167,1688
2.9194,1682
2.9222,1743
2.9250,1749
2.9278,1712
2.9306,1735
2.9333,1781
2.9361,1701
2.9389,1655
2.9417,1734
2.9444,1744
2.9472,1716
2.9500,1731
2.9528,1831
2.9556,1806
2.9583,1727
2.9611,1754
2.9639,1749
2.9667,1695
2.9694,1655
2.9722,1726
2.9750,1715
2.9778,1618
2.9806,1647
2.9833,1676
2.9861,1654
2.9889,1613
2.9917,1679
2.9944,1702
2.9972,1624
3.0000,1625
3.0028,1662
3.0056,1663
3.0083,1590
3.0111,1622
3.0139,1666
3.0167,1601
3.0194,1597
3.0222,1681
3.0250,1698
3.0278,1649
3.0306,1665
3.0333,1721
3.0361,1654
3.0389,1619
3.0417,1674
3.0444,1679
3.0472,1626
3.0500,1599
3.0528,1679
3.0556,1654
3.0583,1582
3.0611,1602
3.0639,1633
3.0667,1613
3.0694,1611
3.0722,1731
3.0750,1803
3.0778,1843
3.0806,2044
3.0833,2291
3.0861,2479
3.0889,2544
3.0917,2592
3.0944,2455
3.0972,2180
3.1000,2004
3.1028,1937
3.1056,1853
3.1083,1729
3.1111,1769
3.1139,1843
3.1167,1781
3.1194,1746
3.1222,1775
3.1250,1738
3.1278,1627
3.1306,1594
3.1333,1658
3.1361,1611
3.1389,1582
3.1417,1652
3.1444,1669
3.1472,1633
3.1500,1614
3.1528,1679
3.1556,1644
3.1583,1583
3.1611,1654
3.1639,1679
3.1667,1630
3.1694,1576
3.1722,1660
3.1750,1681
3.1778,1597
3.1806,1611
3.1833,1648
3.1861,1634
3.1889,1576
3.1917,1637
3.1944,1691
3.1972,1646
3.2000,1660
3.2028,1716
3.2056,1690
3.2083,1595
3.2111,1627
3.2139,1693
3.2167,1655
3.2194,1649
3.2222,1713
3.2250,1701
3.2278,1631
3.2306,1619
3.2333,1672
3.2361,1632
3.2389,1629
3.2417,1731
3.2444,1764
3.2472,1686
3.2500,1643
3.2528,1725
3.2556,1736
3.2583,1711
3.2611,1772
3.2639,1805
3.2667,1739
3.2694,1660
3.2722,1703
3.2750,1751
3.2778,1716
3.2806,1416
3.2833,1688
3.2861,1697
3.2889,1768
3.2917,1930
3.2944,1939
3.2972,1786
3.3000,1711
3.3028,1691
3.3056,1692
3.3083,1729
3.3111,1865
3.3139,1873
3.3167,1752
3.3194,1697
3.3222,1695
3.3250,1679
3.3278,1668
3.3306,1745
3.3333,1789
3.3361,1680
3.3389,1606
3.3417,1620
3.3444,1609
3.3472,1593
3.3500,1671
3.3528,1760
3.3556,1694
3.3583,1631
3.3611,1665
3.3639,1685
3.3667,1681
3.3694,1724
3.3722,1822
3.3750,1741
3.3778,1618
3.3806,1596
3.3833,1611
3.3861,1600
3.3889,1622
3.3917,1719
3.3944,1707
3.3972,1585
3.4000,1603
3.4028,1620
3.4056,1612
3.4083,1597
3.4111,1708
3.4139,1755
3.4167,1676
3.4194,1666
3.4222,1683
3.4250,1662
3.4278,1624
3.4306,1678
3.4333,1749
3.4361,1661
3.4389,1614
3.4417,1644
3.4444,1630
3.4472,1613
3.4500,1688
3.4528,1784
3.4556,1727
3.4583,1646
3.4611,1665
3.4639,1663
3.4667,1630
3.4694,1665
3.4722,1762
3.4750,1745
3.4778,1653
3.4806,1663
3.4833,1657
3.4861,1604
3.4889,1602
3.4917,1727
3.4944,1746
3.4972,1658
3.5000,1668
3.5028,1688
3.5056,1643
3.5083,1600
3.5111,1683
3.5139,1745
3.5167,1653
3.5194,1628
3.5222,1647
3.5250,1604
3.5278,1562
3.5306,1652
3.5333,1752
3.5361,1701
3.5389,1694
3.5417,1731
3.5444,1722
3.5472,1639
3.5500,1648
3.5528,1740
3.5556,1700
3.5583,1637
3.5611,1676
3.5639,1671
3.5667,1634
3.5694,1650
3.5722,1746
3.5750,1726
3.5778,1664
3.5806,1721
3.5833,1734
3.5861,1675
3.5889,1621
3.5917,1712
3.5944,1713
3.5972,1613
3.6000,1630
3.6028,1658
3.6056,1630
3.6083,1617
3.6111,1737
3.6139,1817
3.6167,1746
3.6194,1724
3.6222,1729
3.6250,1676
3.6278,1610
3.6306,1682
3.6333,1766
3.6361,1706
3.6389,1717
3.6417,1814
3.6444,1830
3.6472,1782
3.6500,1779
3.6528,1831
3.6556,1772
3.6583,1696
3.6611,1738
3.6639,1781
3.6667,1736
3.6694,1726
3.6722,1831
3.6750,1838
3.6778,1771
3.6806,1793
3.6833,1806
3.6861,1745
3.6889,1693
3.6917,1733
3.6944,1709
3.6972,1642
3.7000,1700
3.7028,1774
3.7056,1756
3.7083,1690
3.7111,1738
3.7139,1759
3.7167,1685
3.7194,1688
3.7222,1749
3.7250,1734
3.7278,1627
3.7306,1613
3.7333,1663
3.7361,1633
3.7389,1656
3.7417,1726
3.7444,1742
3.7472,1675
3.7500,1670
3.7528,1729
3.7556,1684
3.7583,1643
3.7611,1706
3.7639,1749
3.7667,1706
3.7694,1672
3.7722,1734
3.7750,1715
3.7778,1633
3.7806,1658
3.7833,1658
3.7861,1606
3.7889,1583
3.7917,1711
3.7944,1789
3.7972,1800
3.8000,1918
3.8028,2116
3.8056,2291
3.8083,2435
3.8111,2638
3.8139,2727
3.8167,2542
3.8194,2308
3.8222,2158
3.8250,2003
3.8278,1833
3.8306,1798
3.8333,1849
3.8361,1814
3.8389,1816
3.8417,1892
3.8444,1877
3.8472,1753
3.8500,1702
3.8528,1740
3.8556,1714
3.8583,1670
3.8611,1737
3.8639,1775
3.8667,1726
3.8694,1677
3.8722,1736
3.8750,1724
3.8778,1669
3.8806,1730
3.8833,1763
3.8861,1723
3.8889,1636
3.8917,1678
3.8944,1707
3.8972,1659
3.9000,1715
3.9028,1766
3.9056,1749
3.9083,1658
3.9111,1694
3.9139,1748
3.9167,1713
3.9194,1741
3.9222,1831
3.9250,1826
3.9278,1729
3.9306,1687
3.9333,1745
3.9361,1710
3.9389,1711
3.9417,1822
3.9444,1848
3.9472,1784
3.9500,1739
3.9528,1795
3.9556,1759
3.9583,1717
3.9611,1783
3.9639,1834
3.9667,1795
3.9694,1733
3.9722,1803
3.9750,1799
3.9778,1746
3.9806,1800
3.9833,1855
3.9861,1818
3.9889,1720
3.9917,1743
3.9944,1758
3.9972,1740
4.0000,1850
4.0028,1510
4.0056,1804
4.0083,1850
4.0111,1981
4.0139,1978
4.0167,1829
4.0194,1783
4.0222,1794
4.0250,1800
4.0278,1809
4.0306,1925
4.0333,1931
4.0361,1791
4.0389,1729
4.0417,1746
4.0444,1737
4.0472,1722
4.0500,1822
4.0528,1914
4.0556,1824
4.0583,1748
4.0611,1757
4.0639,1764
4.0667,1732
4.0694,1777
4.0722,1832
4.0750,1755
4.0778,1665
4.0806,1688
4.0833,1733
4.0861,1732
4.0889,1747
4.0917,1836
4.0944,1787
4.0972,1652
4.1000,1646
4.1028,1664
4.1056,1669
4.1083,1670
4.1111,1766
4.1139,1771
4.1167,1662
4.1194,1679
4.1222,1708
4.1250,1709
4.1278,1706
4.1306,1780
4.1333,1773
4.1361,1644
4.1389,1603
4.1417,1674
4.1444,1708
4.1472,1699
4.1500,1753
4.1528,1791
4.1556,1685
4.1583,1623
4.1611,1678
4.1639,1704
4.1667,1673
4.1694,1669
4.1722,1723
4.1750,1701
4.1778,1668
4.1806,1747
4.1833,1782
4.1861,1736
4.1889,1728
4.1917,1800
4.1944,1768
4.1972,1679
4.2000,1706
4.2028,1746
4.2056,1728
4.2083,1702
4.2111,1776
4.2139,1757
4.2167,1632
4.2194,1639
4.2222,1690
4.2250,1708
4.2278,1670
4.2306,1731
4.2333,1765
4.2361,1661
4.2389,1615
4.2417,1660
4.2444,1678
4.2472,1681
4.2500,1752
4.2528,1823
4.2556,1760
4.2583,1697
4.2611,1750
4.2639,1762
4.2667,1715
4.2694,1723
4.2722,1789
4.2750,1758
4.2778,1703
4.2806,1733
4.2833,1720
4.2861,1665
4.2889,1668
4.2917,1776
4.2944,1794
4.2972,1727
4.3000,1761
4.3028,1789
4.3056,1748
4.3083,1683
4.3111,1750
4.3139,1744
4.3167,1656
4.3194,1652
4.3222,1695
4.3250,1711
4.3278,1687
4.3306,1759
4.3333,1821
4.3361,1746
4.3389,1740
4.3417,1778
4.3444,1762
4.3472,1691
4.3500,1694
4.3528,1750
4.3556,1677
4.3583,1630
4.3611,1708
4.3639,1751
4.3667,1738
4.3694,1747
4.3722,1831
4.3750,1804
4.3778,1737
4.3806,1762
4.3833,1787
4.3861,1758
4.3889,1762
4.3917,1865
4.3944,1860
4.3972,1783
4.4000,1815
4.4028,1851
4.4056,1822
4.4083,1752
4.4111,1801
4.4139,1799
4.4167,1729
4.4194,1759
4.4222,1822
4.4250,1797
4.4278,1687
4.4306,1686
4.4333,1738
4.4361,1702
4.4389,1713
4.4417,1795
4.4444,1820
4.4472,1768
4.4500,1749
4.4528,1782
4.4556,1712
4.4583,1681
4.4611,1745
4.4639,1750
4.4667,1701
4.4694,1668
4.4722,1722
4.4750,1693
4.4778,1653
4.4806,1710
4.4833,1744
4.4861,1693
4.4889,1637
4.4917,1702
4.4944,1712
4.4972,1664
4.5000,1715
4.5028,1765
4.5056,1758
4.5083,1697
4.5111,1756
4.5139,1762
4.5167,1662
4.5194,1644
4.5222,1678
4.5250,1684
4.5278,1664
4.5306,1747
4.5333,1828
4.5361,1856
4.5389,1983
4.5417,2225
4.5444,2448
4.5472,2565
4.5500,2643
4.5528,2639
4.5556,2397
4.5583,2148
4.5611,2036
4.5639,1971
4.5667,1862
4.5694,1809
4.5722,1863
4.5750,1840
4.5778,1790
4.5806,1837
4.5833,1851
4.5861,1764
4.5889,1669
4.5917,1692
4.5944,1685
4.5972,1656
4.6000,1724
4.6028,1776
4.6056,1740
4.6083,1670
4.6111,1701
4.6139,1711
4.6167,1647
4.6194,1672
4.6222,1752
4.6250,1768
4.6278,1720
4.6306,1717
4.6333,1730
4.6361,1673
4.6389,1663
4.6417,1732
4.6444,1756
4.6472,1714
4.6500,1698
4.6528,1752
4.6556,1716
4.6583,1683
4.6611,1762
4.6639,1791
4.6667,1747
4.6694,1692
4.6722,1726
4.6750,1688
4.6778,1654
4.6806,1742
4.6833,1811
4.6861,1784
4.6889,1728
4.6917,1775
4.6944,1757
4.6972,1705
4.7000,1761
4.7028,1816
4.7056,1824
4.7083,1766
4.7111,1803
4.7139,1823
4.7167,1774
4.7194,1811
4.7222,1867
4.7250,1871
4.7278,1794
4.7306,1785
4.7333,1800
4.7361,1750
4.7389,1547
4.7417,1763
4.7444,1782
4.7472,1795
4.7500,1894
4.7528,1938
4.7556,1827
4.7583,1753
4.7611,1749
4.7639,1783
4.7667,1822
4.7694,1916
4.7722,1975
4.7750,1873
4.7778,1765
4.7806,1766
4.7833,1751
4.7861,1741
4.7889,1783
4.7917,1862
4.7944,1801
4.7972,1698
4.8000,1704
4.8028,1712
4.8056,1712
4.8083,1731
4.8111,1811
4.8139,1799
4.8167,1692
4.8194,1683
4.8222,1682
4.8250,1631
4.8278,1621
4.8306,1738
4.8333,1776
4.8361,1700
4.8389,1695
4.8417,1731
4.8444,1725
4.8472,1698
4.8500,1776
4.8528,1805
4.8556,1695
4.8583,1628
4.8611,1650
4.8639,1692
4.8667,1697
4.8694,1749
4.8722,1813
4.8750,1741
4.8778,1675
4.8806,1693
4.8833,1681
4.8861,1640
4.8889,1651
4.8917,1747
4.8944,1728
4.8972,1660
4.9000,1700
4.9028,1738
4.9056,1737
4.9083,1728
4.9111,1816
4.9139,1800
4.9167,1719
4.9194,1728
4.9222,1745
4.9250,1709
4.9278,1654
4.9306,1714
4.9333,1737
4.9361,1694
4.9389,1719
4.9417,1758
4.9444,1740
4.9472,1663
4.9500,1687
4.9528,1724
4.9556,1666
4.9583,1681
4.9611,1760
4.9639,1781
4.9667,1734
4.9694,1733
4.9722,1771
4.9750,1700
4.9778,1646
4.9806,1690
4.9833,1696
4.9861,1664
4.9889,1683
4.9917,1774
4.9944,1746
4.9972,1668
5.0000,1711
5.0028,1713
5.0056,1665
5.0083,1655
5.0111,1761
5.0139,1772
5.0167,1705
5.0194,1734
5.0222,1766
5.0250,1729
5.0278,1668
5.0306,1732
5.0333,1782
5.0361,1721
5.0389,1740
5.0417,1809
5.0444,1814
5.0472,1769
5.0500,1819
5.0528,1860
5.0556,1792
5.0583,1746
5.0611,1782
5.0639,1781
5.0667,1719
5.0694,1744
5.0722,1819
5.0750,1765
5.0778,1720
5.0806,1740
5.0833,1717
5.0861,1644
5.0889,1614
5.0917,1682
5.0944,1677
5.0972,1609
5.1000,1662
5.1028,1670
5.1056,1627
5.1083,1602
5.1111,1705
5.1139,1728
5.1167,1653
5.1194,1657
5.1222,1666
5.1250,1634
5.1278,1576
5.1306,1670
5.1333,1713
5.1361,1672
5.1389,1689
5.1417,1746
5.1444,1726
5.1472,1634
5.1500,1644
5.1528,1690
5.1556,1643
5.1583,1640
5.1611,1700
5.1639,1694
5.1667,1603
5.1694,1566
5.1722,1635
5.1750,1626
5.1778,1627
5.1806,1745
5.1833,1821
5.1861,1853
5.1889,1942
5.1917,2180
5.1944,2389
5.1972,2509
5.2000,2616
5.2028,2524
5.2056,2229
5.2083,1964
5.2111,1908
5.2139,1876
5.2167,1804
5.2194,1841
5.2222,1881
5.2250,1861
5.2278,1775
5.2306,1774
5.2333,1738
5.2361,1604
5.2389,1577
5.2417,1624
5.2444,1643
5.2472,1619
5.2500,1658
5.2528,1694
5.2556,1619
5.2583,1606
5.2611,1675
5.2639,1687
5.2667,1619
5.2694,1616
5.2722,1686
5.2750,1661
5.2778,1621
5.2806,1660
5.2833,1695
5.2861,1655
5.2889,1608
5.2917,1670
5.2944,1657
5.2972,1586
5.3000,1639
5.3028,1662
5.3056,1615
5.3083,1527
5.3111,1580
5.3139,1649
5.3167,1657
5.3194,1730
5.3222,1795
5.3250,1766
5.3278,1677
5.3306,1687
5.3333,1692
5.3361,1611
5.3389,1621
5.3417,1692
5.3444,1690
5.3472,1646
5.3500,1669
5.3528,1731
5.3556,1690
5.3583,1665
5.3611,1736
5.3639,1752
5.3667,1699
5.3694,1699
5.3722,1754
5.3750,1709
5.3778,1653
5.3806,1714
5.3833,1768
5.3861,1748
5.3889,1723
5.3917,2124
5.3944,1828
5.3972,1719
5.4000,1715
5.4028,1720
5.4056,1710
5.4083,1754
5.4111,1857
5.4139,1793
5.4167,1661
5.4194,1640
5.4222,1634
5.4250,1648
5.4278,1677
5.4306,1789
5.4333,1762
5.4361,1633
5.4389,1606
5.4417,1613
5.4444,1592
5.4472,1617
5.4500,1757
5.4528,1789
5.4556,1683
5.4583,1633
5.4611,1634
5.4639,1615
5.4667,1625
5.4694,1728
5.4722,1797
5.4750,1686
5.4778,1569
5.4806,1562
5.4833,1547
5.4861,1568
5.4889,1657
5.4917,1770
5.4944,1718
5.4972,1629
5.5000,1633
5.5028,1634
5.5056,1594
5.5083,1587
5.5111,1682
5.5139,1669
5.5167,1584
5.5194,1594
5.5222,1627
5.5250,1630
5.5278,1623
5.5306,1735
5.5333,1749
5.5361,1641
5.5389,1639
5.5417,1657
5.5444,1649
5.5472,1635
5.5500,1747
5.5528,1770
5.5556,1664
5.5583,1619
5.5611,1622
5.5639,1588
5.5667,1574
5.5694,1671
5.5722,1760
5.5750,1706
5.5778,1649
5.5806,1674
5.5833,1671
5.5861,1616
5.5889,1637
5.5917,1711
5.5944,1661
5.5972,1613
5.6000,1666
5.6028,1680
5.6056,1643
5.6083,1646
5.6111,1739
5.6139,1728
5.6167,1649
5.6194,1666
5.6222,1687
5.6250,1653
5.6278,1623
5.6306,1694
5.6333,1700
5.6361,1633
5.6389,1665
5.6417,1702
5.6444,1699
5.6472,1646
5.6500,1700
5.6528,1731
5.6556,1648
5.6583,1619
5.6611,1647
5.6639,1665
5.6667,1625
5.6694,1672
5.6722,1728
5.6750,1678
5.6778,1676
5.6806,1734
5.6833,1751
5.6861,1692
5.6889,1671
5.6917,1734
5.6944,1711
5.6972,1681
5.7000,1734
5.7028,1761
5.7056,1733
5.7083,1701
5.7111,1754
5.7139,1719
5.7167,1638
5.7194,1698
5.7222,1756
5.7250,1743
5.7278,1733
5.7306,1824
5.7333,1851
5.7361,1758
5.7389,1754
5.7417,1774
5.7444,1746
5.7472,1703
5.7500,1752
5.7528,1795
5.7556,1760
5.7583,1791
5.7611,1845
5.7639,1830
5.7667,1741
5.7694,1733
5.7722,1763
5.7750,1678
5.7778,1633
5.7806,1670
5.7833,1696
5.7861,1660
5.7889,1647
5.7917,1689
5.7944,1622
5.7972,1554
5.8000,1605
5.8028,1686
5.8056,1710
5.8083,1691
5.8111,1757
5.8139,1716
5.8167,1613
5.8194,1618
5.8222,1662
5.8250,1652
5.8278,1604
5.8306,1662
5.8333,1711
5.8361,1674
5.8389,1719
5.8417,1765
5.8444,1730
5.8472,1656
5.8500,1678
5.8528,1693
5.8556,1615
5.8583,1590
5.8611,1664
5.8639,1692
5.8667,1675
5.8694,1727
5.8722,1855
5.8750,1933
5.8778,2087
5.8806,2374
5.8833,2615
5.8861,2721
5.8889,2728
5.8917,2646
5.8944,2372
5.8972,2077
5.9000,1952
5.9028,1852
5.9056,1756
5.9083,1713
5.9111,1802
5.9139,1825
5.9167,1769
5.9194,1788
5.9222,1784
5.9250,1742
5.9278,1659
5.9306,1691
5.9333,1705
5.9361,1641
5.9389,1676
5.9417,1726
5.9444,1719
5.9472,1668
5.9500,1705
5.9528,1742
5.9556,1681
5.9583,1687
5.9611,1740
5.9639,1740
5.9667,1670
5.9694,1675
5.9722,1720
5.9750,1696
5.9778,1666
5.9806,1720
5.9833,1717
5.9861,1646
5.9889,1637
5.9917,1718
5.9944,1726
5.9972,1676
6.0000,1736
6.0028,1764
6.0056,1747
6.0083,1709
6.0111,1781
6.0139,1773
6.0167,1701
6.0194,1742
6.0222,1776
6.0250,1749
6.0278,1695
6.0306,1740
6.0333,1784
6.0361,1743
6.0389,1784
6.0417,1835
6.0444,1800
6.0472,1729
6.0500,1734
6.0528,1757
6.0556,1731
6.0583,1748
6.0611,1814
6.0639,1846
6.0667,1796
6.0694,1796
6.0722,1786
6.0750,1717
6.0778,1630
6.0806,1809
6.0833,1818
6.0861,1798
6.0889,1866
6.0917,1905
6.0944,1781
6.0972,1687
6.1000,1692
6.1028,1742
6.1056,1809
6.1083,1880
6.1111,1891
6.1139,1773
6.1167,1657
6.1194,1665
6.1222,1695
6.1250,1699
6.1278,1729
6.1306,1837
6.1333,1836
6.1361,1720
6.1389,1650
6.1417,1580
6.1444,1549
6.1472,1568
6.1500,1700
6.1528,1801
6.1556,1762
6.1583,1732
6.1611,1691
6.1639,1603
6.1667,1491
6.1694,1554
6.1722,1670
6.1750,1663
6.1778,1680
6.1806,1747
6.1833,1770
6.1861,1719
6.1889,1750
6.1917,1798
6.1944,1741
6.1972,1662
6.2000,1673
6.2028,1701
6.2056,1693
6.2083,1725
6.2111,1791
6.2139,1716
6.2167,1627
6.2194,1636
6.2222,1650
6.2250,1652
6.2278,1663
6.2306,1745
6.2333,1694
6.2361,1602
6.2389,1604
6.2417,1654
6.2444,1663
6.2472,1654
6.2500,1733
6.2528,1735
6.2556,1630
6.2583,1612
6.2611,1638
6.2639,1627
6.2667,1606
6.2694,1661
6.2722,1697
6.2750,1622
6.2778,1588
6.2806,1585
6.2833,1620
6.2861,1651
6.2889,1729
6.2917,1799
6.2944,1757
6.2972,1708
6.3000,1718
6.3028,1680
6.3056,1614
6.3083,1630
6.3111,1719
6.3139,1704
6.3167,1645
6.3194,1678
6.3222,1698
6.3250,1651
6.3278,1626
6.3306,1679
6.3333,1663
6.3361,1571
6.3389,1554
6.3417,1585
6.3444,1604
6.3472,1614
6.3500,1696
6.3528,1689
6.3556,1612
6.3583,1647
6.3611,1721
6.3639,1728
6.3667,1688
6.3694,1722
6.3722,1742
6.3750,1655
6.3778,1604
6.3806,1631
6.3833,1633
6.3861,1632
6.3889,1705
6.3917,1772
6.3944,1726
6.3972,1656
6.4000,1658
6.4028,1646
6.4056,1613
6.4083,1613
6.4111,1683
6.4139,1685
6.4167,1670
6.4194,1745
6.4222,1768
6.4250,1724
6.4278,1654
6.4306,1713
6.4333,1709
6.4361,1664
6.4389,1706
6.4417,1747
6.4444,1713
6.4472,1651
6.4500,1688
6.4528,1707
6.4556,1672
6.4583,1714
6.4611,1768
6.4639,1733
6.4667,1673
6.4694,1738
6.4722,1818
6.4750,1751
6.4778,1700
6.4806,1743
6.4833,1795
6.4861,1808
6.4889,1871
6.4917,1930
6.4944,1848
6.4972,1769
6.5000,1796
6.5028,1785
6.5056,1713
6.5083,1683
6.5111,1726
6.5139,1699
6.5167,1643
6.5194,1700
6.5222,1719
6.5250,1685
6.5278,1658
6.5306,1694
6.5333,1672
6.5361,1601
6.5389,1624
6.5417,1656
6.5444,1643
6.5472,1587
6.5500,1626
6.5528,1654
6.5556,1609
6.5583,1648
6.5611,1735
6.5639,1740
6.5667,1657
6.5694,1629
6.5722,1665
6.5750,1664
6.5778,1706
6.5806,1773
6.5833,1746
6.5861,1678
6.5889,1660
6.5917,1648
6.5944,1590
6.5972,1539
6.6000,1613
6.6028,1695
6.6056,1728
6.6083,1757
6.6111,1893
6.6139,2025
6.6167,2199
6.6194,2498
6.6222,2742
6.6250,2784
6.6278,2607
6.6306,2355
6.6333,2041
6.6361,1771
6.6389,1692
6.6417,1722
6.6444,1768
6.6472,1785
6.6500,1859
6.6528,1850
6.6556,1711
6.6583,1623
6.6611,1608
6.6639,1584
6.6667,1504
6.6694,1530
6.6722,1596
6.6750,1607
6.6778,1687
6.6806,1826
6.6833,1887
6.6861,1849
6.6889,1783
6.6917,1752
6.6944,1663
6.6972,1615
6.7000,1683
6.7028,1731
6.7056,1728
6.7083,1708
6.7111,1710
6.7139,1644
6.7167,1565
6.7194,1610
6.7222,1665
6.7250,1669
6.7278,1637
6.7306,1650
6.7333,1609
6.7361,1542
6.7389,1590
6.7417,1670
6.7444,1704
6.7472,1663
6.7500,1658
6.7528,1675
6.7556,1627
6.7583,1646
6.7611,1700
6.7639,1737
6.7667,1749
6.7694,1773
6.7722,1780
6.7750,1704
6.7778,1665
6.7806,1726
6.7833,1765
6.7861,1745
6.7889,1723
6.7917,1722
6.7944,1676
6.7972,1668
6.8000,1734
6.8028,1765
6.8056,1714
6.8083,1680
6.8111,1738
6.8139,1761
6.8167,1671
6.8194,1728
6.8222,1812
6.8250,1845
6.8278,1879
6.8306,1920
6.8333,1831
6.8361,1717
6.8389,1699
6.8417,1714
6.8444,1701
6.8472,1716
6.8500,1797
6.8528,1780
6.8556,1685
6.8583,1662
6.8611,1649
6.8639,1626
6.8667,1611
6.8694,1726
6.8722,1758
6.8750,1657
6.8778,1587
6.8806,1557
6.8833,1523
6.8861,1503
6.8889,1610
6.8917,1679
6.8944,1610
6.8972,1566
6.9000,1580
6.9028,1559
6.9056,1550
6.9083,1626
6.9111,1716
6.9139,1637
6.9167,1550
6.9194,1541
6.9222,1502
6.9250,1435
6.9278,1482
6.9306,1614
6.9333,1642
6.9361,1576
6.9389,1579
6.9417,1558
6.9444,1508
6.9472,1513
6.9500,1616
6.9528,1617
6.9556,1531
6.9583,1510
6.9611,1477
6.9639,1409
6.9667,1392
6.9694,1520
6.9722,1618
6.9750,1553
6.9778,1537
6.9806,1541
6.9833,1502
6.9861,1457
6.9889,1544
6.9917,1631
6.9944,1565
6.9972,1509
7.0000,1484
7.0028,1421
7.0056,1370
7.0083,1446
7.0111,1565
7.0139,1524
7.0167,1451
7.0194,1448
7.0222,1396
7.0250,1362
7.0278,1400
7.0306,1518
7.0333,1515
7.0361,1473
7.0389,1505
7.0417,1483
7.0444,1404
7.0472,1388
7.0500,1491
7.0528,1525
7.0556,1448
7.0583,1470
7.0611,1467
7.0639,1420
7.0667,1378
7.0694,1423
7.0722,1431
7.0750,1340
7.0778,1347
7.0806,1412
7.0833,1392
7.0861,1320
7.0889,1364
7.0917,1438
7.0944,1402
7.0972,1397
7.1000,1435
7.1028,1388
7.1056,1320
7.1083,1365
7.1111,1450
7.1139,1391
7.1167,1325
7.1194,1337
7.1222,1334
7.1250,1292
7.1278,1298
7.1306,1378
7.1333,1383
7.1361,1346
7.1389,1418
7.1417,1449
7.1444,1390
7.1472,1339
7.1500,1389
7.1528,1385
7.1556,1300
7.1583,1311
7.1611,1341
7.1639,1338
7.1667,1294
7.1694,1345
7.1722,1374
7.1750,1306
7.1778,1302
7.1806,1341
7.1833,1336
7.1861,1297
7.1889,1342
7.1917,1405
7.1944,1362
7.1972,1349
7.2000,1421
7.2028,1414
7.2056,1342
7.2083,1331
7.2111,1382
7.2139,1322
7.2167,1267
7.2194,1320
7.2222,1349
7.2250,1312
7.2278,1296
7.2306,1335
7.2333,1284
7.2361,1193
7.2389,1215
7.2417,1261
7.2444,1255
7.2472,1227
7.2500,1263
7.2528,1242
7.2556,1157
7.2583,1169
7.2611,1199
7.2639,1199
7.2667,1164
7.2694,1206
7.2722,1226
7.2750,1177
7.2778,1180
7.2806,1226
7.2833,1226
7.2861,1178
7.2889,1169
7.2917,1158
7.2944,1097
7.2972,1095
7.3000,1181
7.3028,1229
7.3056,1209
7.3083,1193
7.3111,1201
7.3139,1129
7.3167,1082
7.3194,1110
7.3222,1148
7.3250,1124
7.3278,1113
7.3306,1189
7.3333,1226
7.3361,1222
7.3389,1335
7.3417,1518
7.3444,1699
7.3472,1865
7.3500,2050
7.3528,2079
7.3556,1912
7.3583,1739
7.3611,1599
7.3639,1454
7.3667,1323
7.3694,1294
7.3722,1293
7.3750,1241
7.3778,1235
7.3806,1263
7.3833,1243
7.3861,1176
7.3889,1166
7.3917,1163
7.3944,1100
7.3972,1094
7.4000,1166
7.4028,1203
7.4056,1159
7.4083,1129
7.4111,1124
7.4139,1071
7.4167,1046
7.4194,1133
7.4222,1212
7.4250,1219
7.4278,1196
7.4306,1186
7.4333,1142
7.4361,1096
7.4389,1142
7.4417,1209
7.4444,1183
7.4472,1106
7.4500,1096
7.4528,1096
7.4556,1054
7.4583,1119
7.4611,1209
7.4639,1233
7.4667,1184
7.4694,1187
7.4722,1185
7.4750,1151
7.4778,1167
7.4806,1220
7.4833,1212
7.4861,1172
7.4889,1191
7.4917,1230
7.4944,1190
7.4972,1183
7.5000,1260
7.5028,1292
7.5056,1234
7.5083,1192
7.5111,1206
7.5139,1192
7.5167,1182
7.5194,1268
7.5222,1338
7.5250,1330
7.5278,1288
7.5306,1281
7.5333,1237
7.5361,1200
7.5389,1249
7.5417,1187
7.5444,1372
7.5472,1411
7.5500,1463
7.5528,1411
7.5556,1308
7.5583,1308
7.5611,1353
7.5639,1376
7.5667,1415
7.5694,1464
7.5722,1423
7.5750,1312
7.5778,1269
7.5806,1288
7.5833,1311
7.5861,1340
7.5889,1402
7.5917,1381
7.5944,1264
7.5972,1216
7.6000,1241
7.6028,1279
7.6056,1305
7.6083,1367
7.6111,1392
7.6139,1304
7.6167,1242
7.6194,1262
7.6222,1264
7.6250,1273
7.6278,1320
7.6306,1374
7.6333,1319
7.6361,1261
7.6389,1282
7.6417,1291
7.6444,1294
7.6472,1294
7.6500,1348
7.6528,1296
7.6556,1225
7.6583,1261
7.6611,1310
7.6639,1316
7.6667,1311
7.6694,1378
7.6722,1369
7.6750,1289
7.6778,1277
7.6806,1328
7.6833,1351
7.6861,1322
7.6889,1366
7.6917,1393
7.6944,1343
7.6972,1335
7.7000,1382
7.7028,1401
7.7056,1384
7.7083,1404
7.7111,1420
7.7139,1354
7.7167,1331
7.7194,1361
7.7222,1384
7.7250,1365
7.7278,1393
7.7306,1432
7.7333,1393
7.7361,1333
7.7389,1344
7.7417,1378
7.7444,1364
7.7472,1360
7.7500,1410
7.7528,1407
7.7556,1351
7.7583,1393
7.7611,1440
7.7639,1420
7.7667,1409
7.7694,1487
7.7722,1497
7.7750,1423
7.7778,1423
7.7806,1449
7.7833,1448
7.7861,1426
7.7889,1466
7.7917,1483
7.7944,1427
7.7972,1403
7.8000,1442
7.8028,1475
7.8056,1446
7.8083,1480
7.8111,1524
7.8139,1489
7.8167,1484
7.8194,1512
7.8222,1546
7.8250,1514
7.8278,1485
7.8306,1517
7.8333,1509
7.8361,1523
7.8389,1592
7.8417,1637
7.8444,1606
7.8472,1575
7.8500,1616
7.8528,1592
7.8556,1557
7.8583,1621
7.8611,1646
7.8639,1637
7.8667,1627
7.8694,1680
7.8722,1676
7.8750,1617
7.8778,1607
7.8806,1620
7.8833,1594
7.8861,1562
7.8889,1603
7.8917,1631
7.8944,1566
7.8972,1553
7.9000,1579
7.9028,1585
7.9056,1569
7.9083,1587
7.9111,1628
7.9139,1580
7.9167,1534
7.9194,1597
7.9222,1635
7.9250,1618
7.9278,1603
7.9306,1632
7.9333,1577
7.9361,1536
7.9389,1600
7.9417,1651
7.9444,1649
7.9472,1642
7.9500,1696
7.9528,1661
7.9556,1595
7.9583,1600
7.9611,1629
7.9639,1626
7.9667,1623
7.9694,1673
7.9722,1672
7.9750,1590
7.9778,1561
7.9806,1595
7.9833,1613
7.9861,1613
7.9889,1690
7.9917,1792
7.9944,1841
7.9972,1980
8.0000,2200
8.0028,2385
8.0056,2485
8.0083,2532
8.0111,2436
8.0139,2199
8.0167,2013
8.0194,1966
8.0222,1908
8.0250,1818
8.0278,1777
8.0306,1810
8.0333,1809
8.0361,1796
8.0389,1830
8.0417,1816
8.0444,1740
8.0472,1674
8.0500,1701
8.0528,1697
8.0556,1671
8.0583,1725
8.0611,1764
8.0639,1764
8.0667,1718
8.0694,1735
8.0722,1736
8.0750,1679
8.0778,1691
8.0806,1717
8.0833,1689
8.0861,1654
8.0889,1683
8.0917,1742
8.0944,1722
8.0972,1727
8.1000,1768
8.1028,1766
8.1056,1725
8.1083,1722
8.1111,1778
8.1139,1757
8.1167,1745
8.1194,1787
8.1222,1778
8.1250,1745
8.1278,1746
8.1306,1811
8.1333,1817
8.1361,1774
8.1389,1773
8.1417,1788
8.1444,1784
8.1472,1783
8.1500,1862
8.1528,1871
8.1556,1814
8.1583,1838
8.1611,1863
8.1639,1860
8.1667,1826
8.1694,1865
8.1722,1901
8.1750,1848
8.1778,1843
8.1806,1879
8.1833,1868
8.1861,1825
8.1889,1852
8.1917,1909
8.1944,1911
8.1972,1687
8.2000,1847
8.2028,1847
8.2056,1859
8.2083,1958
8.2111,1992
8.2139,1907
8.2167,1865
8.2194,1871
8.2222,1872
8.2250,1841
8.2278,1898
8.2306,1938
8.2333,1871
8.2361,1811
8.2389,1815
8.2417,1848
8.2444,1831
8.2472,1856
8.2500,1902
8.2528,1849
8.2556,1787
8.2583,1808
8.2611,1830
8.2639,1814
8.2667,1827
8.2694,1869
8.2722,1831
8.2750,1747
8.2778,1761
8.2806,1783
8.2833,1772
8.2861,1773
8.2889,1858
8.2917,1879
8.2944,1815
8.2972,1776
8.3000,1783
8.3028,1777
8.3056,1752
8.3083,1822
8.3111,1869
8.3139,1798
8.3167,1736
8.3194,1741
8.3222,1779
8.3250,1798
8.3278,1861
8.3306,1890
8.3333,1824
8.3361,1763
8.3389,1789
8.3417,1821
8.3444,1833
8.3472,1843
8.3500,1895
8.3528,1853
8.3556,1793
8.3583,1803
8.3611,1845
8.3639,1857
8.3667,1849
8.3694,1884
8.3722,1835
8.3750,1760
8.3778,1773
8.3806,1821
8.3833,1842
8.3861,1848
8.3889,1908
8.3917,1906
8.3944,1843
8.3972,1831
8.4000,1844
8.4028,1837
8.4056,1802
8.4083,1816
8.4111,1823
8.4139,1803
8.4167,1821
8.4194,1863
8.4222,1881
8.4250,1834
8.4278,1859
8.4306,1896
8.4333,1854
8.4361,1826
8.4389,1846
8.4417,1860
8.4444,1824
8.4472,1825
8.4500,1876
8.4528,1859
8.4556,1817
8.4583,1835
8.4611,1845
8.4639,1818
8.4667,1814
8.4694,1887
8.4722,1872
8.4750,1817
8.4778,1825
8.4806,1855
8.4833,1836
8.4861,1816
8.4889,1870
8.4917,1904
8.4944,1868
8.4972,1877
8.5000,1899
8.5028,1896
8.5056,1888
8.5083,1922
8.5111,1916
8.5139,1861
8.5167,1880
8.5194,1955
8.5222,1981
8.5250,1959
8.5278,1958
8.5306,1961
8.5333,1895
8.5361,1855
8.5389,1897
8.5417,1917
8.5444,1887
8.5472,1870
8.5500,1913
8.5528,1897
8.5556,1864
8.5583,1883
8.5611,1890
8.5639,1846
8.5667,1809
8.5694,1863
8.5722,1889
8.5750,1862
8.5778,1904
8.5806,1933
8.5833,1912
8.5861,1869
8.5889,1893
8.5917,1891
8.5944,1802
8.5972,1753
8.6000,1725
8.6028,1684
8.6056,1646
8.6083,1714
8.6111,1795
8.6139,1778
8.6167,1776
8.6194,1798
8.6222,1766
8.6250,1723
8.6278,1764
8.6306,1811
8.6333,1762
8.6361,1714
8.6389,1739
8.6417,1731
8.6444,1719
8.6472,1750
8.6500,1834
8.6528,1896
8.6556,1967
8.6583,2181
8.6611,2427
8.6639,2604
8.6667,2693
8.6694,2760
8.6722,2647
8.6750,2394
8.6778,2207
8.6806,2083
8.6833,1978
8.6861,1889
8.6889,1910
8.6917,1940
8.6944,1909
8.6972,1930
8.7000,1949
8.7028,1919
8.7056,1859
8.7083,1878
8.7111,1908
8.7139,1871
8.7167,1847
8.7194,1886
8.7222,1883
8.7250,1806
8.7278,1784
8.7306,1799
8.7333,1773
8.7361,1796
8.7389,1858
8.7417,1844
8.7444,1738
8.7472,1623
8.7500,1571
8.7528,1488
8.7556,1433
8.7583,1483
8.7611,1522
8.7639,1522
8.7667,1485
8.7694,1524
8.7722,1521
8.7750,1488
8.7778,1524
8.7806,1567
8.7833,1565
8.7861,1534
8.7889,1568
8.7917,1608
8.7944,1593
8.7972,1668
8.8000,1742
8.8028,1768
8.8056,1757
8.8083,1759
8.8111,1784
8.8139,1773
8.8167,1801
8.8194,1881
8.8222,1918
8.8250,1905
8.8278,1895
8.8306,1930
8.8333,1900
8.8361,1878
8.8389,1924
8.8417,1928
8.8444,1900
8.8472,1904
8.8500,1993
8.8528,2016
8.8556,1984
8.8583,1806
8.8611,1987
8.8639,1998
8.8667,2043
8.8694,2096
8.8722,2037
8.8750,1971
8.8778,1964
8.8806,1976
8.8833,1954
8.8861,1962
8.8889,2003
8.8917,1958
8.8944,1866
8.8972,1893
8.9000,1931
8.9028,1956
8.9056,1965
8.9083,2009
8.9111,2002
8.9139,1901
8.9167,1880
8.9194,1885
8.9222,1879
8.9250,1886
8.9278,1941
8.9306,1958
8.9333,1867
8.9361,1808
8.9389,1803
8.9417,1799
8.9444,1792
8.9472,1840
8.9500,1891
8.9528,1856
8.9556,1821
8.9583,1845
8.9611,1849
8.9639,1820
8.9667,1847
8.9694,1914
8.9722,1897
8.9750,1824
8.9778,1817
8.9806,1806
8.9833,1803
8.9861,1831
8.9889,1867
8.9917,1776
8.9944,1662
8.9972,1679
9.0000,1743
9.0028,1788
9.0056,1824
9.0083,1883
9.0111,1888
9.0139,1798
9.0167,1769
9.0194,1777
9.0222,1773
9.0250,1796
9.0278,1853
9.0306,1889
9.0333,1846
9.0361,1834
9.0389,1871
9.0417,1864
9.0444,1827
9.0472,1842
9.0500,1876
9.0528,1852
9.0556,1819
9.0583,1863
9.0611,1871
9.0639,1872
9.0667,1882
9.0694,1918
9.0722,1858
9.0750,1768
9.0778,1777
9.0806,1798
9.0833,1785
9.0861,1805
9.0889,1889
9.0917,1923
9.0944,1899
9.0972,1913
9.1000,1921
9.1028,1908
9.1056,1865
9.1083,1891
9.1111,1904
9.1139,1832
9.1167,1807
9.1194,1803
9.1222,1792
9.1250,1782
9.1278,1831
9.1306,1872
9.1333,1835
9.1361,1817
9.1389,1843
9.1417,1843
9.1444,1816
9.1472,1830
9.1500,1883
9.1528,1859
9.1556,1835
9.1583,1858
9.1611,1863
9.1639,1826
9.1667,1845
9.1694,1919
9.1722,1930
9.1750,1926
9.1778,1975
9.1806,1997
9.1833,1976
9.1861,1908
9.1889,1885
9.1917,1826
9.1944,1769
9.1972,1808
9.2000,1835
9.2028,1840
9.2056,1838
9.2083,1892
9.2111,1912
9.2139,1861
9.2167,1856
9.2194,1867
9.2222,1847
9.2250,1820
9.2278,1868
9.2306,1906
9.2333,1851
9.2361,1838
9.2389,1872
9.2417,1836
9.2444,1789
9.2472,1804
9.2500,1838
9.2528,1811
9.2556,1752
9.2583,1756
9.2611,1739
9.2639,1700
9.2667,1754
9.2694,1876
9.2722,1894
9.2750,1846
9.2778,1871
9.2806,1850
9.2833,1762
9.2861,1717
9.2889,1762
9.2917,1765
9.2944,1720
9.2972,1737
9.3000,1752
9.3028,1715
9.3056,1683
9.3083,1739
9.3111,1735
9.3139,1660
9.3167,1674
9.3194,1751
9.3222,1781
9.3250,1777
9.3278,1840
9.3306,1914
9.3333,1955
9.3361,2082
9.3389,2303
9.3417,2548
9.3444,2666
9.3472,2705
9.3500,2620
9.3528,2409
9.3556,2173
9.3583,2053
9.3611,1964
9.3639,1872
9.3667,1827
9.3694,1870
9.3722,1850
9.3750,1834
9.3778,1875
9.3806,1867
9.3833,1806
9.3861,1745
9.3889,1761
9.3917,1766
9.3944,1733
9.3972,1766
9.4000,1808
9.4028,1774
9.4056,1742
9.4083,1785
9.4111,1816
9.4139,1778
9.4167,1791
9.4194,1828
9.4222,1822
9.4250,1754
9.4278,1730
9.4306,1735
9.4333,1673
9.4361,1668
9.4389,1729
9.4417,1757
9.4444,1705
9.4472,1679
9.4500,1737
9.4528,1756
9.4556,1770
9.4583,1821
9.4611,1822
9.4639,1780
9.4667,1734
9.4694,1768
9.4722,1751
9.4750,1726
9.4778,1782
9.4806,1792
9.4833,1757
9.4861,1705
9.4889,1739
9.4917,1755
9.4944,1742
9.4972,1794
9.5000,1823
9.5028,1805
9.5056,1758
9.5083,1800
9.5111,1827
9.5139,1795
9.5167,1784
9.5194,1823
9.5222,1785
9.5250,1747
9.5278,1787
9.5306,1859
9.5333,1841
9.5361,1806
9.5389,1944
9.5417,1928
9.5444,1910
9.5472,1945
9.5500,1951
9.5528,1861
9.5556,1801
9.5583,1813
9.5611,1823
9.5639,1841
9.5667,1926
9.5694,1979
9.5722,1905
9.5750,1824
9.5778,1799
9.5806,1770
9.5833,1754
9.5861,1820
9.5889,1897
9.5917,1863
9.5944,1779
9.5972,1760
9.6000,1727
9.6028,1707
9.6056,1757
9.6083,1860
9.6111,1848
9.6139,1741
9.6167,1658
9.6194,1614
9.6222,1576
9.6250,1631
9.6278,1794
9.6306,1879
9.6333,1836
9.6361,1810
9.6389,1791
9.6417,1725
9.6444,1685
9.6472,1731
9.6500,1757
9.6528,1710
9.6556,1693
9.6583,1737
9.6611,1721
9.6639,1688
9.6667,1751
9.6694,1820
9.6722,1796
9.6750,1750
9.6778,1759
9.6806,1744
9.6833,1710
9.6861,1732
9.6889,1764
9.6917,1692
9.6944,1604
9.6972,1594
9.7000,1600
9.7028,1625
9.7056,1696
9.7083,1809
9.7111,1801
9.7139,1718
9.7167,1704
9.7194,1696
9.7222,1659
9.7250,1649
9.7278,1716
9.7306,1751
9.7333,1704
9.7361,1703
9.7389,1722
9.7417,1695
9.7444,1681
9.7472,1751
9.7500,1796
9.7528,1723
9.7556,1689
9.7583,1722
9.7611,1694
9.7639,1672
9.7667,1708
9.7694,1767
9.7722,1711
9.7750,1672
9.7778,1718
9.7806,1715
9.7833,1676
9.7861,1692
9.7889,1736
9.7917,1703
9.7944,1675
9.7972,1740
9.8000,1773
9.8028,1745
9.8056,1722
9.8083,1765
9.8111,1753
9.8139,1695
9.8167,1704
9.8194,1709
9.8222,1694
9.8250,1685
9.8278,1763
9.8306,1803
9.8333,1750
9.8361,1759
9.8389,1788
9.8417,1780
9.8444,1761
9.8472,1832
9.8500,1875
9.8528,1822
9.8556,1788
9.8583,1795
9.8611,1750
9.8639,1698
9.8667,1748
9.8694,1819
9.8722,1816
9.8750,1787
9.8778,1796
9.8806,1751
9.8833,1681
9.8861,1667
9.8889,1717
9.8917,1689
9.8944,1648
9.8972,1680
9.9000,1697
9.9028,1654
9.9056,1652
9.9083,1725
9.9111,1727
9.9139,1687
9.9167,1708
9.9194,1730
9.9222,1698
9.9250,1651
9.9278,1687
9.9306,1691
9.9333,1639
9.9361,1664
9.9389,1720
9.9417,1699
9.9444,1662
9.9472,1688
9.9500,1730
9.9528,1705
9.9556,1715
9.9583,1753
9.9611,1727
9.9639,1654
9.9667,1658
9.9694,1690
9.9722,1663
9.9750,1661
9.9778,1719
9.9806,1748
9.9833,1747
9.9861,1850
9.9889,2025
9.9917,2201
9.9944,2383
9.9972,2619
10.0000,2723
10.0028,2614
10.0056,2404
10.0083,2226
10.0111,2055
10.0139,1899
10.0167,1857
10.0194,1866
10.0222,1829
10.0250,1799
10.0278,1845
10.0306,1857
10.0333,1778
10.0361,1759
10.0389,1775
10.0417,1733
10.0444,1680
10.0472,1712
10.0500,1768
10.0528,1723
10.0556,1696
10.0583,1712
10.0611,1664
10.0639,1602
10.0667,1652
10.0694,1762
10.0722,1764
10.0750,1739
10.0778,1783
10.0806,1775
10.0833,1713
10.0861,1685
10.0889,1729
10.0917,1691
10.0944,1642
10.0972,1665
10.1000,1694
10.1028,1676
10.1056,1670
10.1083,1766
10.1111,1789
10.1139,1722
10.1167,1742
10.1194,1756
10.1222,1729
10.1250,1692
10.1278,1733
10.1306,1753
10.1333,1703
10.1361,1701
10.1389,1754
10.1417,1739
10.1444,1704
10.1472,1761
10.1500,1804
10.1528,1765
10.1556,1739
10.1583,1772
10.1611,1760
10.1639,1736
10.1667,1745
10.1694,1800
10.1722,1792
10.1750,1753
10.1778,1800
10.1806,1805
10.1833,1760
10.1861,1765
10.1889,2108
10.1917,1915
10.1944,1803
10.1972,1781
10.2000,1761
10.2028,1757
10.2056,1833
10.2083,1911
10.2111,1861
10.2139,1769
10.2167,1760
10.2194,1737
10.2222,1697
10.2250,1737
10.2278,1818
10.2306,1790
10.2333,1704
10.2361,1697
10.2389,1710
10.2417,1667
10.2444,1670
10.2472,1756
10.2500,1770
10.2528,1679
10.2556,1640
10.2583,1665
10.2611,1650
10.2639,1659
10.2667,1738
10.2694,1759
10.2722,1677
10.2750,1637
10.2778,1668
10.2806,1651
10.2833,1621
10.2861,1675
10.2889,1723
10.2917,1657
10.2944,1602
10.2972,1621
10.3000,1629
10.3028,1602
10.3056,1644
10.3083,1718
10.3111,1706
10.3139,1651
10.3167,1641
10.3194,1635
10.3222,1625
10.3250,1659
10.3278,1744
10.3306,1732
10.3333,1662
10.3361,1659
10.3389,1691
10.3417,1663
10.3444,1639
10.3472,1683
10.3500,1682
10.3528,1638
10.3556,1653
10.3583,1709
10.3611,1688
10.3639,1669
10.3667,1708
10.3694,1714
10.3722,1624
10.3750,1593
10.3778,1648
10.3806,1664
10.3833,1651
10.3861,1707
10.3889,1758
10.3917,1701
10.3944,1650
10.3972,1672
10.4000,1664
10.4028,1658
10.4056,1684
10.4083,1733
10.4111,1687
10.4139,1629
10.4167,1670
10.4194,1697
10.4222,1688
10.4250,1708
10.4278,1769
10.4306,1736
10.4333,1650
10.4361,1656
10.4389,1682
10.4417,1660
10.4444,1646
10.4472,1714
10.4500,1717
10.4528,1634
10.4556,1622
10.4583,1652
10.4611,1629
10.4639,1598
10.4667,1654
10.4694,1688
10.4722,1675
10.4750,1700
10.4778,1766
10.4806,1770
10.4833,1732
10.4861,1759
10.4889,1792
10.4917,1743
10.4944,1701
10.4972,1743
10.5000,1748
10.5028,1720
10.5056,1742
10.5083,1817
10.5111,1793
10.5139,1736
10.5167,1768
10.5194,1785
10.5222,1746
10.5250,1735
10.5278,1794
10.5306,1788
10.5333,1727
10.5361,1734
10.5389,1771
10.5417,1756
10.5444,1729
10.5472,1783
10.5500,1772
10.5528,1678
10.5556,1645
10.5583,1664
10.5611,1657
10.5639,1642
10.5667,1717
10.5694,1751
10.5722,1699
10.5750,1670
10.5778,1681
10.5806,1654
10.5833,1626
10.5861,1659
10.5889,1731
10.5917,1706
10.5944,1662
10.5972,1671
10.6000,1663
10.6028,1619
10.6056,1607
10.6083,1663
10.6111,1649
10.6139,1626
10.6167,1680
10.6194,1725
10.6222,1702
10.6250,1678
10.6278,1723
10.6306,1691
10.6333,1622
10.6361,1639
10.6389,1652
10.6417,1625
10.6444,1612
10.6472,1710
10.6500,1766
10.6528,1753
10.6556,1830
10.6583,2004
10.6611,2173
10.6639,2345
10.6667,2565
10.6694,2693
10.6722,2624
10.6750,2432
10.6778,2219
10.6806,1974
10.6833,1775
10.6861,1717
10.6889,1745
10.6917,1742
10.6944,1737
10.6972,1813
10.7000,1824
10.7028,1765
10.7056,1730
10.7083,1748
10.7111,1733
10.7139,1677
10.7167,1706
10.7194,1717
10.7222,1672
10.7250,1639
10.7278,1678
10.7306,1678
10.7333,1638
10.7361,1681
10.7389,1731
10.7417,1710
10.7444,1659
10.7472,1693
10.7500,1694
10.7528,1631
10.7556,1637
10.7583,1691
10.7611,1693
10.7639,1660
10.7667,1679
10.7694,1685
10.7722,1624
10.7750,1634
10.7778,1706
10.7806,1725
10.7833,1697
10.7861,1699
10.7889,1747
10.7917,1726
10.7944,1702
10.7972,1744
10.8000,1757
10.8028,1713
10.8056,1684
10.8083,1727
10.8111,1687
10.8139,1653
10.8167,1722
10.8194,1775
10.8222,1751
10.8250,1735
10.8278,1781
10.8306,1771
10.8333,1726
10.8361,1765
10.8389,1812
10.8417,1781
10.8444,1725
10.8472,1754
10.8500,1762
10.8528,1709
10.8556,1746
10.8583,1608
10.8611,1797
10.8639,1829
10.8667,1889
10.8694,1848
10.8722,1734
10.8750,1708
10.8778,1752
10.8806,1770
10.8833,1811
10.8861,1918
10.8889,1924
10.8917,1809
10.8944,1742
10.8972,1740
10.9000,1716
10.9028,1692
10.9056,1741
10.9083,1780
10.9111,1730
10.9139,1676
10.9167,1698
10.9194,1688
10.9222,1659
10.9250,1702
10.9278,1759
10.9306,1716
10.9333,1626
10.9361,1624
10.9389,1625
10.9417,1609
10.9444,1634
10.9472,1719
10.9500,1692
10.9528,1606
10.9556,1611
10.9583,1635
10.9611,1630
10.9639,1653
10.9667,1707
10.9694,1684
10.9722,1610
10.9750,1620
10.9778,1665
10.9806,1662
10.9833,1655
10.9861,1719
10.9889,1733
10.9917,1667
10.9944,1631
10.9972,1661
11.0000,1653
11.0028,1638
11.0056,1703
11.0083,1754
11.0111,1683
11.0139,1609
11.0167,1623
11.0194,1626
11.0222,1652
11.0250,1699
11.0278,1745
11.0306,1687
11.0333,1611
11.0361,1629
11.0389,1653
11.0417,1640
11.0444,1648
11.0472,1725
11.0500,1710
11.0528,1659
11.0556,1667
11.0583,1673
11.0611,1642
11.0639,1641
11.0667,1727
11.0694,1747
11.0722,1678
11.0750,1661
11.0778,1667
11.0806,1645
11.0833,1615
11.0861,1665
11.0889,1696
11.0917,1647
11.0944,1647
11.0972,1699
11.1000,1698
11.1028,1670
11.1056,1698
11.1083,1731
11.1111,1698
11.1139,1658
11.1167,1696
11.1194,1696
11.1222,1658
11.1250,1665
11.1278,1717
11.1306,1688
11.1333,1626
11.1361,1652
11.1389,1671
11.1417,1660
11.1444,1678
11.1472,1740
11.1500,1715
11.1528,1652
11.1556,1668
11.1583,1698
11.1611,1669
11.1639,1659
11.1667,1715
11.1694,1733
11.1722,1675
11.1750,1683
11.1778,1730
11.1806,1703
11.1833,1678
11.1861,1708
11.1889,1732
11.1917,1693
11.1944,1688
11.1972,1722
11.2000,1708
11.2028,1675
11.2056,1694
11.2083,1746
11.2111,1717
11.2139,1694
11.2167,1719
11.2194,1711
11.2222,1658
11.2250,1670
11.2278,1717
11.2306,1715
11.2333,1694
11.2361,1752
11.2389,1775
11.2417,1727
11.2444,1690
11.2472,1723
11.2500,1708
11.2528,1653
11.2556,1697
11.2583,1744
11.2611,1743
11.2639,1739
11.2667,1801
11.2694,1825
11.2722,1757
11.2750,1766
11.2778,1801
11.2806,1758
11.2833,1716
11.2861,1746
11.2889,1807
11.2917,1784
11.2944,1783
11.2972,1840
11.3000,1835
11.3028,1804
11.3056,1816
11.3083,1856
11.3111,1789
11.3139,1718
11.3167,1713
11.3194,1693
11.3222,1673
11.3250,1693
11.3278,1755
11.3306,1759
11.3333,1715
11.3361,1745
11.3389,1743
11.3417,1680
11.3444,1648
11.3472,1696
11.3500,1717
11.3528,1680
11.3556,1690
11.3583,1707
11.3611,1667
11.3639,1650
11.3667,1724
11.3694,1752
11.3722,1703
11.3750,1705
11.3778,1744
11.3806,1730
11.3833,1683
11.3861,1709
11.3889,1727
11.3917,1698
11.3944,1692
11.3972,1739
11.4000,1705
11.4028,1636
11.4056,1619
11.4083,1624
11.4111,1590
11.4139,1578
11.4167,1657
11.4194,1711
11.4222,1714
11.4250,1762
11.4278,1919
11.4306,2088
11.4333,2282
11.4361,2542
11.4389,2723
11.4417,2701
11.4444,2508
11.4472,2284
11.4500,2047
11.4528,1841
11.4556,1778
11.4583,1762
11.4611,1717
11.4639,1689
11.4667,1769
11.4694,1814
11.4722,1765
11.4750,1735
11.4778,1749
11.4806,1708
11.4833,1647
11.4861,1678
11.4889,1719
11.4917,1682
11.4944,1665
11.4972,1700
11.5000,1704
11.5028,1656
11.5056,1657
11.5083,1694
11.5111,1675
11.5139,1643
11.5167,1692
11.5194,1704
11.5222,1657
11.5250,1645
11.5278,1689
11.5306,1685
11.5333,1653
11.5361,1697
11.5389,1725
11.5417,1694
11.5444,1673
11.5472,1725
11.5500,1730
11.5528,1685
11.5556,1709
11.5583,1737
11.5611,1713
11.5639,1680
11.5667,1733
11.5694,1759
11.5722,1705
11.5750,1714
11.5778,1770
11.5806,1755
11.5833,1713
11.5861,1732
11.5889,1770
11.5917,1729
11.5944,1710
11.5972,1758
11.6000,1769
11.6028,1728
11.6056,1729
11.6083,1777
11.6111,1771
11.6139,1769
11.6167,1833
11.6194,1827
11.6222,1760
11.6250,1746
11.6278,1788
11.6306,1826
11.6333,1756
11.6361,1785
11.6389,1819
11.6417,1839
11.6444,1876
11.6472,1909
11.6500,1858
11.6528,1753
11.6556,1739
11.6583,1749
11.6611,1764
11.6639,1789
11.6667,1854
11.6694,1825
11.6722,1721
11.6750,1681
11.6778,1673
11.6806,1677
11.6833,1700
11.6861,1795
11.6889,1809
11.6917,1730
11.6944,1691
11.6972,1695
11.7000,1686
11.7028,1684
11.7056,1734
11.7083,1751
11.7111,1654
11.7139,1583
11.7167,1601
11.7194,1642
11.7222,1654
11.7250,1697
11.7278,1749
11.7306,1710
11.7333,1669
11.7361,1692
11.7389,1710
11.7417,1699
11.7444,1701
11.7472,1714
11.7500,1673
11.7528,1612
11.7556,1637
11.7583,1643
11.7611,1639
11.7639,1625
11.7667,1677
11.7694,1675
11.7722,1635
11.7750,1655
11.7778,1699
11.7806,1701
11.7833,1679
11.7861,1693
11.7889,1688
11.7917,1626
11.7944,1641
11.7972,1692
11.8000,1723
11.8028,1714
11.8056,1725
11.8083,1733
11.8111,1666
11.8139,1625
11.8167,1664
11.8194,1684
11.8222,1691
11.8250,1718
11.8278,1755
11.8306,1701
11.8333,1648
11.8361,1660
11.8389,1685
11.8417,1683
11.8444,1696
11.8472,1749
11.8500,1725
11.8528,1656
11.8556,1678
11.8583,1682
11.8611,1669
11.8639,1673
11.8667,1734
11.8694,1732
11.8722,1652
11.8750,1657
11.8778,1689
11.8806,1724
11.8833,1729
11.8861,1776
11.8889,1771
11.8917,1691
11.8944,1660
11.8972,1677
11.9000,1659
11.9028,1633
11.9056,1681
11.9083,1727
11.9111,1685
11.9139,1672
11.9167,1699
11.9194,1692
11.9222,1668
11.9250,1688
11.9278,1725
11.9306,1688
11.9333,1662
11.9361,1698
11.9389,1707
11.9417,1681
11.9444,1674
11.9472,1741
11.9500,1723
11.9528,1691
11.9556,1700
11.9583,1712
11.9611,1708
11.9639,1689
11.9667,1735
11.9694,1742
11.9722,1698
11.9750,1725
11.9778,1750
11.9806,1748
11.9833,1711
11.9861,1743
11.9889,1775
11.9917,1749
11.9944,1755
11.9972,1798
12.0000,1793
12.0028,1748
12.0056,1771
12.0083,1809
12.0111,1778
12.0139,1769
12.0167,1830
12.0194,1843
12.0222,1812
12.0250,1809
12.0278,1832
12.0306,1777
12.0333,1736
12.0361,1768
12.0389,1761
12.0417,1714
12.0444,1701
12.0472,1753
12.0500,1746
12.0528,1693
12.0556,1724
12.0583,1745
12.0611,1727
12.0639,1689
12.0667,1732
12.0694,1732
12.0722,1685
12.0750,1688
12.0778,1702
12.0806,1687
12.0833,1653
12.0861,1706
12.0889,1742
12.0917,1691
12.0944,1675
12.0972,1701
12.1000,1710
12.1028,1674
12.1056,1705
12.1083,1763
12.1111,1729
12.1139,1716
12.1167,1734
12.1194,1723
12.1222,1672
12.1250,1641
12.1278,1687
12.1306,1668
12.1333,1616
12.1361,1643
12.1389,1700
12.1417,1738
12.1444,1781
12.1472,1883
12.1500,1977
12.1528,2085
12.1556,2306
12.1583,2536
12.1611,2657
12.1639,2645
12.1667,2570
12.1694,2348
12.1722,2071
12.1750,1932
12.1778,1879
12.1806,1825
12.1833,1734
12.1861,1778
12.1889,1847
12.1917,1825
12.1944,1838
12.1972,1830
12.2000,1774
12.2028,1704
12.2056,1704
12.2083,1752
12.2111,1725
12.2139,1703
12.2167,1732
12.2194,1721
12.2222,1674
12.2250,1669
12.2278,1721
12.2306,1705
12.2333,1707
12.2361,1736
12.2389,1734
12.2417,1713
12.2444,1694
12.2472,1733
12.2500,1734
12.2528,1688
12.2556,1718
12.2583,1743
12.2611,1721
12.2639,1675
12.2667,1710
12.2694,1722
12.2722,1689
12.2750,1731
12.2778,1755
12.2806,1729
12.2833,1653
12.2861,1694
12.2889,1737
12.2917,1737
12.2944,1736
12.2972,1772
12.3000,1767
12.3028,1748
12.3056,1764
12.3083,1793
12.3111,1763
12.3139,1745
12.3167,1777
12.3194,1776
12.3222,1743
12.3250,1745
12.3278,1795
12.3306,1788
12.3333,1757
12.3361,1783
12.3389,1786
12.3417,1740
12.3444,1711
12.3472,1772
12.3500,1805
12.3528,1670
12.3556,1755
12.3583,1776
12.3611,1784
12.3639,1810
12.3667,1867
12.3694,1848
12.3722,1785
12.3750,1793
12.3778,1799
12.3806,1806
12.3833,1827
12.3861,1898
12.3889,1854
12.3917,1747
12.3944,1706
12.3972,1719
12.4000,1729
12.4028,1719
12.4056,1777
12.4083,1783
12.4111,1692
12.4139,1631
12.4167,1626
12.4194,1615
12.4222,1600
12.4250,1676
12.4278,1737
12.4306,1694
12.4333,1659
12.4361,1674
12.4389,1657
12.4417,1622
12.4444,1654
12.4472,1718
12.4500,1689
12.4528,1632
12.4556,1638
12.4583,1647
12.4611,1637
12.4639,1657
12.4667,1718
12.4694,1694
12.4722,1626
12.4750,1631
12.4778,1631
12.4806,1621
12.4833,1614
12.4861,1680
12.4889,1697
12.4917,1640
12.4944,1637
12.4972,1629
12.5000,1609
12.5028,1600
12.5056,1686
12.5083,1704
12.5111,1620
12.5139,1595
12.5167,1619
12.5194,1618
12.5222,1607
12.5250,1682
12.5278,1742
12.5306,1698
12.5333,1661
12.5361,1669
12.5389,1657
12.5417,1645
12.5444,1668
12.5472,1708
12.5500,1654
12.5528,1606
12.5556,1627
12.5583,1650
12.5611,1643
12.5639,1656
12.5667,1707
12.5694,1680
12.5722,1609
12.5750,1620
12.5778,1634
12.5806,1624
12.5833,1626
12.5861,1688
12.5889,1695
12.5917,1636
12.5944,1623
12.5972,1640
12.6000,1616
12.6028,1606
12.6056,1676
12.6083,1717
12.6111,1664
12.6139,1629
12.6167,1613
12.6194,1596
12.6222,1584
12.6250,1653
12.6278,1712
12.6306,1664
12.6333,1630
12.6361,1672
12.6389,1653
12.6417,1611
12.6444,1632
12.6472,1676
12.6500,1654
12.6528,1613
12.6556,1644
12.6583,1649
12.6611,1635
12.6639,1641
12.6667,1700
12.6694,1679
12.6722,1617
12.6750,1630
12.6778,1668
12.6806,1669
12.6833,1680
12.6861,1732
12.6889,1737
12.6917,1692
12.6944,1715
12.6972,1740
12.7000,1724
12.7028,1690
12.7056,1724
12.7083,1748
12.7111,1695
12.7139,1689
12.7167,1725
12.7194,1712
12.7222,1662
12.7250,1685
12.7278,1718
12.7306,1682
12.7333,1649
12.7361,1671
12.7389,1658
12.7417,1628
12.7444,1632
12.7472,1668
12.7500,1634
12.7528,1585
12.7556,1615
12.7583,1620
12.7611,1571
12.7639,1559
12.7667,1616
12.7694,1628
12.7722,1580
12.7750,1622
12.7778,1645
12.7806,1638
12.7833,1611
12.7861,1642
12.7889,1644
12.7917,1592
12.7944,1605
12.7972,1639
12.8000,1614
12.8028,1576
12.8056,1606
12.8083,1628
12.8111,1592
12.8139,1592
12.8167,1634
12.8194,1623
12.8222,1569
12.8250,1552
12.8278,1578
12.8306,1548
12.8333,1561
12.8361,1625
12.8389,1662
12.8417,1687
12.8444,1778
12.8472,1979
12.8500,2159
12.8528,2357
12.8556,2583
12.8583,2686
12.8611,2586
12.8639,2352
12.8667,2172
12.8694,1955
12.8722,1782
12.8750,1731
12.8778,1734
12.8806,1714
12.8833,1700
12.8861,1760
12.8889,1756
12.8917,1674
12.8944,1657
12.8972,1650
12.9000,1624
12.9028,1593
12.9056,1626
12.9083,1673
12.9111,1638
12.9139,1633
12.9167,1683
12.9194,1641
12.9222,1573
12.9250,1587
12.9278,1651
12.9306,1630
12.9333,1617
12.9361,1639
12.9389,1616
12.9417,1580
12.9444,1604
12.9472,1680
12.9500,1669
12.9528,1633
12.9556,1663
12.9583,1672
12.9611,1625
12.9639,1601
12.9667,1662
12.9694,1667
12.9722,1641
12.9750,1678
12.9778,1704
12.9806,1673
12.9833,1640
12.9861,1696
12.9889,1730
12.9917,1690
12.9944,1693
12.9972,1730
13.0000,1701
13.0028,1650
13.0056,1672
13.0083,1690
13.0111,1673
13.0139,1683
13.0167,1746
13.0194,1743
13.0222,1697
13.0250,1692
13.0278,1741
13.0306,1717
13.0333,1697
13.0361,1721
13.0389,1700
13.0417,1671
13.0444,1691
13.0472,1979
13.0500,1794
13.0528,1733
13.0556,1744
13.0583,1770
13.0611,1793
13.0639,1857
13.0667,1886
13.0694,1788
13.0722,1706
13.0750,1701
13.0778,1731
13.0806,1751
13.0833,1784
13.0861,1823
13.0889,1775
13.0917,1669
13.0944,1652
13.0972,1650
13.1000,1653
13.1028,1683
13.1056,1748
13.1083,1746
13.1111,1652
13.1139,1613
13.1167,1596
13.1194,1608
13.1222,1609
13.1250,1678
13.1278,1707
13.1306,1643
13.1333,1614
13.1361,1629
13.1389,1636
13.1417,1633
13.1444,1675
13.1472,1710
13.1500,1643
13.1528,1596
13.1556,1612
13.1583,1616
13.1611,1595
13.1639,1593
13.1667,1650
13.1694,1618
13.1722,1599
13.1750,1637
13.1778,1671
13.1806,1657
13.1833,1663
13.1861,1729
13.1889,1701
13.1917,1640
13.1944,1640
13.1972,1653
13.2000,1655
13.2028,1659
13.2056,1718
13.2083,1694
13.2111,1601
13.2139,1588
13.2167,1609
13.2194,1620
13.2222,1623
13.2250,1713
13.2278,1751
13.2306,1686
13.2333,1664
13.2361,1664
13.2389,1648
13.2417,1620
13.2444,1672
13.2472,1717
13.2500,1669
13.2528,1636
13.2556,1660
13.2583,1675
13.2611,1653
13.2639,1671
13.2667,1708
13.2694,1672
13.2722,1625
13.2750,1642
13.2778,1665
13.2806,1645
13.2833,1640
13.2861,1693
13.2889,1687
13.2917,1637
13.2944,1643
13.2972,1666
13.3000,1663
13.3028,1657
13.3056,1712
13.3083,1704
13.3111,1634
13.3139,1622
13.3167,1644
13.3194,1650
13.3222,1644
13.3250,1696
13.3278,1725
13.3306,1674
13.3333,1665
13.3361,1693
13.3389,1669
13.3417,1632
13.3444,1657
13.3472,1705
13.3500,1696
13.3528,1673
13.3556,1701
13.3583,1707
13.3611,1673
13.3639,1652
13.3667,1681
13.3694,1654
13.3722,1629
13.3750,1678
13.3778,1722
13.3806,1721
13.3833,1710
13.3861,1757
13.3889,1725
13.3917,1648
13.3944,1663
13.3972,1690
13.4000,1689
13.4028,1664
13.4056,1727
13.4083,1737
13.4111,1709
13.4139,1702
13.4167,1719
13.4194,1710
13.4222,1699
13.4250,1742
13.4278,1772
13.4306,1749
13.4333,1756
13.4361,1794
13.4389,1795
13.4417,1764
13.4444,1778
13.4472,1824
13.4500,1789
13.4528,1766
13.4556,1804
13.4583,1801
13.4611,1761
13.4639,1739
13.4667,1769
13.4694,1734
13.4722,1695
13.4750,1714
13.4778,1731
13.4806,1692
13.4833,1653
13.4861,1680
13.4889,1663
13.4917,1613
13.4944,1642
13.4972,1694
13.5000,1697
13.5028,1673
13.5056,1712
13.5083,1711
13.5111,1660
13.5139,1644
13.5167,1648
13.5194,1635
13.5222,1608
13.5250,1656
13.5278,1704
13.5306,1673
13.5333,1667
13.5361,1696
13.5389,1693
13.5417,1666
13.5444,1678
13.5472,1735
13.5500,1696
13.5528,1681
13.5556,1684
13.5583,1660
13.5611,1613
13.5639,1600
13.5667,1667
13.5694,1697
13.5722,1712
13.5750,1797
13.5778,1875
13.5806,1942
13.5833,2086
13.5861,2349
13.5889,2569
13.5917,2671
13.5944,2709
13.5972,2574
13.6000,2299
13.6028,2010
13.6056,1873
13.6083,1795
13.6111,1706
13.6139,1738
13.6167,1813
13.6194,1827
13.6222,1771
13.6250,1765
13.6278,1761
13.6306,1681
13.6333,1655
13.6361,1697
13.6389,1695
13.6417,1647
13.6444,1652
13.6472,1688
13.6500,1659
13.6528,1647
13.6556,1687
13.6583,1719
13.6611,1694
13.6639,1680
13.6667,1724
13.6694,1706
13.6722,1666
13.6750,1703
13.6778,1738
13.6806,1722
13.6833,1698
13.6861,1733
13.6889,1724
13.6917,1666
13.6944,1687
13.6972,1710
13.7000,1701
13.7028,1670
13.7056,1706
13.7083,1721
13.7111,1680
13.7139,1698
13.7167,1741
13.7194,1735
13.7222,1708
13.7250,1755
13.7278,1787
13.7306,1740
13.7333,1728
13.7361,1773
13.7389,1762
13.7417,1698
13.7444,1703
13.7472,1768
13.7500,1763
13.7528,1753
13.7556,1806
13.7583,1829
13.7611,1804
13.7639,1786
13.7667,1812
13.7694,1786
13.7722,1742
13.7750,1766
13.7778,1802
13.7806,1804
13.7833,2111
13.7861,1955
13.7889,1906
13.7917,1824
13.7944,1804
13.7972,1809
13.8000,1806
13.8028,1830
13.8056,1900
13.8083,1860
13.8111,1743
13.8139,1703
13.8167,1713
13.8194,1728
13.8222,1774
13.8250,1870
13.8278,1864
13.8306,1761
13.8333,1704
13.8361,1679
13.8389,1650
13.8417,1631
13.8444,1690
13.8472,1709
13.8500,1651
13.8528,1632
13.8556,1646
13.8583,1656
13.8611,1655
13.8639,1716
13.8667,1755
13.8694,1689
13.8722,1637
13.8750,1637
13.8778,1648
13.8806,1633
13.8833,1644
13.8861,1687
13.8889,1664
13.8917,1621
13.8944,1651
13.8972,1667
13.9000,1663
13.9028,1658
13.9056,1711
13.9083,1695
13.9111,1638
13.9139,1635
13.9167,1640
13.9194,1642
13.9222,1644
13.9250,1714
13.9278,1722
13.9306,1655
13.9333,1658
13.9361,1676
13.9389,1667
13.9417,1651
13.9444,1707
13.9472,1717
13.9500,1666
13.9528,1643
13.9556,1636
13.9583,1632
13.9611,1609
13.9639,1672
13.9667,1722
13.9694,1679
13.9722,1646
13.9750,1658
13.9778,1662
13.9806,1666
13.9833,1683
13.9861,1735
13.9889,1708
13.9917,1658
13.9944,1681
13.9972,1684
14.0000,1658
14.0028,1655
14.0056,1709
14.0083,1708
14.0111,1658
14.0139,1687
14.0167,1713
14.0194,1702
14.0222,1671
14.0250,1705
14.0278,1714
14.0306,1658
14.0333,1656
14.0361,1674
14.0389,1666
14.0417,1649
14.0444,1704
14.0472,1729
14.0500,1681
14.0528,1664
14.0556,1681
14.0583,1687
14.0611,1638
14.0639,1661
14.0667,1696
14.0694,1668
14.0722,1642
14.0750,1691
14.0778,1721
14.0806,1697
14.0833,1701
14.0861,1748
14.0889,1701
14.0917,1622
14.0944,1596
14.0972,1598
14.1000,1620
14.1028,1682
14.1056,1786
14.1083,1801
14.1111,1730
14.1139,1726
14.1167,1724
14.1194,1704
14.1222,1678
14.1250,1724
14.1278,1723
14.1306,1679
14.1333,1693
14.1361,1716
14.1389,1711
14.1417,1671
14.1444,1723
14.1472,1756
14.1500,1720
14.1528,1729
14.1556,1765
14.1583,1776
14.1611,1745
14.1639,1767
14.1667,1793
14.1694,1742
14.1722,1734
14.1750,1779
14.1778,1809
14.1806,1783
14.1833,1773
14.1861,1810
14.1889,1782
14.1917,1731
14.1944,1757
14.1972,1765
14.2000,1719
14.2028,1686
14.2056,1744
14.2083,1742
14.2111,1708
14.2139,1709
14.2167,1701
14.2194,1655
14.2222,1638
14.2250,1680
14.2278,1705
14.2306,1657
14.2333,1672
14.2361,1712
14.2389,1694
14.2417,1648
14.2444,1673
14.2472,1696
14.2500,1654
14.2528,1661
14.2556,1718
14.2583,1740
14.2611,1708
14.2639,1727
14.2667,1769
14.2694,1734
14.2722,1713
14.2750,1733
14.2778,1733
14.2806,1680
14.2833,1664
14.2861,1687
14.2889,1642
14.2917,1558
14.2944,1581
14.2972,1616
14.3000,1651
14.3028,1698
14.3056,1839
14.3083,1936
14.3111,2048
14.3139,2267
14.3167,2483
14.3194,2602
14.3222,2598
14.3250,2544
14.3278,2349
14.3306,2087
14.3333,1918
14.3361,1826
14.3389,1739
14.3417,1677
14.3444,1732
14.3472,1817
14.3500,1817
14.3528,1806
14.3556,1815
14.3583,1752
14.3611,1663
14.3639,1666
14.3667,1730
14.3694,1742
14.3722,1735
14.3750,1774
14.3778,1780
14.3806,1714
14.3833,1682
14.3861,1711
14.3889,1672
14.3917,1603
14.3944,1605
14.3972,1618
14.4000,1588
14.4028,1560
14.4056,1617
14.4083,1636
14.4111,1620
14.4139,1674
14.4167,1720
14.4194,1700
14.4222,1667
14.4250,1707
14.4278,1718
14.4306,1675
14.4333,1696
14.4361,1724
14.4389,1706
14.4417,1658
14.4444,1686
14.4472,1741
14.4500,1724
14.4528,1728
14.4556,1760
14.4583,1749
14.4611,1707
14.4639,1723
14.4667,1757
14.4694,1709
14.4722,1677
14.4750,1724
14.4778,1736
14.4806,1714
14.4833,1735
14.4861,1778
14.4889,1759
14.4917,1718
14.4944,1753
14.4972,1757
14.5000,1703
14.5028,1666
14.5056,1725
14.5083,1759
14.5111,1757
14.5139,1822
14.5167,1866
14.5194,1847
14.5222,1816
14.5250,1857
14.5278,1860
14.5306,1748
14.5333,1717
14.5361,1707
14.5389,1729
14.5417,1764
14.5444,1851
14.5472,1841
14.5500,1724
14.5528,1666
14.5556,1654
14.5583,1646
14.5611,1649
14.5639,1715
14.5667,1720
14.5694,1631
14.5722,1584
14.5750,1607
14.5778,1623
14.5806,1643
14.5833,1707
14.5861,1746
14.5889,1676
14.5917,1617
14.5944,1621
14.5972,1615
14.6000,1613
14.6028,1686
14.6056,1768
14.6083,1707
14.6111,1622
14.6139,1611
14.6167,1591
14.6194,1553
14.6222,1586
14.6250,1645
14.6278,1622
14.6306,1567
14.6333,1599
14.6361,1624
14.6389,1614
14.6417,1634
14.6444,1718
14.6472,1739
14.6500,1670
14.6528,1659
14.6556,1668
14.6583,1651
14.6611,1639
14.6639,1684
14.6667,1680
14.6694,1597
14.6722,1572
14.6750,1599
14.6778,1618
14.6806,1611
14.6833,1652
14.6861,1688
14.6889,1626
14.6917,1585
14.6944,1611
14.6972,1624
14.7000,1596
14.7028,1603
14.7056,1666
14.7083,1646
14.7111,1608
14.7139,1630
14.7167,1645
14.7194,1628
14.7222,1644
14.7250,1712
14.7278,1718
14.7306,1660
14.7333,1665
14.7361,1668
14.7389,1646
14.7417,1615
14.7444,1651
14.7472,1628
14.7500,1545
14.7528,1541
14.7556,1581
14.7583,1594
14.7611,1589
14.7639,1640
14.7667,1653
14.7694,1599
14.7722,1581
14.7750,1618
14.7778,1625
14.7806,1617
14.7833,1633
14.7861,1651
14.7889,1600
14.7917,1582
14.7944,1618
14.7972,1638
14.8000,1634
14.8028,1638
14.8056,1674
14.8083,1646
14.8111,1607
14.8139,1639
14.8167,1654
14.8194,1628
14.8222,1615
14.8250,1670
14.8278,1681
14.8306,1658
14.8333,1700
14.8361,1740
14.8389,1736
14.8417,1712
14.8444,1745
14.8472,1725
14.8500,1665
14.8528,1669
14.8556,1709
14.8583,1691
14.8611,1652
14.8639,1664
14.8667,1672
14.8694,1593
14.8722,1576
14.8750,1593
14.8778,1595
14.8806,1587
14.8833,1624
14.8861,1650
14.8889,1593
14.8917,1544
14.8944,1571
14.8972,1589
14.9000,1558
14.9028,1565
14.9056,1574
14.9083,1525
14.9111,1469
14.9139,1509
14.9167,1554
14.9194,1555
14.9222,1573
14.9250,1632
14.9278,1609
14.9306,1541
14.9333,1569
14.9361,1603
14.9389,1594
14.9417,1572
14.9444,1605
14.9472,1593
14.9500,1532
14.9528,1526
14.9556,1541
14.9583,1523
14.9611,1512
14.9639,1574
14.9667,1662
14.9694,1687
14.9722,1751
14.9750,1892
14.9778,2028
14.9806,2209
14.9833,2441
14.9861,2612
14.9889,2579
14.9917,2388
14.9944,2164
14.9972,1929
15.0000,1732
15.0028,1625
15.0056,1630
15.0083,1639
15.0111,1660
15.0139,1736
15.0167,1778
15.0194,1734
15.0222,1658
15.0250,1638
15.0278,1578
15.0306,1536
15.0333,1593
15.0361,1665
15.0389,1663
15.0417,1605
15.0444,1604
15.0472,1585
15.0500,1525
15.0528,1550
15.0556,1599
15.0583,1624
15.0611,1603
15.0639,1626
15.0667,1635
15.0694,1578
15.0722,1566
15.0750,1612
15.0778,1622
15.0806,1589
15.0833,1574
15.0861,1625
15.0889,1608
15.0917,1621
15.0944,1696
15.0972,1718
15.1000,1681
15.1028,1663
15.1056,1705
15.1083,1719
15.1111,1719
15.1139,1756
15.1167,1784
15.1194,1765
15.1222,1746
15.1250,1762
15.1278,1770
15.1306,1759
15.1333,1821
15.1361,1867
15.1389,1848
15.1417,1786
15.1444,1782
15.1472,1767
15.1500,1719
15.1528,1725
15.1556,1756
15.1583,1748
15.1611,1710
15.1639,1715
15.1667,1720
15.1694,1686
15.1722,1678
15.1750,1730
15.1778,1615
15.1806,1685
15.1833,1760
15.1861,1780
15.1889,1694
15.1917,1630
15.1944,1621
15.1972,1620
15.2000,1633
15.2028,1696
15.2056,1735
15.2083,1665
15.2111,1604
15.2139,1586
15.2167,1565
15.2194,1553
15.2222,1569
15.2250,1609
15.2278,1561
15.2306,1492
15.2333,1504
15.2361,1511
15.2389,1518
15.2417,1544
15.2444,1617
15.2472,1597
15.2500,1509
15.2528,1493
15.2556,1492
15.2583,1497
15.2611,1501
15.2639,1567
15.2667,1584
15.2694,1514
15.2722,1501
15.2750,1505
15.2778,1512
15.2806,1500
15.2833,1560
15.2861,1588
15.2889,1513
15.2917,1464
15.2944,1461
15.2972,1476
15.3000,1487
15.3028,1566
15.3056,1616
15.3083,1570
15.3111,1534
15.3139,1549
15.3167,1550
15.3194,1532
15.3222,1559
15.3250,1617
15.3278,1581
15.3306,1539
15.3333,1548
15.3361,1537
15.3389,1515
15.3417,1540
15.3444,1602
15.3472,1568
15.3500,1503
15.3528,1514
15.3556,1524
15.3583,1527
15.3611,1548
15.3639,1626
15.3667,1632
15.3694,1562
15.3722,1556
15.3750,1574
15.3778,1550
15.3806,1540
15.3833,1601
15.3861,1638
15.3889,1571
15.3917,1545
15.3944,1561
15.3972,1570
15.4000,1559
15.4028,1594
15.4056,1628
15.4083,1583
15.4111,1543
15.4139,1562
15.4167,1563
15.4194,1559
15.4222,1580
15.4250,1640
15.4278,1622
15.4306,1581
15.4333,1596
15.4361,1582
15.4389,1555
15.4417,1553
15.4444,1609
15.4472,1620
15.4500,1604
15.4528,1637
15.4556,1650
15.4583,1601
15.4611,1570
15.4639,1623
15.4667,1638
15.4694,1606
15.4722,1634
15.4750,1675
15.4778,1663
15.4806,1641
15.4833,1696
15.4861,1714
15.4889,1662
15.4917,1650
15.4944,1677
15.4972,1684
15.5000,1649
15.5028,1694
15.5056,1745
15.5083,1710
15.5111,1685
15.5139,1695
15.5167,1700
15.5194,1679
15.5222,1692
15.5250,1748
15.5278,1712
15.5306,1653
15.5333,1638
15.5361,1643
15.5389,1618
15.5417,1609
15.5444,1675
15.5472,1673
15.5500,1615
15.5528,1619
15.5556,1630
15.5583,1613
15.5611,1579
15.5639,1617
15.5667,1617
15.5694,1568
15.5722,1573
15.5750,1592
15.5778,1594
15.5806,1579
15.5833,1637
15.5861,1671
15.5889,1628
15.5917,1615
15.5944,1647
15.5972,1635
15.6000,1593
15.6028,1615
15.6056,1663
15.6083,1629
15.6111,1597
15.6139,1636
15.6167,1652
15.6194,1626
15.6222,1623
15.6250,1626
15.6278,1547
15.6306,1496
15.6333,1563
15.6361,1648
15.6389,1706
15.6417,1774
15.6444,1922
15.6472,2040
15.6500,2183
15.6528,2432
15.6556,2594
15.6583,2644
15.6611,2506
15.6639,2329
15.6667,2091
15.6694,1862
15.6722,1767
15.6750,1753
15.6778,1748
15.6806,1720
15.6833,1751
15.6861,1787
15.6889,1749
15.6917,1733
15.6944,1717
15.6972,1687
15.7000,1631
15.7028,1641
15.7056,1704
15.7083,1684
15.7111,1664
15.7139,1685
15.7167,1688
15.7194,1639
15.7222,1648
15.7250,1720
15.7278,1688
15.7306,1659
15.7333,1676
15.7361,1685
15.7389,1655
15.7417,1652
15.7444,1682
15.7472,1674
15.7500,1628
15.7528,1654
15.7556,1690
15.7583,1690
15.7611,1689
15.7639,1750
15.7667,1758
15.7694,1715
15.7722,1707
15.7750,1725
15.7778,1711
15.7806,1663
15.7833,1696
15.7861,1733
15.7889,1699
15.7917,1697
15.7944,1731
15.7972,1740
15.8000,1693
15.8028,1723
15.8056,1769
15.8083,1756
15.8111,1742
15.8139,1762
15.8167,1744
15.8194,1711
15.8222,1709
15.8250,1773
15.8278,1759
15.8306,1762
15.8333,1800
15.8361,1810
15.8389,1785
15.8417,1788
15.8444,1838
15.8472,1911
15.8500,1830
15.8528,1823
15.8556,1819
15.8583,1826
15.8611,1857
15.8639,1936
15.8667,1887
15.8694,1790
15.8722,1767
15.8750,1769
15.8778,1777
15.8806,1806
15.8833,1880
15.8861,1849
15.8889,1752
15.8917,1729
15.8944,1732
15.8972,1722
15.9000,1690
15.9028,1733
15.9056,1750
15.9083,1701
15.9111,1685
15.9139,1708
15.9167,1680
15.9194,1661
15.9222,1726
15.9250,1770
15.9278,1715
15.9306,1676
15.9333,1679
15.9361,1645
15.9389,1620
15.9417,1663
15.9444,1736
15.9472,1722
15.9500,1673
15.9528,1688
15.9556,1671
15.9583,1656
15.9611,1688
15.9639,1753
15.9667,1744
15.9694,1667
15.9722,1655
15.9750,1658
15.9778,1649
15.9806,1660
15.9833,1729
15.9861,1749
15.9889,1685
15.9917,1661
15.9944,1665
15.9972,1683
16.0000,1694
16.0028,1763
16.0056,1785
16.0083,1718
16.0111,1699
16.0139,1700
16.0167,1688
16.0194,1655
16.0222,1707
16.0250,1754
16.0278,1697
16.0306,1663
16.0333,1696
16.0361,1702
16.0389,1688
16.0417,1719
16.0444,1774
16.0472,1743
16.0500,1692
16.0528,1698
16.0556,1706
16.0583,1702
16.0611,1706
16.0639,1742
16.0667,1698
16.0694,1625
16.0722,1675
16.0750,1728
16.0778,1752
16.0806,1751
16.0833,1807
16.0861,1800
16.0889,1730
16.0917,1713
16.0944,1722
16.0972,1720
16.1000,1700
16.1028,1743
16.1056,1781
16.1083,1722
16.1111,1704
16.1139,1718
16.1167,1704
16.1194,1676
16.1222,1727
16.1250,1787
16.1278,1752
16.1306,1742
16.1333,1778
16.1361,1794
16.1389,1752
16.1417,1773
16.1444,1796
16.1472,1756
16.1500,1706
16.1528,1751
16.1556,1780
16.1583,1797
16.1611,1822
16.1639,1875
16.1667,1859
16.1694,1805
16.1722,1810
16.1750,1826
16.1778,1811
16.1806,1784
16.1833,1823
16.1861,1800
16.1889,1722
16.1917,1707
16.1944,1733
16.1972,1720
16.2000,1688
16.2028,1743
16.2056,1777
16.2083,1723
16.2111,1704
16.2139,1709
16.2167,1700
16.2194,1671
16.2222,1705
16.2250,1755
16.2278,1718
16.2306,1704
16.2333,1734
16.2361,1719
16.2389,1686
16.2417,1698
16.2444,1740
16.2472,1719
16.2500,1714
16.2528,1760
16.2556,1769
16.2583,1727
16.2611,1710
16.2639,1746
16.2667,1749
16.2694,1702
16.2722,1713
16.2750,1696
16.2778,1635
16.2806,1613
16.2833,1675
16.2861,1705
16.2889,1705
16.2917,1774
16.2944,1859
16.2972,1928
16.3000,2022
16.3028,2241
16.3056,2492
16.3083,2638
16.3111,2699
16.3139,2635
16.3167,2401
16.3194,2125
16.3222,1957
16.3250,1877
16.3278,1779
16.3306,1764
16.3333,1834
16.3361,1866
16.3389,1852
16.3417,1844
16.3444,1841
16.3472,1761
16.3500,1697
16.3528,1734
16.3556,1762
16.3583,1738
16.3611,1720
16.3639,1761
16.3667,1765
16.3694,1692
16.3722,1712
16.3750,1731
16.3778,1697
16.3806,1677
16.3833,1723
16.3861,1732
16.3889,1685
16.3917,1715
16.3944,1742
16.3972,1740
16.4000,1699
16.4028,1748
16.4056,1756
16.4083,1706
16.4111,1692
16.4139,1734
16.4167,1750
16.4194,1718
16.4222,1731
16.4250,1770
16.4278,1745
16.4306,1747
16.4333,1812
16.4361,1825
16.4389,1781
16.4417,1763
16.4444,1789
16.4472,1756
16.4500,1722
16.4528,1762
16.4556,1788
16.4583,1763
16.4611,1767
16.4639,1837
16.4667,1850
16.4694,1796
16.4722,1785
16.4750,1792
16.4778,1777
16.4806,1761
16.4833,1795
16.4861,1810
16.4889,1776
16.4917,1803
16.4944,1830
16.4972,1829
16.5000,1793
16.5028,1809
16.5056,1826
16.5083,1810
16.5111,1822
16.5139,1868
16.5167,1769
16.5194,1853
16.5222,1931
16.5250,1928
16.5278,1827
16.5306,1770
16.5333,1755
16.5361,1750
16.5389,1772
16.5417,1847
16.5444,1893
16.5472,1810
16.5500,1757
16.5528,1773
16.5556,1766
16.5583,1733
16.5611,1756
16.5639,1780
16.5667,1699
16.5694,1643
16.5722,1668
16.5750,1699
16.5778,1725
16.5806,1775
16.5833,1811
16.5861,1752
16.5889,1666
16.5917,1659
16.5944,1648
16.5972,1643
16.6000,1656
16.6028,1739
16.6056,1751
16.6083,1682
16.6111,1679
16.6139,1689
16.6167,1697
16.6194,1686
16.6222,1744
16.6250,1754
16.6278,1678
16.6306,1662
16.6333,1690
16.6361,1693
16.6389,1698
16.6417,1767
16.6444,1812
16.6472,1752
16.6500,1711
16.6528,1694
16.6556,1681
16.6583,1645
16.6611,1694
16.6639,1757
16.6667,1728
16.6694,1677
16.6722,1681
16.6750,1698
16.6778,1701
16.6806,1712
16.6833,1777
16.6861,1753
16.6889,1701
16.6917,1702
16.6944,1713
16.6972,1706
16.7000,1692
16.7028,1738
16.7056,1728
16.7083,1645
16.7111,1629
16.7139,1666
16.7167,1691
16.7194,1702
16.7222,1775
16.7250,1772
16.7278,1700
16.7306,1677
16.7333,1692
16.7361,1698
16.7389,1669
16.7417,1712
16.7444,1758
16.7472,1710
16.7500,1675
16.7528,1689
16.7556,1682
16.7583,1636
16.7611,1637
16.7639,1698
16.7667,1700
16.7694,1705
16.7722,1754
16.7750,1766
16.7778,1747
16.7806,1745
16.7833,1786
16.7861,1762
16.7889,1712
16.7917,1728
16.7944,1754
16.7972,1752
16.8000,1761
16.8028,1819
16.8056,1819
16.8083,1755
16.8111,1755
16.8139,1773
16.8167,1766
16.8194,1733
16.8222,1764
16.8250,1759
16.8278,1668
16.8306,1640
16.8333,1645
16.8361,1644
16.8389,1623
16.8417,1672
16.8444,1716
16.8472,1643
16.8500,1604
16.8528,1611
16.8556,1618
16.8583,1601
16.8611,1629
16.8639,1672
16.8667,1625
16.8694,1586
16.8722,1612
16.8750,1640
16.8778,1644
16.8806,1655
16.8833,1730
16.8861,1708
16.8889,1656
16.8917,1651
16.8944,1657
16.8972,1633
16.9000,1623
16.9028,1676
16.9056,1679
16.9083,1624
16.9111,1620
16.9139,1635
16.9167,1592
16.9194,1533
16.9222,1567
16.9250,1614
16.9278,1624
16.9306,1675
16.9333,1765
16.9361,1854
16.9389,1943
16.9417,2152
16.9444,2394
16.9472,2534
16.9500,2586
16.9528,2545
16.9556,2352
16.9583,2099
16.9611,1914
16.9639,1833
16.9667,1730
16.9694,1690
16.9722,1741
16.9750,1787
16.9778,1783
16.9806,1736
16.9833,1742
16.9861,1674
16.9889,1614
16.9917,1649
16.9944,1660
16.9972,1645
17.0000,1613
17.0028,1657
17.0056,1663
17.0083,1595
17.0111,1602
17.0139,1632
17.0167,1627
17.0194,1610
17.0222,1658
17.0250,1671
17.0278,1623
17.0306,1622
17.0333,1658
17.0361,1664
17.0389,1641
17.0417,1672
17.0444,1713
17.0472,1667
17.0500,1634
17.0528,1663
17.0556,1660
17.0583,1624
17.0611,1642
17.0639,1687
17.0667,1667
17.0694,1642
17.0722,1678
17.0750,1702
17.0778,1673
17.0806,1651
17.0833,1689
17.0861,1668
17.0889,1620
17.0917,1643
17.0944,1671
17.0972,1661
17.1000,1665
17.1028,1729
17.1056,1748
17.1083,1717
17.1111,1726
17.1139,1746
17.1167,1741
17.1194,1707
17.1222,1749
17.1250,1774
17.1278,1710
17.1306,1701
17.1333,1744
17.1361,1764
17.1389,1981
17.1417,1902
17.1444,1912
17.1472,1815
17.1500,1761
17.1528,1744
17.1556,1742
17.1583,1729
17.1611,1794
17.1639,1820
17.1667,1725
17.1694,1667
17.1722,1686
17.1750,1698
17.1778,1697
17.1806,1749
17.1833,1799
17.1861,1721
17.1889,1644
17.1917,1640
17.1944,1628
17.1972,1613
17.2000,1644
17.2028,1716
17.2056,1684
17.2083,1597
17.2111,1594
17.2139,1617
17.2167,1622
17.2194,1664
17.2222,1732
17.2250,1709
17.2278,1602
17.2306,1580
17.2333,1590
17.2361,1610
17.2389,1625
17.2417,1688
17.2444,1690
17.2472,1604
17.2500,1565
17.2528,1564
17.2556,1568
17.2583,1570
17.2611,1658
17.2639,1715
17.2667,1665
17.2694,1628
17.2722,1628
17.2750,1596
17.2778,1579
17.2806,1621
17.2833,1676
17.2861,1641
17.2889,1615
17.2917,1641
17.2944,1659
17.2972,1645
17.3000,1654
17.3028,1695
17.3056,1670
17.3083,1621
17.3111,1640
17.3139,1662
17.3167,1666
17.3194,1665
17.3222,1709
17.3250,1671
17.3278,1589
17.3306,1599
17.3333,1628
17.3361,1630
17.3389,1621
17.3417,1685
17.3444,1693
17.3472,1633
17.3500,1612
17.3528,1620
17.3556,1604
17.3583,1604
17.3611,1672
17.3639,1699
17.3667,1662
17.3694,1631
17.3722,1644
17.3750,1641
17.3778,1608
17.3806,1653
17.3833,1718
17.3861,1699
17.3889,1663
17.3917,1663
17.3944,1656
17.3972,1640
17.4000,1643
17.4028,1687
17.4056,1665
17.4083,1623
17.4111,1658
17.4139,1675
17.4167,1654
17.4194,1623
17.4222,1671
17.4250,1672
17.4278,1632
17.4306,1646
17.4333,1662
17.4361,1644
17.4389,1610
17.4417,1672
17.4444,1691
17.4472,1643
17.4500,1657
17.4528,1701
17.4556,1715
17.4583,1696
17.4611,1729
17.4639,1741
17.4667,1703
17.4694,1704
17.4722,1746
17.4750,1744
17.4778,1710
17.4806,1719
17.4833,1781
17.4861,1759
17.4889,1732
17.4917,1740
17.4944,1743
17.4972,1734
17.5000,1737
17.5028,1790
17.5056,1763
17.5083,1700
17.5111,1694
17.5139,1697
17.5167,1674
17.5194,1666
17.5222,1705
17.5250,1705
17.5278,1651
17.5306,1652
17.5333,1657
17.5361,1641
17.5389,1606
17.5417,1641
17.5444,1659
17.5472,1604
17.5500,1614
17.5528,1668
17.5556,1682
17.5583,1660
17.5611,1678
17.5639,1691
17.5667,1637
17.5694,1630
17.5722,1665
17.5750,1673
17.5778,1635
17.5806,1647
17.5833,1694
17.5861,1666
17.5889,1641
17.5917,1685
17.5944,1708
17.5972,1682
17.6000,1648
17.6028,1654
17.6056,1598
17.6083,1547
17.6111,1599
17.6139,1674
17.6167,1723
17.6194,1749
17.6222,1866
17.6250,1986
17.6278,2100
17.6306,2319
17.6333,2543
17.6361,2679
17.6389,2622
17.6417,2467
17.6444,2243
17.6472,1985
17.6500,1840
17.6528,1801
17.6556,1748
17.6583,1712
17.6611,1778
17.6639,1826
17.6667,1798
17.6694,1751
17.6722,1731
17.6750,1682
17.6778,1627
17.6806,1651
17.6833,1703
17.6861,1689
17.6889,1674
17.6917,1693
17.6944,1706
17.6972,1644
17.7000,1610
17.7028,1650
17.7056,1655
17.7083,1650
17.7111,1699
17.7139,1706
17.7167,1643
17.7194,1617
17.7222,1689
17.7250,1702
17.7278,1664
17.7306,1676
17.7333,1701
17.7361,1653
17.7389,1626
17.7417,1685
17.7444,1735
17.7472,1697
17.7500,1689
17.7528,1702
17.7556,1664
17.7583,1631
17.7611,1679
17.7639,1739
17.7667,1720
17.7694,1714
17.7722,1746
17.7750,1733
17.7778,1701
17.7806,1686
17.7833,1728
17.7861,1722
17.7889,1715
17.7917,1752
17.7944,1783
17.7972,1756
17.8000,1724
17.8028,1744
17.8056,1730
17.8083,1684
17.8111,1717
17.8139,1746
17.8167,1743
17.8194,1754
17.8222,1821
17.8250,1838
17.8278,1776
17.8306,1800
17.8333,1851
17.8361,1847
17.8389,1810
17.8417,2059
17.8444,1889
17.8472,1790
17.8500,1750
17.8528,1733
17.8556,1735
17.8583,1751
17.8611,1835
17.8639,1866
17.8667,1795
17.8694,1740
17.8722,1738
17.8750,1706
17.8778,1684
17.8806,1733
17.8833,1764
17.8861,1696
17.8889,1648
17.8917,1643
17.8944,1641
17.8972,1626
17.9000,1682
17.9028,1736
17.9056,1694
17.9083,1640
17.9111,1617
17.9139,1615
17.9167,1606
17.9194,1646
17.9222,1730
17.9250,1713
17.9278,1649
17.9306,1647
17.9333,1642
17.9361,1627
17.9389,1646
17.9417,1724
17.9444,1727
17.9472,1662
17.9500,1634
17.9528,1607
17.9556,1596
17.9583,1607
17.9611,1713
17.9639,1760
17.9667,1707
17.9694,1676
17.9722,1664
17.9750,1650
17.9778,1637
17.9806,1694
17.9833,1724
17.9861,1688
17.9889,1657
17.9917,1672
17.9944,1651
17.9972,1635
18.0000,1677
18.0028,1726
18.0056,1686
18.0083,1640
18.0111,1653
18.0139,1651
18.0167,1643
18.0194,1683
18.0222,1752
18.0250,1735
18.0278,1674
18.0306,1680
18.0333,1679
18.0361,1660
18.0389,1660
18.0417,1727
18.0444,1716
18.0472,1653
18.0500,1654
18.0528,1663
18.0556,1645
18.0583,1624
18.0611,1678
18.0639,1706
18.0667,1635
18.0694,1624
18.0722,1657
18.0750,1676
18.0778,1653
18.0806,1699
18.0833,1745
18.0861,1707
18.0889,1689
18.0917,1709
18.0944,1710
18.0972,1669
18.1000,1679
18.1028,1728
18.1056,1693
18.1083,1684
18.1111,1737
18.1139,1736
18.1167,1695
18.1194,1662
18.1222,1694
18.1250,1674
18.1278,1641
18.1306,1678
18.1333,1701
18.1361,1684
18.1389,1659
18.1417,1708
18.1444,1704
18.1472,1655
18.1500,1684
18.1528,1705
18.1556,1692
18.1583,1663
18.1611,1697
18.1639,1709
18.1667,1663
18.1694,1679
18.1722,1727
18.1750,1720
18.1778,1673
18.1806,1702
18.1833,1748
18.1861,1720
18.1889,1710
18.1917,1744
18.1944,1737
18.1972,1698
18.2000,1714
18.2028,1754
18.2056,1743
18.2083,1726
18.2111,1757
18.2139,1774
18.2167,1754
18.2194,1734
18.2222,1768
18.2250,1746
18.2278,1734
18.2306,1788
18.2333,1813
18.2361,1796
18.2389,1765
18.2417,1798
18.2444,1785
18.2472,1723
18.2500,1729
18.2528,1737
18.2556,1725
18.2583,1689
18.2611,1714
18.2639,1747
18.2667,1714
18.2694,1733
18.2722,1768
18.2750,1737
18.2778,1670
18.2806,1682
18.2833,1707
18.2861,1658
18.2889,1639
18.2917,1688
18.2944,1691
18.2972,1652
18.3000,1677
18.3028,1728
18.3056,1702
18.3083,1669
18.3111,1695
18.3139,1698
18.3167,1654
18.3194,1652
18.3222,1706
18.3250,1680
18.3278,1653
18.3306,1687
18.3333,1714
18.3361,1670
18.3389,1630
18.3417,1685
18.3444,1686
18.3472,1627
18.3500,1632
18.3528,1652
18.3556,1675
18.3583,1676
18.3611,1757
18.3639,1839
18.3667,1874
18.3694,2008
18.3722,2242
18.3750,2450
18.3778,2583
18.3806,2682
18.3833,2662
18.3861,2429
18.3889,2174
18.3917,2005
18.3944,1874
18.3972,1765
18.4000,1743
18.4028,1799
18.4056,1798
18.4083,1777
18.4111,1819
18.4139,1795
18.4167,1721
18.4194,1669
18.4222,1695
18.4250,1685
18.4278,1661
18.4306,1693
18.4333,1716
18.4361,1700
18.4389,1662
18.4417,1706
18.4444,1724
18.4472,1675
18.4500,1671
18.4528,1702
18.4556,1689
18.4583,1657
18.4611,1696
18.4639,1745
18.4667,1721
18.4694,1742
18.4722,1768
18.4750,1741
18.4778,1680
18.4806,1674
18.4833,1700
18.4861,1687
18.4889,1706
18.4917,1769
18.4944,1769
18.4972,1719
18.5000,1701
18.5028,1744
18.5056,1724
18.5083,1686
18.5111,1731
18.5139,1746
18.5167,1714
18.5194,1702
18.5222,1751
18.5250,1753
18.5278,1727
18.5306,1745
18.5333,1767
18.5361,1737
18.5389,1708
18.5417,1775
18.5444,1787
18.5472,1749
18.5500,1775
18.5528,1813
18.5556,1798
18.5583,1762
18.5611,1795
18.5639,1831
18.5667,1801
18.5694,1680
18.5722,1836
18.5750,1834
18.5778,1838
18.5806,1894
18.5833,1905
18.5861,1839
18.5889,1796
18.5917,1795
18.5944,1778
18.5972,1767
18.6000,1821
18.6028,1844
18.6056,1788
18.6083,1748
18.6111,1767
18.6139,1753
18.6167,1731
18.6194,1770
18.6222,1805
18.6250,1745
18.6278,1686
18.6306,1681
18.6333,1682
18.6361,1664
18.6389,1700
18.6417,1754
18.6444,1699
18.6472,1608
18.6500,1629
18.6528,1667
18.6556,1687
18.6583,1692
18.6611,1749
18.6639,1735
18.6667,1659
18.6694,1636
18.6722,1640
18.6750,1646
18.6778,1652
18.6806,1712
18.6833,1732
18.6861,1659
18.6889,1647
18.6917,1653
18.6944,1658
18.6972,1649
18.7000,1707
18.7028,1752
18.7056,1698
18.7083,1637
18.7111,1640
18.7139,1641
18.7167,1635
18.7194,1669
18.7222,1737
18.7250,1695
18.7278,1661
18.7306,1694
18.7333,1700
18.7361,1693
18.7389,1681
18.7417,1723
18.7444,1690
18.7472,1644
18.7500,1671
18.7528,1692
18.7556,1671
18.7583,1651
18.7611,1707
18.7639,1724
18.7667,1666
18.7694,1690
18.7722,1723
18.7750,1714
18.7778,1701
18.7806,1733
18.7833,1750
18.7861,1691
18.7889,1669
18.7917,1672
18.7944,1646
18.7972,1613
18.8000,1671
18.8028,1714
18.8056,1680
18.8083,1663
18.8111,1700
18.8139,1709
18.8167,1682
18.8194,1701
18.8222,1746
18.8250,1715
18.8278,1665
18.8306,1685
18.8333,1675
18.8361,1641
18.8389,1653
18.8417,1713
18.8444,1726
18.8472,1700
18.8500,1737
18.8528,1735
18.8556,1709
18.8583,1679
18.8611,1730
18.8639,1735
18.8667,1687
18.8694,1693
18.8722,1700
18.8750,1642
18.8778,1607
18.8806,1690
18.8833,1742
18.8861,1726
18.8889,1734
18.8917,1753
18.8944,1702
18.8972,1632
18.9000,1686
18.9028,1750
18.9056,1718
18.9083,1686
18.9111,1714
18.9139,1694
18.9167,1662
18.9194,1696
18.9222,1793
18.9250,1779
18.9278,1767
18.9306,1789
18.9333,1777
18.9361,1729
18.9389,1716
18.9417,1768
18.9444,1770
18.9472,1735
18.9500,1793
18.9528,1825
18.9556,1797
18.9583,1766
18.9611,1786
18.9639,1775
18.9667,1698
18.9694,1711
18.9722,1743
18.9750,1744
18.9778,1726
18.9806,1742
18.9833,1737
18.9861,1670
18.9889,1656
18.9917,1664
18.9944,1636
18.9972,1586
19.0000,1590
19.0028,1647
19.0056,1654
19.0083,1683
19.0111,1743
19.0139,1740
19.0167,1692
19.0194,1679
19.0222,1726
19.0250,1693
19.0278,1643
19.0306,1668
19.0333,1701
19.0361,1695
19.0389,1676
19.0417,1721
19.0444,1712
19.0472,1663
19.0500,1697
19.0528,1719
19.0556,1689
19.0583,1646
19.0611,1657
19.0639,1630
19.0667,1578
19.0694,1621
19.0722,1706
19.0750,1771
19.0778,1794
19.0806,1928
19.0833,2108
19.0861,2296
19.0889,2531
19.0917,2714
19.0944,2685
19.0972,2439
19.1000,2174
19.1028,1986
19.1056,1820
19.1083,1745
19.1111,1778
19.1139,1792
19.1167,1780
19.1194,1783
19.1222,1832
19.1250,1795
19.1278,1717
19.1306,1707
19.1333,1699
19.1361,1667
19.1389,1648
19.1417,1710
19.1444,1698
19.1472,1646
19.1500,1656
19.1528,1681
19.1556,1652
19.1583,1615
19.1611,1663
19.1639,1684
19.1667,1644
19.1694,1639
19.1722,1645
19.1750,1634
19.1778,1612
19.1806,1657
19.1833,1701
19.1861,1673
19.1889,1677
19.1917,1715
19.1944,1696
19.1972,1626
19.2000,1625
19.2028,1670
19.2056,1641
19.2083,1629
19.2111,1683
19.2139,1709
19.2167,1706
19.2194,1711
19.2222,1758
19.2250,1733
19.2278,1678
19.2306,1711
19.2333,1729
19.2361,1711
19.2389,1695
19.2417,1733
19.2444,1715
19.2472,1651
19.2500,1681
19.2528,1726
19.2556,1711
19.2583,1698
19.2611,1750
19.2639,1754
19.2667,1710
19.2694,1731
19.2722,1777
19.2750,1783
19.2778,1748
19.2806,1777
19.2833,1892
19.2861,1757
19.2889,1719
19.2917,1728
19.2944,1756
19.2972,1775
19.3000,1840
19.3028,1849
19.3056,1759
19.3083,1719
19.3111,1731
19.3139,1717
19.3167,1714
19.3194,1771
19.3222,1797
19.3250,1721
19.3278,1647
19.3306,1633
19.3333,1630
19.3361,1610
19.3389,1647
19.3417,1692
19.3444,1636
19.3472,1581
19.3500,1577
19.3528,1579
19.3556,1594
19.3583,1648
19.3611,1737
19.3639,1722
19.3667,1641
19.3694,1611
19.3722,1581
19.3750,1565
19.3778,1576
19.3806,1663
19.3833,1674
19.3861,1601
19.3889,1592
19.3917,1598
19.3944,1598
19.3972,1591
19.4000,1656
19.4028,1675
19.4056,1593
19.4083,1566
19.4111,1583
19.4139,1595
19.4167,1587
19.4194,1643
19.4222,1668
19.4250,1603
19.4278,1562
19.4306,1588
19.4333,1602
19.4361,1579
19.4389,1629
19.4417,1684
19.4444,1633
19.4472,1548
19.4500,1542
19.4528,1544
19.4556,1548
19.4583,1598
19.4611,1681
19.4639,1670
19.4667,1610
19.4694,1619
19.4722,1625
19.4750,1615
19.4778,1604
19.4806,1663
19.4833,1669
19.4861,1607
19.4889,1588
19.4917,1609
19.4944,1599
19.4972,1563
19.5000,1601
19.5028,1624
19.5056,1578
19.5083,1579
19.5111,1601
19.5139,1605
19.5167,1587
19.5194,1627
19.5222,1667
19.5250,1603
19.5278,1559
19.5306,1580
19.5333,1593
19.5361,1570
19.5389,1605
19.5417,1658
19.5444,1626
19.5472,1581
19.5500,1599
19.5528,1605
19.5556,1592
19.5583,1595
19.5611,1649
19.5639,1627
19.5667,1590
19.5694,1612
19.5722,1626
19.5750,1588
19.5778,1572
19.5806,1626
19.5833,1633
19.5861,1561
19.5889,1571
19.5917,1602
19.5944,1593
19.5972,1563
19.6000,1610
19.6028,1635
19.6056,1567
19.6083,1573
19.6111,1632
19.6139,1644
19.6167,1602
19.6194,1626
19.6222,1664
19.6250,1638
19.6278,1626
19.6306,1659
19.6333,1672
19.6361,1658
19.6389,1684
19.6417,1742
19.6444,1694
19.6472,1633
19.6500,1628
19.6528,1638
19.6556,1651
19.6583,1670
19.6611,1745
19.6639,1736
19.6667,1677
19.6694,1690
19.6722,1684
19.6750,1653
19.6778,1608
19.6806,1666
19.6833,1690
19.6861,1652
19.6889,1660
19.6917,1672
19.6944,1644
19.6972,1593
19.7000,1612
19.7028,1621
19.7056,1567
19.7083,1543
19.7111,1559
19.7139,1553
19.7167,1533
19.7194,1564
19.7222,1609
19.7250,1571
19.7278,1556
19.7306,1603
19.7333,1634
19.7361,1604
19.7389,1583
19.7417,1619
19.7444,1579
19.7472,1532
19.7500,1569
19.7528,1586
19.7556,1568
19.7583,1566
19.7611,1608
19.7639,1584
19.7667,1543
19.7694,1574
19.7722,1585
19.7750,1560
19.7778,1497
19.7806,1523
19.7833,1553
19.7861,1547
19.7889,1606
19.7917,1687
19.7944,1723
19.7972,1779
19.8000,1947
19.8028,2178
19.8056,2374
19.8083,2571
19.8111,2676
19.8139,2540
19.8167,2251
19.8194,2009
19.8222,1849
19.8250,1697
19.8278,1636
19.8306,1700
19.8333,1733
19.8361,1714
19.8389,1702
19.8417,1714
19.8444,1641
19.8472,1577
19.8500,1591
19.8528,1610
19.8556,1597
19.8583,1557
19.8611,1599
19.8639,1585
19.8667,1560
19.8694,1582
19.8722,1625
19.8750,1613
19.8778,1573
19.8806,1619
19.8833,1632
19.8861,1580
19.8889,1569
19.8917,1583
19.8944,1570
19.8972,1539
19.9000,1590
19.9028,1642
19.9056,1635
19.9083,1643
19.9111,1651
19.9139,1612
19.9167,1567
19.9194,1602
19.9222,1667
19.9250,1647
19.9278,1625
19.9306,1638
19.9333,1635
19.9361,1612
19.9389,1633
19.9417,1693
19.9444,1670
19.9472,1625
19.9500,1639
19.9528,1656
19.9556,1653
19.9583,1658
19.9611,1719
19.9639,1706
19.9667,1655
19.9694,1657
19.9722,1665
19.9750,1658
19.9778,1627
19.9806,1675
19.9833,1708
19.9861,1679
19.9889,1687
19.9917,1718
19.9944,1720
19.9972,1689
20.0000,1724
20.0028,1781
20.0056,1737
20.0083,1720
20.0111,1746
20.0139,1774
20.0167,1910
20.0194,1844
20.0222,1886
20.0250,1790
20.0278,1723
20.0306,1672
20.0333,1659
20.0361,1666
20.0389,1752
20.0417,1804
20.0444,1714
20.0472,1639
20.0500,1633
20.0528,1627
20.0556,1637
20.0583,1686
20.0611,1744
20.0639,1671
20.0667,1593
20.0694,1581
20.0722,1589
20.0750,1587
20.0778,1622
20.0806,1699
20.0833,1663
20.0861,1569
20.0889,1547
20.0917,1568
20.0944,1573
20.0972,1579
20.1000,1652
20.1028,1648
20.1056,1575
20.1083,1559
20.1111,1586
20.1139,1597
20.1167,1595
20.1194,1673
20.1222,1712
20.1250,1652
20.1278,1623
20.1306,1630
20.1333,1611
20.1361,1604
20.1389,1664
20.1417,1710
20.1444,1653
20.1472,1610
20.1500,1616
20.1528,1614
20.1556,1599
20.1583,1643
20.1611,1707
20.1639,1663
20.1667,1599
20.1694,1614
20.1722,1631
20.1750,1637
20.1778,1670
20.1806,1730
20.1833,1697
20.1861,1601
20.1889,1594
20.1917,1602
20.1944,1584
20.1972,1579
20.2000,1645
20.2028,1684
20.2056,1630
20.2083,1637
20.2111,1668
20.2139,1652
20.2167,1646
20.2194,1704
20.2222,1723
20.2250,1660
20.2278,1638
20.2306,1666
20.2333,1672
20.2361,1626
20.2389,1660
20.2417,1692
20.2444,1640
20.2472,1620
20.2500,1650
20.2528,1659
20.2556,1641
20.2583,1659
20.2611,1700
20.2639,1665
20.2667,1632
20.2694,1670
20.2722,1691
20.2750,1686
20.2778,1672
20.2806,1708
20.2833,1677
20.2861,1621
20.2889,1640
20.2917,1672
20.2944,1665
20.2972,1653
20.3000,1708
20.3028,1718
20.3056,1659
20.3083,1647
20.3111,1653
20.3139,1643
20.3167,1636
20.3194,1699
20.3222,1745
20.3250,1705
20.3278,1694
20.3306,1708
20.3333,1701
20.3361,1669
20.3389,1692
20.3417,1736
20.3444,1690
20.3472,1680
20.3500,1718
20.3528,1727
20.3556,1706
20.3583,1713
20.3611,1756
20.3639,1739
20.3667,1715
20.3694,1738
20.3722,1742
20.3750,1716
20.3778,1715
20.3806,1780
20.3833,1776
20.3861,1748
20.3889,1769
20.3917,1788
20.3944,1786
20.3972,1763
20.4000,1801
20.4028,1802
20.4056,1745
20.4083,1746
20.4111,1768
20.4139,1735
20.4167,1657
20.4194,1659
20.4222,1700
20.4250,1684
20.4278,1713
20.4306,1763
20.4333,1746
20.4361,1681
20.4389,1678
20.4417,1715
20.4444,1669
20.4472,1655
20.4500,1678
20.4528,1676
20.4556,1639
20.4583,1638
20.4611,1695
20.4639,1685
20.4667,1667
20.4694,1713
20.4722,1729
20.4750,1704
20.4778,1678
20.4806,1722
20.4833,1705
20.4861,1676
20.4889,1708
20.4917,1737
20.4944,1723
20.4972,1699
20.5000,1730
20.5028,1703
20.5056,1633
20.5083,1637
20.5111,1698
20.5139,1738
20.5167,1750
20.5194,1843
20.5222,1942
20.5250,2031
20.5278,2216
20.5306,2460
20.5333,2636
20.5361,2677
20.5389,2609
20.5417,2427
20.5444,2156
20.5472,1942
20.5500,1845
20.5528,1789
20.5556,1748
20.5583,1780
20.5611,1864
20.5639,1871
20.5667,1807
20.5694,1797
20.5722,1766
20.5750,1705
20.5778,1687
20.5806,1736
20.5833,1737
20.5861,1690
20.5889,1710
20.5917,1737
20.5944,1720
20.5972,1687
20.6000,1728
20.6028,1754
20.6056,1716
20.6083,1724
20.6111,1736
20.6139,1719
20.6167,1670
20.6194,1704
20.6222,1753
20.6250,1705
20.6278,1694
20.6306,1711
20.6333,1715
20.6361,1691
20.6389,1704
20.6417,1763
20.6444,1745
20.6472,1730
20.6500,1763
20.6528,1761
20.6556,1732
20.6583,1720
20.6611,1773
20.6639,1770
20.6667,1745
20.6694,1777
20.6722,1789
20.6750,1753
20.6778,1710
20.6806,1750
20.6833,1754
20.6861,1741
20.6889,1772
20.6917,1808
20.6944,1777
20.6972,1725
20.7000,1774
20.7028,1807
20.7056,1801
20.7083,1826
20.7111,1861
20.7139,1833
20.7167,1772
20.7194,1792
20.7222,1839
20.7250,1821
20.7278,1831
20.7306,1859
20.7333,1840
20.7361,1795
20.7389,1788
20.7417,1995
20.7444,1841
20.7472,1768
20.7500,1758
20.7528,1768
20.7556,1791
20.7583,1869
20.7611,1930
20.7639,1862
20.7667,1781
20.7694,1759
20.7722,1757
20.7750,1736
20.7778,1788
20.7806,1856
20.7833,1809
20.7861,1739
20.7889,1723
20.7917,1709
20.7944,1687
20.7972,1703
20.8000,1774
20.8028,1748
20.8056,1674
20.8083,1675
20.8111,1663
20.8139,1645
20.8167,1661
20.8194,1740
20.8222,1738
20.8250,1647
20.8278,1618
20.8306,1628
20.8333,1649
20.8361,1676
20.8389,1746
20.8417,1776
20.8444,1708
20.8472,1661
20.8500,1662
20.8528,1645
20.8556,1651
20.8583,1713
20.8611,1757
20.8639,1701
20.8667,1658
20.8694,1670
20.8722,1674
20.8750,1667
20.8778,1690
20.8806,1748
20.8833,1706
20.8861,1659
20.8889,1675
20.8917,1666
20.8944,1640
20.8972,1647
20.9000,1735
20.9028,1730
20.9056,1684
20.9083,1686
20.9111,1698
20.9139,1664
20.9167,1658
20.9194,1722
20.9222,1738
20.9250,1701
20.9278,1701
20.9306,1708
20.9333,1691
20.9361,1661
20.9389,1708
20.9417,1736
20.9444,1675
20.9472,1643
20.9500,1656
20.9528,1670
20.9556,1663
20.9583,1709
20.9611,1740
20.9639,1679
20.9667,1644
20.9694,1675
20.9722,1675
20.9750,1658
20.9778,1671
20.9806,1721
20.9833,1679
20.9861,1619
20.9889,1632
20.9917,1646
20.9944,1643
20.9972,1662
21.0000,1723
21.0028,1711
21.0056,1641
21.0083,1660
21.0111,1690
21.0139,1706
21.0167,1695
21.0194,1744
21.0222,1771
21.0250,1725
21.0278,1736
21.0306,1754
21.0333,1747
21.0361,1719
21.0389,1767
21.0417,1794
21.0444,1759
21.0472,1761
21.0500,1778
21.0528,1759
21.0556,1706
21.0583,1719
21.0611,1761
21.0639,1715
21.0667,1690
21.0694,1717
21.0722,1711
21.0750,1664
21.0778,1638
21.0806,1662
21.0833,1640
21.0861,1611
21.0889,1659
21.0917,1688
21.0944,1660
21.0972,1634
21.1000,1668
21.1028,1641
21.1056,1575
21.1083,1582
21.1111,1620
21.1139,1627
21.1167,1646
21.1194,1705
21.1222,1700
21.1250,1638
21.1278,1624
21.1306,1650
21.1333,1653
21.1361,1632
21.1389,1680
21.1417,1698
21.1444,1641
21.1472,1637
21.1500,1660
21.1528,1615
21.1556,1573
21.1583,1591
21.1611,1636
21.1639,1591
21.1667,1582
21.1694,1644
21.1722,1694
21.1750,1719
21.1778,1800
21.1806,1962
21.1833,2094
21.1861,2247
21.1889,2473
21.1917,2606
21.1944,2546
21.1972,2334
21.2000,2146
21.2028,1969
21.2056,1823
21.2083,1793
21.2111,1765
21.2139,1722
21.2167,1706
21.2194,1761
21.2222,1782
21.2250,1724
21.2278,1708
21.2306,1700
21.2333,1658
21.2361,1612
21.2389,1633
21.2417,1661
21.2444,1615
21.2472,1621
21.2500,1638
21.2528,1629
21.2556,1595
21.2583,1630
21.2611,1689
21.2639,1662
21.2667,1636
21.2694,1656
21.2722,1671
21.2750,1646
21.2778,1653
21.2806,1700
21.2833,1678
21.2861,1643
21.2889,1662
21.2917,1659
21.2944,1621
21.2972,1617
21.3000,1695
21.3028,1709
21.3056,1676
21.3083,1689
21.3111,1694
21.3139,1656
21.3167,1626
21.3194,1689
21.3222,1729
21.3250,1669
21.3278,1661
21.3306,1681
21.3333,1687
21.3361,1659
21.3389,1716
21.3417,1750
21.3444,1718
21.3472,1721
21.3500,1750
21.3528,1742
21.3556,1710
21.3583,1729
21.3611,1781
21.3639,1743
21.3667,1721
21.3694,1773
21.3722,1792
21.3750,1749
21.3778,1742
21.3806,1952
21.3833,1785
21.3861,1754
21.3889,1784
21.3917,1822
21.3944,1816
21.3972,1846
21.4000,1885
21.4028,1822
21.4056,1744
21.4083,1741
21.4111,1743
21.4139,1734
21.4167,1762
21.4194,1807
21.4222,1764
21.4250,1676
21.4278,1659
21.4306,1682
21.4333,1668
21.4361,1665
21.4389,1723
21.4417,1718
21.4444,1655
21.4472,1634
21.4500,1613
21.4528,1612
21.4556,1614
21.4583,1699
21.4611,1719
21.4639,1645
21.4667,1610
21.4694,1618
21.4722,1615
21.4750,1609
21.4778,1661
21.4806,1708
21.4833,1672
21.4861,1630
21.4889,1621
21.4917,1623
21.4944,1615
21.4972,1664
21.5000,1714
21.5028,1670
21.5056,1608
21.5083,1621
21.5111,1640
21.5139,1644
21.5167,1667
21.5194,1720
21.5222,1691
21.5250,1611
21.5278,1591
21.5306,1598
21.5333,1594
21.5361,1620
21.5389,1705
21.5417,1714
21.5444,1643
21.5472,1653
21.5500,1669
21.5528,1642
21.5556,1600
21.5583,1634
21.5611,1670
21.5639,1643
21.5667,1647
21.5694,1676
21.5722,1665
21.5750,1655
21.5778,1693
21.5806,1717
21.5833,1667
21.5861,1625
21.5889,1631
21.5917,1636
21.5944,1627
21.5972,1660
21.6000,1690
21.6028,1648
21.6056,1594
21.6083,1626
21.6111,1644
21.6139,1636
21.6167,1638
21.6194,1699
21.6222,1675
21.6250,1615
21.6278,1615
21.6306,1628
21.6333,1628
21.6361,1654
21.6389,1723
21.6417,1735
21.6444,1647
21.6472,1643
21.6500,1653
21.6528,1646
21.6556,1642
21.6583,1704
21.6611,1726
21.6639,1685
21.6667,1678
21.6694,1704
21.6722,1702
21.6750,1690
21.6778,1745
21.6806,1777
21.6833,1718
21.6861,1677
21.6889,1717
21.6917,1729
21.6944,1702
21.6972,1714
21.7000,1772
21.7028,1778
21.7056,1731
21.7083,1744
21.7111,1740
21.7139,1711
21.7167,1708
21.7194,1757
21.7222,1731
21.7250,1675
21.7278,1668
21.7306,1665
21.7333,1637
21.7361,1607
21.7389,1665
21.7417,1673
21.7444,1618
21.7472,1630
21.7500,1652
21.7528,1640
21.7556,1605
21.7583,1657
21.7611,1682
21.7639,1626
21.7667,1626
21.7694,1662
21.7722,1651
21.7750,1617
21.7778,1629
21.7806,1648
21.7833,1605
21.7861,1607
21.7889,1670
21.7917,1692
21.7944,1656
21.7972,1653
21.8000,1682
21.8028,1656
21.8056,1615
21.8083,1645
21.8111,1643
21.8139,1602
21.8167,1561
21.8194,1620
21.8222,1648
21.8250,1664
21.8278,1730
21.8306,1797
21.8333,1869
21.8361,1987
21.8389,2246
21.8417,2468
21.8444,2592
21.8472,2654
21.8500,2574
21.8528,2326
21.8556,2048
21.8583,1897
21.8611,1817
21.8639,1712
21.8667,1709
21.8694,1756
21.8722,1760
21.8750,1718
21.8778,1722
21.8806,1723
21.8833,1665
21.8861,1629
21.8889,1674
21.8917,1686
21.8944,1653
21.8972,1652
21.9000,1710
21.9028,1688
21.9056,1644
21.9083,1675
21.9111,1678
21.9139,1649
21.9167,1631
21.9194,1675
21.9222,1679
21.9250,1643
21.9278,1663
21.9306,1680
21.9333,1664
21.9361,1627
21.9389,1674
21.9417,1671
21.9444,1599
21.9472,1601
21.9500,1652
21.9528,1658
21.9556,1633
21.9583,1677
21.9611,1730
21.9639,1701
21.9667,1690
21.9694,1735
21.9722,1733
21.9750,1693
21.9778,1694
21.9806,1713
21.9833,1667
21.9861,1664
21.9889,1713
21.9917,1734
21.9944,1701
21.9972,1709
22.0000,1737
22.0028,1705
22.0056,1667
22.0083,1704
22.0111,1748
22.0139,1754
22.0167,1737
22.0194,1769
22.0222,1753
22.0250,1701
22.0278,1739
22.0306,1781
22.0333,1792
22.0361,2040
22.0389,1911
22.0417,1857
22.0444,1770
22.0472,1748
22.0500,1752
22.0528,1747
22.0556,1775
22.0583,1851
22.0611,1847
22.0639,1753
22.0667,1725
22.0694,1732
22.0722,1732
22.0750,1738
22.0778,1790
22.0806,1791
22.0833,1715
22.0861,1663
22.0889,1635
22.0917,1626
22.0944,1625
22.0972,1707
22.1000,1744
22.1028,1679
22.1056,1649
22.1083,1655
22.1111,1656
22.1139,1650
22.1167,1685
22.1194,1714
22.1222,1666
22.1250,1605
22.1278,1608
22.1306,1630
22.1333,1636
22.1361,1670
22.1389,1734
22.1417,1699
22.1444,1611
22.1472,1595
22.1500,1600
22.1528,1587
22.1556,1619
22.1583,1711
22.1611,1706
22.1639,1615
22.1667,1606
22.1694,1629
22.1722,1646
22.1750,1639
22.1778,1703
22.1806,1713
22.1833,1645
22.1861,1634
22.1889,1649
22.1917,1639
22.1944,1622
22.1972,1681
22.2000,1726
22.2028,1668
22.2056,1623
22.2083,1626
22.2111,1616
22.2139,1603
22.2167,1636
22.2194,1708
22.2222,1688
22.2250,1644
22.2278,1656
22.2306,1645
22.2333,1615
22.2361,1625
22.2389,1678
22.2417,1657
22.2444,1614
22.2472,1656
22.2500,1678
22.2528,1673
22.2556,1656
22.2583,1703
22.2611,1693
22.2639,1628
22.2667,1632
22.2694,1649
22.2722,1645
22.2750,1642
22.2778,1698
22.2806,1704
22.2833,1645
22.2861,1639
22.2889,1658
22.2917,1649
22.2944,1606
22.2972,1633
22.3000,1682
22.3028,1642
22.3056,1629
22.3083,1664
22.3111,1680
22.3139,1673
22.3167,1683
22.3194,1738
22.3222,1705
22.3250,1667
22.3278,1707
22.3306,1727
22.3333,1723
22.3361,1730
22.3389,1792
22.3417,1755
22.3444,1677
22.3472,1676
22.3500,1701
22.3528,1708
22.3556,1704
22.3583,1784
22.3611,1778
22.3639,1710
22.3667,1691
22.3694,1711
22.3722,1697
22.3750,1682
22.3778,1726
22.3806,1753
22.3833,1691
22.3861,1674
22.3889,1684
22.3917,1662
22.3944,1597
22.3972,1622
22.4000,1643
22.4028,1588
22.4056,1562
22.4083,1591
22.4111,1605
22.4139,1588
22.4167,1615
22.4194,1683
22.4222,1656
22.4250,1630
22.4278,1657
22.4306,1670
22.4333,1634
22.4361,1627
22.4389,1680
22.4417,1669
22.4444,1633
22.4472,1640
22.4500,1662
22.4528,1654
22.4556,1645
22.4583,1707
22.4611,1703
22.4639,1665
22.4667,1651
22.4694,1643
22.4722,1606
22.4750,1549
22.4778,1602
22.4806,1660
22.4833,1666
22.4861,1702
22.4889,1789
22.4917,1879
22.4944,1998
22.4972,2240
22.5000,2520
22.5028,2662
22.5056,2675
22.5083,2553
22.5111,2296
22.5139,2016
22.5167,1833
22.5194,1789
22.5222,1728
22.5250,1702
22.5278,1745
22.5306,1779
22.5333,1754
22.5361,1719
22.5389,1726
22.5417,1696
22.5444,1640
22.5472,1653
22.5500,1658
22.5528,1643
22.5556,1624
22.5583,1677
22.5611,1698
22.5639,1667
22.5667,1679
22.5694,1693
22.5722,1666
22.5750,1659
22.5778,1698
22.5806,1732
22.5833,1678
22.5861,1658
22.5889,1670
22.5917,1655
22.5944,1626
22.5972,1661
22.6000,1701
22.6028,1678
22.6056,1670
22.6083,1704
22.6111,1711
22.6139,1676
22.6167,1676
22.6194,1719
22.6222,1693
22.6250,1672
22.6278,1716
22.6306,1744
22.6333,1710
22.6361,1672
22.6389,1699
22.6417,1675
22.6444,1652
22.6472,1707
22.6500,1762
22.6528,1758
22.6556,1722
22.6583,1751
22.6611,1747
22.6639,1702
22.6667,1729
22.6694,1764
22.6722,1746
22.6750,1694
22.6778,1719
22.6806,1756
22.6833,1722
22.6861,1741
22.6889,1798
22.6917,1799
22.6944,1958
22.6972,1893
22.7000,1912
22.7028,1820
22.7056,1781
22.7083,1765
22.7111,1760
22.7139,1765
22.7167,1849
22.7194,1888
22.7222,1806
22.7250,1738
22.7278,1731
22.7306,1727
22.7333,1717
22.7361,1778
22.7389,1816
22.7417,1736
22.7444,1656
22.7472,1643
22.7500,1660
22.7528,1659
22.7556,1689
22.7583,1759
22.7611,1726
22.7639,1663
22.7667,1656
22.7694,1663
22.7722,1658
22.7750,1671
22.7778,1724
22.7806,1692
22.7833,1599
22.7861,1583
22.7889,1597
22.7917,1612
22.7944,1635
22.7972,1708
22.8000,1716
22.8028,1622
22.8056,1582
22.8083,1600
22.8111,1616
22.8139,1612
22.8167,1682
22.8194,1724
22.8222,1663
22.8250,1629
22.8278,1657
22.8306,1678
22.8333,1665
22.8361,1691
22.8389,1729
22.8417,1662
22.8444,1615
22.8472,1631
22.8500,1636
22.8528,1646
22.8556,1698
22.8583,1784
22.8611,1778
22.8639,1710
22.8667,1685
22.8694,1653
22.8722,1595
22.8750,1576
22.8778,1626
22.8806,1620
22.8833,1571
22.8861,1589
22.8889,1618
22.8917,1649
22.8944,1646
22.8972,1713
22.9000,1732
22.9028,1654
22.9056,1625
22.9083,1633
22.9111,1625
22.9139,1600
22.9167,1646
22.9194,1678
22.9222,1629
22.9250,1602
22.9278,1623
22.9306,1640
22.9333,1596
22.9361,1605
22.9389,1627
22.9417,1599
22.9444,1551
22.9472,1600
22.9500,1636
22.9528,1638
22.9556,1672
22.9583,1745
22.9611,1730
22.9639,1670
22.9667,1677
22.9694,1706
22.9722,1724
22.9750,1737
22.9778,1803
22.9806,1799
22.9833,1739
22.9861,1785
22.9889,1857
22.9917,1870
22.9944,1853
22.9972,1861
23.0000,1809
23.0028,1707
23.0056,1690
23.0083,1706
23.0111,1696
23.0139,1657
23.0167,1685
23.0194,1718
23.0222,1681
23.0250,1657
23.0278,1682
23.0306,1692
23.0333,1687
23.0361,1689
23.0389,1740
23.0417,1709
23.0444,1682
23.0472,1714
23.0500,1716
23.0528,1673
23.0556,1651
23.0583,1675
23.0611,1646
23.0639,1620
23.0667,1681
23.0694,1735
23.0722,1734
23.0750,1703
23.0778,1734
23.0806,1721
23.0833,1652
23.0861,1672
23.0889,1688
23.0917,1693
23.0944,1679
23.0972,1711
23.1000,1723
23.1028,1659
23.1056,1619
23.1083,1631
23.1111,1630
23.1139,1634
23.1167,1700
23.1194,1783
23.1222,1790
23.1250,1853
23.1278,2012
23.1306,2167
23.1333,2346
23.1361,2532
23.1389,2630
23.1417,2510
23.1444,2273
23.1472,2081
23.1500,1946
23.1528,1818
23.1556,1763
23.1583,1793
23.1611,1806
23.1639,1790
23.1667,1825
23.1694,1825
23.1722,1768
23.1750,1700
23.1778,1729
23.1806,1721
23.1833,1661
23.1861,1688
23.1889,1726
23.1917,1708
23.1944,1657
23.1972,1667
23.2000,1683
23.2028,1668
23.2056,1704
23.2083,1740
23.2111,1745
23.2139,1672
23.2167,1656
23.2194,1665
23.2222,1634
23.2250,1663
23.2278,1735
23.2306,1745
23.2333,1711
23.2361,1704
23.2389,1719
23.2417,1694
23.2444,1686
23.2472,1718
23.2500,1708
23.2528,1680
23.2556,1677
23.2583,1755
23.2611,1756
23.2639,1720
23.2667,1762
23.2694,1796
23.2722,1799
23.2750,1796
23.2778,1819
23.2806,1784
23.2833,1700
23.2861,1724
23.2889,1773
23.2917,1790
23.2944,1782
23.2972,1815
23.3000,1815
23.3028,1762
23.3056,1753
23.3083,1771
23.3111,1748
23.3139,1693
23.3167,1683
23.3194,1722
23.3222,1718
23.3250,1746
23.3278,1819
23.3306,1851
23.3333,1837
23.3361,1829
23.3389,1848
23.3417,1810
23.3444,1659
23.3472,1774
23.3500,1774
23.3528,1768
23.3556,1808
23.3583,1845
23.3611,1777
23.3639,1710
23.3667,1703
23.3694,1709
23.3722,1689
23.3750,1706
23.3778,1735
23.3806,1695
23.3833,1622
23.3861,1625
23.3889,1645
23.3917,1653
23.3944,1659
23.3972,1729
23.4000,1730
23.4028,1664
23.4056,1665
23.4083,1675
23.4111,1669
23.4139,1660
23.4167,1732
23.4194,1753
23.4222,1691
23.4250,1684
23.4278,1695
23.4306,1704
23.4333,1698
23.4361,1751
23.4389,1765
23.4417,1688
23.4444,1650
23.4472,1674
23.4500,1698
23.4528,1709
23.4556,1761
23.4583,1815
23.4611,1783
23.4639,1725
23.4667,1722
23.4694,1706
23.4722,1696
23.4750,1720
23.4778,1793
23.4806,1788
23.4833,1759
23.4861,1777
23.4889,1774
23.4917,1745
23.4944,1737
23.4972,1791
23.5000,1763
23.5028,1688
23.5056,1670
23.5083,1676
23.5111,1686
23.5139,1699
23.5167,1757
23.5194,1782
23.5222,1719
23.5250,1709
23.5278,1714
23.5306,1687
23.5333,1673
23.5361,1745
23.5389,1796
23.5417,1762
23.5444,1733
23.5472,1764
23.5500,1771
23.5528,1733
23.5556,1721
23.5583,1745
23.5611,1711
23.5639,1691
23.5667,1720
23.5694,1752
23.5722,1764
23.5750,1791
23.5778,1836
23.5806,1823
23.5833,1779
23.5861,1803
23.5889,1830
23.5917,1822
23.5944,1807
23.5972,1866
23.6000,1859
23.6028,1794
23.6056,1791
23.6083,1811
23.6111,1802
23.6139,1778
23.6167,1827
23.6194,1857
23.6222,1799
23.6250,1786
23.6278,1815
23.6306,1810
23.6333,1781
23.6361,1810
23.6389,1825
23.6417,1755
23.6444,1722
23.6472,1738
23.6500,1717
23.6528,1676
23.6556,1659
23.6583,1726
23.6611,1712
23.6639,1692
23.6667,1724
23.6694,1723
23.6722,1680
23.6750,1661
23.6778,1710
23.6806,1700
23.6833,1671
23.6861,1710
23.6889,1748
23.6917,1751
23.6944,1742
23.6972,1771
23.7000,1749
23.7028,1671
23.7056,1665
23.7083,1698
23.7111,1705
23.7139,1689
23.7167,1732
23.7194,1744
23.7222,1685
23.7250,1662
23.7278,1660
23.7306,1634
23.7333,1610
23.7361,1668
23.7389,1743
23.7417,1739
23.7444,1768
23.7472,1876
23.7500,2015
23.7528,2187
23.7556,2422
23.7583,2693
23.7611,2818
23.7639,2750
23.7667,2575
23.7694,2294
23.7722,2018
23.7750,1839
23.7778,1813
23.7806,1783
23.7833,1757
23.7861,1795
23.7889,1831
23.7917,1809
23.7944,1728
23.7972,1704
23.8000,1686
23.8028,1637
23.8056,1665
23.8083,1715
23.8111,1716
23.8139,1681
23.8167,1705
23.8194,1715
23.8222,1658
23.8250,1655
23.8278,1695
23.8306,1710
23.8333,1688
23.8361,1716
23.8389,1737
23.8417,1691
23.8444,1679
23.8472,1724
23.8500,1755
23.8528,1725
23.8556,1730
23.8583,1744
23.8611,1703
23.8639,1660
23.8667,1684
23.8694,1700
23.8722,1687
23.8750,1689
23.8778,1744
23.8806,1739
23.8833,1707
23.8861,1743
23.8889,1781
23.8917,1778
23.8944,1734
23.8972,1766
23.9000,1753
23.9028,1718
23.9056,1759
23.9083,1801
23.9111,1808
23.9139,1769
23.9167,1770
23.9194,1776
23.9222,1717
23.9250,1732
23.9278,1790
23.9306,1810
23.9333,1790
23.9361,1812
23.9389,1825
23.9417,1789
23.9444,1777
23.9472,1814
23.9500,1757
23.9528,1848
23.9556,1909
23.9583,1917
23.9611,1834
23.9639,1781
23.9667,1797
23.9694,1803
23.9722,1800
23.9750,1850
23.9778,1873
23.9806,1805
23.9833,1739
23.9861,1751
23.9889,1763
23.9917,1773
23.9944,1812
23.9972,1857
24.0000,1800
24.0028,1695
24.0056,1676
24.0083,1670
24.0111,1673
24.0139,1698
24.0167,1748
24.0194,1729
24.0222,1666
24.0250,1678
24.0278,1692
24.0306,1683
24.0333,1680
24.0361,1712
24.0389,1674
24.0417,1595
24.0444,1581
24.0472,1620
24.0500,1645
24.0528,1650
24.0556,1710
24.0583,1744
24.0611,1686
24.0639,1651
24.0667,1672
24.0694,1674
24.0722,1690
24.0750,1760
24.0778,1813
24.0806,1751
24.0833,1657
24.0861,1617
24.0889,1611
24.0917,1607
24.0944,1655
24.0972,1724
24.1000,1704
24.1028,1646
24.1056,1646
24.1083,1660
24.1111,1658
24.1139,1671
24.1167,1749
24.1194,1736
24.1222,1675
24.1250,1680
24.1278,1692
24.1306,1683
24.1333,1664
24.1361,1713
24.1389,1742
24.1417,1698
24.1444,1706
24.1472,1737
24.1500,1735
24.1528,1706
24.1556,1735
24.1583,1741
24.1611,1651
24.1639,1594
24.1667,1609
24.1694,1628
24.1722,1611
24.1750,1641
24.1778,1704
24.1806,1683
24.1833,1677
24.1861,1722
24.1889,1730
24.1917,1701
24.1944,1694
24.1972,1738
24.2000,1709
24.2028,1645
24.2056,1650
24.2083,1665
24.2111,1666
24.2139,1651
24.2167,1706
24.2194,1725
24.2222,1713
24.2250,1772
24.2278,1842
24.2306,1858
24.2333,1852
24.2361,1903
24.2389,1909
24.2417,1820
24.2444,1768
24.2472,1743
24.2500,1697
24.2528,1644
24.2556,1656
24.2583,1675
24.2611,1643
24.2639,1670
24.2667,1729
24.2694,1754
24.2722,1745
24.2750,1761
24.2778,1788
24.2806,1744
24.2833,1695
24.2861,1701
24.2889,1702
24.2917,1672
24.2944,1660
24.2972,1708
24.3000,1688
24.3028,1647
24.3056,1665
24.3083,1674
24.3111,1649
24.3139,1631
24.3167,1669
24.3194,1659
24.3222,1625
24.3250,1647
24.3278,1684
24.3306,1698
24.3333,1652
24.3361,1682
24.3389,1689
24.3417,1642
24.3444,1665
24.3472,1740
24.3500,1756
24.3528,1703
24.3556,1654
24.3583,1628
24.3611,1546
24.3639,1535
24.3667,1587
24.3694,1622
24.3722,1612
24.3750,1634
24.3778,1690
24.3806,1656
24.3833,1594
24.3861,1624
24.3889,1637
24.3917,1626
24.3944,1656
24.3972,1765
24.4000,1824
24.4028,1905
24.4056,2103
24.4083,2331
24.4111,2522
24.4139,2637
24.4167,2720
24.4194,2579
24.4222,2268
24.4250,2009
24.4278,1852
24.4306,1740
24.4333,1679
24.4361,1711
24.4389,1743
24.4417,1702
24.4444,1716
24.4472,1716
24.4500,1681
24.4528,1621
24.4556,1626
24.4583,1675
24.4611,1686
24.4639,1718
24.4667,1789
24.4694,1800
24.4722,1717
24.4750,1652
24.4778,1635
24.4806,1587
24.4833,1561
24.4861,1605
24.4889,1628
24.4917,1624
24.4944,1620
24.4972,1684
24.5000,1674
24.5028,1636
24.5056,1662
24.5083,1666
24.5111,1640
24.5139,1618
24.5167,1666
24.5194,1680
24.5222,1641
24.5250,1659
24.5278,1717
24.5306,1718
24.5333,1721
24.5361,1769
24.5389,1811
24.5417,1756
24.5444,1704
24.5472,1700
24.5500,1678
24.5528,1651
24.5556,1651
24.5583,1667
24.5611,1634
24.5639,1666
24.5667,1743
24.5694,1783
24.5722,1741
24.5750,1692
24.5778,1668
24.5806,1620
24.5833,1601
24.5861,1666
24.5889,1712
24.5917,1713
24.5944,1744
24.5972,1831
24.6000,1859
24.6028,1830
24.6056,1660
24.6083,1821
24.6111,1795
24.6139,1822
24.6167,1893
24.6194,1882
24.6222,1815
24.6250,1802
24.6278,1782
24.6306,1751
24.6333,1741
24.6361,1780
24.6389,1724
24.6417,1640
24.6444,1625
24.6472,1652
24.6500,1653
24.6528,1656
24.6556,1706
24.6583,1704
24.6611,1646
24.6639,1637
24.6667,1641
24.6694,1636
24.6722,1625
24.6750,1693
24.6778,1752
24.6806,1742
24.6833,1736
24.6861,1748
24.6889,1686
24.6917,1584
24.6944,1540
24.6972,1581
24.7000,1589
24.7028,1607
24.7056,1654
24.7083,1636
24.7111,1578
24.7139,1533
24.7167,1547
24.7194,1505
24.7222,1457
24.7250,1486
24.7278,1507
24.7306,1521
24.7333,1545
24.7361,1615
24.7389,1604
24.7417,1558
24.7444,1558
24.7472,1577
24.7500,1576
24.7528,1584
24.7556,1651
24.7583,1688
24.7611,1659
24.7639,1655
24.7667,1657
24.7694,1626
24.7722,1567
24.7750,1574
24.7778,1581
24.7806,1528
24.7833,1516
24.7861,1534
24.7889,1537
24.7917,1542
24.7944,1602
24.7972,1653
24.8000,1608
24.8028,1564
24.8056,1603
24.8083,1634
24.8111,1643
24.8139,1685
24.8167,1745
24.8194,1736
24.8222,1697
24.8250,1702
24.8278,1680
24.8306,1625
24.8333,1590
24.8361,1635
24.8389,1614
24.8417,1535
24.8444,1550
24.8472,1602
24.8500,1642
24.8528,1642
24.8556,1693
24.8583,1711
24.8611,1668
24.8639,1667
24.8667,1708
24.8694,1702
24.8722,1674
24.8750,1685
24.8778,1699
24.8806,1657
24.8833,1649
24.8861,1685
24.8889,1699
24.8917,1681
24.8944,1707
24.8972,1746
24.9000,1721
24.9028,1699
24.9056,1720
24.9083,1751
24.9111,1739
24.9139,1746
24.9167,1790
24.9194,1752
24.9222,1683
24.9250,1704
24.9278,1743
24.9306,1753
24.9333,1765
24.9361,1849
24.9389,1867
24.9417,1827
24.9444,1828
24.9472,1826
24.9500,1788
24.9528,1751
24.9556,1789
24.9583,1818
24.9611,1803
24.9639,1833
24.9667,1871
24.9694,1853
24.9722,1821
24.9750,1830
24.9778,1847
24.9806,1779
24.9833,1742
24.9861,1757
24.9889,1788
24.9917,1776
24.9944,1768
24.9972,1800
25.0000,1764
25.0028,1727
25.0056,1736
25.0083,1726
25.0111,1686
25.0139,1692
25.0167,1746
25.0194,1759
25.0222,1734
25.0250,1764
25.0278,1785
25.0306,1777
25.0333,1786
25.0361,1855
25.0389,1882
25.0417,1853
25.0444,1862
25.0472,1893
25.0500,1904
25.0528,1910
25.0556,1974
25.0583,1989
25.0611,1954
25.0639,1956
25.0667,1990
25.0694,2007
25.0722,1987
25.0750,2022
25.0778,2054
25.0806,2012
25.0833,1963
25.0861,1957
25.0889,1922
25.0917,1878
25.0944,1883
25.0972,1963
25.1000,2010
25.1028,2094
25.1056,2228
25.1083,2378
25.1111,2544
25.1139,2701
25.1167,2855
25.1194,2800
25.1222,2526
25.1250,2264
25.1278,2038
25.1306,1865
25.1333,1756
25.1361,1788
25.1389,1825
25.1417,1760
25.1444,1735
25.1472,1729
25.1500,1672
25.1528,1612
25.1556,1619
25.1583,1643
25.1611,1606
25.1639,1599
25.1667,1620
25.1694,1574
25.1722,1501
25.1750,1486
25.1778,1525
25.1806,1519
25.1833,1525
25.1861,1564
25.1889,1537
25.1917,1470
25.1944,1458
25.1972,1521
25.2000,1534
25.2028,1534
25.2056,1569
25.2083,1589
25.2111,1569
25.2139,1533
25.2167,1558
25.2194,1563
25.2222,1535
25.2250,1586
25.2278,1627
25.2306,1603
25.2333,1566
25.2361,1602
25.2389,1633
25.2417,1602
25.2444,1634
25.2472,1660
25.2500,1653
25.2528,1604
25.2556,1635
25.2583,1681
25.2611,1647
25.2639,1663
25.2667,1698
25.2694,1688
25.2722,1637
25.2750,1648
25.2778,1699
25.2806,1691
25.2833,1683
25.2861,1698
25.2889,1709
25.2917,1676
25.2944,1678
25.2972,1713
25.3000,1708
25.3028,1693
25.3056,1731
25.3083,1752
25.3111,1730
25.3139,1702
25.3167,1757
25.3194,1762
25.3222,1649
25.3250,1736
25.3278,1728
25.3306,1716
25.3333,1729
25.3361,1774
25.3389,1745
25.3417,1669
25.3444,1668
25.3472,1672
25.3500,1641
25.3528,1642
25.3556,1729
25.3583,1739
25.3611,1683
25.3639,1669
25.3667,1665
25.3694,1657
25.3722,1621
25.3750,1663
25.3778,1674
25.3806,1604
25.3833,1585
25.3861,1603
25.3889,1600
25.3917,1599
25.3944,1645
25.3972,1646
25.4000,1584
25.4028,1564
25.4056,1611
25.4083,1610
25.4111,1602
25.4139,1642
25.4167,1685
25.4194,1644
25.4222,1604
25.4250,1627
25.4278,1626
25.4306,1596
25.4333,1612
25.4361,1682
25.4389,1679
25.4417,1631
25.4444,1643
25.4472,1660
25.4500,1648
25.4528,1640
25.4556,1701
25.4583,1700
25.4611,1638
25.4639,1647
25.4667,1679
25.4694,1686
25.4722,1651
25.4750,1699
25.4778,1709
25.4806,1631
25.4833,1598
25.4861,1622
25.4889,1639
25.4917,1639
25.4944,1682
25.4972,1734
25.5000,1685
25.5028,1665
25.5056,1688
25.5083,1674
25.5111,1652
25.5139,1658
25.5167,1721
25.5194,1697
25.5222,1663
25.5250,1689
25.5278,1687
25.5306,1661
25.5333,1663
25.5361,1706
25.5389,1705
25.5417,1653
25.5444,1660
25.5472,1662
25.5500,1639
25.5528,1621
25.5556,1665
25.5583,1664
25.5611,1633
25.5639,1655
25.5667,1688
25.5694,1676
25.5722,1641
25.5750,1680
25.5778,1707
25.5806,1665
25.5833,1660
25.5861,1690
25.5889,1700
25.5917,1662
25.5944,1695
25.5972,1730
25.6000,1670
25.6028,1651
25.6056,1676
25.6083,1690
25.6111,1678
25.6139,1701
25.6167,1758
25.6194,1733
25.6222,1710
25.6250,1754
25.6278,1789
25.6306,1772
25.6333,1766
25.6361,1810
25.6389,1803
25.6417,1754
25.6444,1779
25.6472,1795
25.6500,1785
25.6528,1757
25.6556,1809
25.6583,1826
25.6611,1782
25.6639,1812
25.6667,1815
25.6694,1781
25.6722,1719
25.6750,1722
25.6778,1712
25.6806,1655
25.6833,1663
25.6861,1711
25.6889,1707
25.6917,1657
25.6944,1660
25.6972,1701
25.7000,1695
25.7028,1686
25.7056,1709
25.7083,1691
25.7111,1642
25.7139,1653
25.7167,1706
25.7194,1703
25.7222,1685
25.7250,1712
25.7278,1714
25.7306,1676
25.7333,1648
25.7361,1695
25.7389,1705
25.7417,1676
25.7444,1701
25.7472,1715
25.7500,1693
25.7528,1658
25.7556,1673
25.7583,1671
25.7611,1609
25.7639,1608
25.7667,1642
25.7694,1660
25.7722,1657
25.7750,1721
25.7778,1770
25.7806,1784
25.7833,1890
25.7861,2095
25.7889,2284
25.7917,2442
25.7944,2576
25.7972,2648
25.8000,2485
25.8028,2243
25.8056,2061
25.8083,1890
25.8111,1764
25.8139,1710
25.8167,1755
25.8194,1774
25.8222,1772
25.8250,1824
25.8278,1834
25.8306,1764
25.8333,1673
25.8361,1677
25.8389,1673
25.8417,1648
25.8444,1674
25.8472,1711
25.8500,1696
25.8528,1654
25.8556,1677
25.8583,1693
25.8611,1658
25.8639,1687
25.8667,1721
25.8694,1722
25.8722,1659
25.8750,1669
25.8778,1679
25.8806,1648
25.8833,1676
25.8861,1724
25.8889,1726
25.8917,1676
25.8944,1673
25.8972,1712
25.9000,1681
25.9028,1679
25.9056,1725
25.9083,1744
25.9111,1714
25.9139,1685
25.9167,1727
25.9194,1690
25.9222,1646
25.9250,1696
25.9278,1707
25.9306,1671
25.9333,1643
25.9361,1701
25.9389,1742
25.9417,1740
25.9444,1786
25.9472,1810
25.9500,1785
25.9528,1725
25.9556,1741
25.9583,1753
25.9611,1731
25.9639,1779
25.9667,1808
25.9694,1797
25.9722,1741
25.9750,1733
25.9778,1759
25.9806,1732
25.9833,1753
25.9861,1565
25.9889,1739
25.9917,1745
25.9944,1832
25.9972,1874
26.0000,1827
26.0028,1777
26.0056,1770
26.0083,1753
26.0111,1727
26.0139,1778
26.0167,1840
26.0194,1794
26.0222,1745
26.0250,1731
26.0278,1734
26.0306,1721
26.0333,1732
26.0361,1765
26.0389,1706
26.0417,1651
26.0444,1648
26.0472,1666
26.0500,1674
26.0528,1708
26.0556,1764
26.0583,1722
26.0611,1636
26.0639,1623
26.0667,1624
26.0694,1613
26.0722,1621
26.0750,1681
26.0778,1679
26.0806,1615
26.0833,1614
26.0861,1619
26.0889,1606
26.0917,1604
26.0944,1695
26.0972,1703
26.1000,1647
26.1028,1619
26.1056,1617
26.1083,1614
26.1111,1603
26.1139,1659
26.1167,1713
26.1194,1675
26.1222,1658
26.1250,1679
26.1278,1671
26.1306,1641
26.1333,1654
26.1361,1713
26.1389,1686
26.1417,1637
26.1444,1655
26.1472,1656
26.1500,1643
26.1528,1661
26.1556,1721
26.1583,1712
26.1611,1656
26.1639,1673
26.1667,1688
26.1694,1660
26.1722,1629
26.1750,1670
26.1778,1660
26.1806,1620
26.1833,1643
26.1861,1670
26.1889,1658
26.1917,1641
26.1944,1710
26.1972,1738
26.2000,1681
26.2028,1665
26.2056,1675
26.2083,1656
26.2111,1624
26.2139,1678
26.2167,1741
26.2194,1702
26.2222,1674
26.2250,1678
26.2278,1665
26.2306,1644
26.2333,1677
26.2361,1761
26.2389,1752
26.2417,1727
26.2444,1756
26.2472,1760
26.2500,1715
26.2528,1688
26.2556,1742
26.2583,1756
26.2611,1723
26.2639,1742
26.2667,1760
26.2694,1756
26.2722,1743
26.2750,1797
26.2778,1786
26.2806,1721
26.2833,1727
26.2861,1747
26.2889,1723
26.2917,1667
26.2944,1685
26.2972,1682
26.3000,1624
26.3028,1620
26.3056,1661
26.3083,1670
26.3111,1621
26.3139,1646
26.3167,1664
26.3194,1624
26.3222,1611
26.3250,1655
26.3278,1657
26.3306,1625
26.3333,1632
26.3361,1682
26.3389,1659
26.3417,1615
26.3444,1628
26.3472,1660
26.3500,1667
26.3528,1656
26.3556,1713
26.3583,1700
26.3611,1643
26.3639,1656
26.3667,1677
26.3694,1658
26.3722,1637
26.3750,1678
26.3778,1675
26.3806,1629
26.3833,1625
26.3861,1622
26.3889,1591
26.3917,1566
26.3944,1628
26.3972,1702
26.4000,1707
26.4028,1776
26.4056,1919
