Tiempo(s),Valor_ADC
0.0028,1613
0.0056,1567
0.0083,1524
0.0111,1513
0.0139,1529
0.0167,1573
0.0194,1622
0.0222,1692
0.0250,1802
0.0278,2018
0.0306,2287
0.0333,2584
0.0361,2847
0.0389,2961
0.0417,2862
0.0444,2579
0.0472,2281
0.0500,2040
0.0528,1902
0.0556,1842
0.0583,1831
0.0611,1830
0.0639,1800
0.0667,1760
0.0694,1714
0.0722,1672
0.0750,1645
0.0778,1629
0.0806,1627
0.0833,1624
0.0861,1646
0.0889,1637
0.0917,1635
0.0944,1625
0.0972,1626
0.1000,1628
0.1028,1621
0.1056,1671
0.1083,1722
0.1111,1749
0.1139,1702
0.1167,1649
0.1194,1618
0.1222,1623
0.1250,1650
0.1278,1659
0.1306,1641
0.1333,1611
0.1361,1595
0.1389,1636
0.1417,1666
0.1444,1699
0.1472,1721
0.1500,1710
0.1528,1686
0.1556,1661
0.1583,1642
0.1611,1658
0.1639,1661
0.1667,1671
0.1694,1681
0.1722,1670
0.1750,1684
0.1778,1702
0.1806,1709
0.1833,1718
0.1861,1710
0.1889,1709
0.1917,1712
0.1944,1696
0.1972,1704
0.2000,1748
0.2028,1778
0.2056,1774
0.2083,1754
0.2111,1726
0.2139,1720
0.2167,1718
0.2194,1750
0.2222,1784
0.2250,1827
0.2278,1762
0.2306,1754
0.2333,1728
0.2361,1708
0.2389,1698
0.2417,1715
0.2444,1757
0.2472,1792
0.2500,1809
0.2528,1784
0.2556,1723
0.2583,1682
0.2611,1649
0.2639,1644
0.2667,1661
0.2694,1680
0.2722,1681
0.2750,1673
0.2778,1671
0.2806,1659
0.2833,1665
0.2861,1669
0.2889,1681
0.2917,1692
0.2944,1679
0.2972,1694
0.3000,1698
0.3028,1711
0.3056,1735
0.3083,1750
0.3111,1770
0.3139,1750
0.3167,1718
0.3194,1681
0.3222,1653
0.3250,1655
0.3278,1659
0.3306,1667
0.3333,1658
0.3361,1647
0.3389,1636
0.3417,1630
0.3444,1649
0.3472,1659
0.3500,1650
0.3528,1652
0.3556,1662
0.3583,1698
0.3611,1729
0.3639,1753
0.3667,1773
0.3694,1773
0.3722,1735
0.3750,1690
0.3778,1674
0.3806,1682
0.3833,1693
0.3861,1716
0.3889,1729
0.3917,1730
0.3944,1703
0.3972,1694
0.4000,1696
0.4028,1706
0.4056,1687
0.4083,1665
0.4111,1653
0.4139,1638
0.4167,1640
0.4194,1661
0.4222,1688
0.4250,1714
0.4278,1726
0.4306,1712
0.4333,1694
0.4361,1680
0.4389,1661
0.4417,1647
0.4444,1651
0.4472,1681
0.4500,1690
0.4528,1707
0.4556,1720
0.4583,1745
0.4611,1774
0.4639,1775
0.4667,1786
0.4694,1765
0.4722,1732
0.4750,1710
0.4778,1734
0.4806,1772
0.4833,1804
0.4861,1808
0.4889,1804
0.4917,1797
0.4944,1792
0.4972,1783
0.5000,1747
0.5028,1678
0.5056,1639
0.5083,1614
0.5111,1602
0.5139,1611
0.5167,1623
0.5194,1637
0.5222,1642
0.5250,1635
0.5278,1628
0.5306,1620
0.5333,1598
0.5361,1608
0.5389,1631
0.5417,1632
0.5444,1627
0.5472,1640
0.5500,1640
0.5528,1636
0.5556,1624
0.5583,1606
0.5611,1600
0.5639,1589
0.5667,1608
0.5694,1646
0.5722,1674
0.5750,1662
0.5778,1618
0.5806,1570
0.5833,1516
0.5861,1488
0.5889,1466
0.5917,1463
0.5944,1460
0.5972,1495
0.6000,1535
0.6028,1642
0.6056,1787
0.6083,2028
0.6111,2326
0.6139,2620
0.6167,2835
0.6194,2852
0.6222,2672
0.6250,2373
0.6278,2118
0.6306,1961
0.6333,1858
0.6361,1812
0.6389,1790
0.6417,1779
0.6444,1767
0.6472,1744
0.6500,1668
0.6528,1596
0.6556,1556
0.6583,1546
0.6611,1555
0.6639,1573
0.6667,1597
0.6694,1596
0.6722,1575
0.6750,1540
0.6778,1523
0.6806,1537
0.6833,1558
0.6861,1590
0.6889,1616
0.6917,1607
0.6944,1578
0.6972,1574
0.7000,1575
0.7028,1599
0.7056,1616
0.7083,1625
0.7111,1605
0.7139,1594
0.7167,1597
0.7194,1602
0.7222,1605
0.7250,1612
0.7278,1616
0.7306,1599
0.7333,1578
0.7361,1551
0.7389,1564
0.7417,1596
0.7444,1633
0.7472,1668
0.7500,1664
0.7528,1654
0.7556,1642
0.7583,1631
0.7611,1639
0.7639,1655
0.7667,1676
0.7694,1685
0.7722,1680
0.7750,1658
0.7778,1670
0.7806,1677
0.7833,1685
0.7861,1695
0.7889,1720
0.7917,1715
0.7944,1698
0.7972,1697
0.8000,1684
0.8028,1680
0.8056,1671
0.8083,1681
0.8111,1681
0.8139,1693
0.8167,1702
0.8194,1714
0.8222,1709
0.8250,1718
0.8278,1707
0.8306,1701
0.8333,1676
0.8361,1655
0.8389,1638
0.8417,1629
0.8444,1632
0.8472,1629
0.8500,1606
0.8528,1587
0.8556,1590
0.8583,1591
0.8611,1606
0.8639,1627
0.8667,1647
0.8694,1663
0.8722,1670
0.8750,1668
0.8778,1661
0.8806,1650
0.8833,1649
0.8861,1654
0.8889,1669
0.8917,1667
0.8944,1668
0.8972,1652
0.9000,1649
0.9028,1668
0.9056,1687
0.9083,1717
0.9111,1738
0.9139,1722
0.9167,1703
0.9194,1679
0.9222,1659
0.9250,1633
0.9278,1618
0.9306,1596
0.9333,1589
0.9361,1585
0.9389,1605
0.9417,1630
0.9444,1640
0.9472,1653
0.9500,1669
0.9528,1660
0.9556,1646
0.9583,1634
0.9611,1639
0.9639,1637
0.9667,1644
0.9694,1660
0.9722,1657
0.9750,1669
0.9778,1674
0.9806,1674
0.9833,1680
0.9861,1680
0.9889,1678
0.9917,1664
0.9944,1649
0.9972,1634
1.0000,1619
1.0028,1612
1.0056,1628
1.0083,1643
1.0111,1674
1.0139,1703
1.0167,1718
1.0194,1732
1.0222,1744
1.0250,1752
1.0278,1748
1.0306,1724
1.0333,1701
1.0361,1704
1.0389,1707
1.0417,1720
1.0444,1743
1.0472,1789
1.0500,1817
1.0528,1842
1.0556,1845
1.0583,1834
1.0611,1805
1.0639,1783
1.0667,1769
1.0694,1754
1.0722,1721
1.0750,1690
1.0778,1682
1.0806,1677
1.0833,1670
1.0861,1665
1.0889,1671
1.0917,1659
1.0944,1645
1.0972,1640
1.1000,1643
1.1028,1642
1.1056,1637
1.1083,1639
1.1111,1627
1.1139,1629
1.1167,1627
1.1194,1627
1.1222,1628
1.1250,1629
1.1278,1633
1.1306,1629
1.1333,1641
1.1361,1637
1.1389,1632
1.1417,1638
1.1444,1635
1.1472,1648
1.1500,1646
1.1528,1637
1.1556,1615
1.1583,1568
1.1611,1542
1.1639,1547
1.1667,1607
1.1694,1658
1.1722,1704
1.1750,1793
1.1778,1952
1.1806,2215
1.1833,2519
1.1861,2769
1.1889,2852
1.1917,2715
1.1944,2474
1.1972,2232
1.2000,2057
1.2028,1946
1.2056,1889
1.2083,1875
1.2111,1878
1.2139,1872
1.2167,1843
1.2194,1788
1.2222,1715
1.2250,1663
1.2278,1634
1.2306,1634
1.2333,1639
1.2361,1645
1.2389,1665
1.2417,1655
1.2444,1660
1.2472,1657
1.2500,1654
1.2528,1653
1.2556,1667
1.2583,1654
1.2611,1635
1.2639,1617
1.2667,1630
1.2694,1638
1.2722,1656
1.2750,1685
1.2778,1702
1.2806,1706
1.2833,1707
1.2861,1685
1.2889,1671
1.2917,1661
1.2944,1679
1.2972,1705
1.3000,1721
1.3028,1720
1.3056,1714
1.3083,1715
1.3111,1701
1.3139,1698
1.3167,1707
1.3194,1724
1.3222,1718
1.3250,1710
1.3278,1712
1.3306,1715
1.3333,1716
1.3361,1725
1.3389,1757
1.3417,1756
1.3444,1755
1.3472,1738
1.3500,1730
1.3528,1720
1.3556,1738
1.3583,1754
1.3611,1742
1.3639,1749
1.3667,1762
1.3694,1778
1.3722,1792
1.3750,1791
1.3778,1764
1.3806,1779
1.3833,1787
1.3861,1798
1.3889,1782
1.3917,1750
1.3944,1735
1.3972,1745
1.4000,1763
1.4028,1775
1.4056,1787
1.4083,1786
1.4111,1773
1.4139,1742
1.4167,1719
1.4194,1722
1.4222,1735
1.4250,1756
1.4278,1761
1.4306,1752
1.4333,1748
1.4361,1754
1.4389,1747
1.4417,1737
1.4444,1735
1.4472,1741
1.4500,1746
1.4528,1766
1.4556,1770
1.4583,1770
1.4611,1759
1.4639,1758
1.4667,1745
1.4694,1732
1.4722,1732
1.4750,1736
1.4778,1736
1.4806,1721
1.4833,1702
1.4861,1695
1.4889,1710
1.4917,1723
1.4944,1742
1.4972,1761
1.5000,1786
1.5028,1787
1.5056,1781
1.5083,1758
1.5111,1735
1.5139,1737
1.5167,1736
1.5194,1731
1.5222,1737
1.5250,1730
1.5278,1732
1.5306,1722
1.5333,1733
1.5361,1739
1.5389,1745
1.5417,1738
1.5444,1737
1.5472,1739
1.5500,1726
1.5528,1725
1.5556,1728
1.5583,1716
1.5611,1716
1.5639,1715
1.5667,1720
1.5694,1710
1.5722,1695
1.5750,1689
1.5778,1686
1.5806,1717
1.5833,1744
1.5861,1772
1.5889,1794
1.5917,1812
1.5944,1820
1.5972,1821
1.6000,1835
1.6028,1832
1.6056,1824
1.6083,1809
1.6111,1802
1.6139,1820
1.6167,1842
1.6194,1844
1.6222,1840
1.6250,1829
1.6278,1823
1.6306,1802
1.6333,1789
1.6361,1770
1.6389,1751
1.6417,1715
1.6444,1707
1.6472,1702
1.6500,1687
1.6528,1664
1.6556,1661
1.6583,1650
1.6611,1633
1.6639,1631
1.6667,1643
1.6694,1642
1.6722,1647
1.6750,1638
1.6778,1643
1.6806,1657
1.6833,1678
1.6861,1695
1.6889,1694
1.6917,1693
1.6944,1685
1.6972,1688
1.7000,1686
1.7028,1679
1.7056,1662
1.7083,1656
1.7111,1646
1.7139,1653
1.7167,1651
1.7194,1627
1.7222,1584
1.7250,1567
1.7278,1571
1.7306,1601
1.7333,1628
1.7361,1674
1.7389,1780
1.7417,1951
1.7444,2222
1.7472,2515
1.7500,2812
1.7528,2970
1.7556,2927
1.7583,2672
1.7611,2337
1.7639,2067
1.7667,1895
1.7694,1822
1.7722,1804
1.7750,1819
1.7778,1813
1.7806,1785
1.7833,1744
1.7861,1703
1.7889,1675
1.7917,1653
1.7944,1635
1.7972,1640
1.8000,1657
1.8028,1655
1.8056,1639
1.8083,1619
1.8111,1607
1.8139,1604
1.8167,1628
1.8194,1638
1.8222,1623
1.8250,1613
1.8278,1591
1.8306,1593
1.8333,1615
1.8361,1632
1.8389,1650
1.8417,1663
1.8444,1669
1.8472,1664
1.8500,1647
1.8528,1640
1.8556,1637
1.8583,1655
1.8611,1671
1.8639,1676
1.8667,1645
1.8694,1624
1.8722,1617
1.8750,1633
1.8778,1664
1.8806,1677
1.8833,1671
1.8861,1684
1.8889,1671
1.8917,1656
1.8944,1655
1.8972,1668
1.9000,1660
1.9028,1659
1.9056,1663
1.9083,1660
1.9111,1680
1.9139,1685
1.9167,1707
1.9194,1719
1.9222,1721
1.9250,1741
1.9278,1745
1.9306,1748
1.9333,1733
1.9361,1731
1.9389,1745
1.9417,1794
1.9444,1783
1.9472,1777
1.9500,1744
1.9528,1700
1.9556,1687
1.9583,1683
1.9611,1697
1.9639,1721
1.9667,1727
1.9694,1711
1.9722,1686
1.9750,1675
1.9778,1661
1.9806,1671
1.9833,1671
1.9861,1671
1.9889,1649
1.9917,1629
1.9944,1624
1.9972,1625
2.0000,1640
2.0028,1671
2.0056,1672
2.0083,1670
2.0111,1658
2.0139,1657
2.0167,1667
2.0194,1703
2.0222,1715
2.0250,1713
2.0278,1709
2.0306,1683
2.0333,1663
2.0361,1667
2.0389,1681
2.0417,1687
2.0444,1688
2.0472,1686
2.0500,1666
2.0528,1662
2.0556,1676
2.0583,1701
2.0611,1710
2.0639,1707
2.0667,1685
2.0694,1660
2.0722,1652
2.0750,1666
2.0778,1680
2.0806,1691
2.0833,1700
2.0861,1698
2.0889,1699
2.0917,1697
2.0944,1702
2.0972,1697
2.1000,1710
2.1028,1701
2.1056,1692
2.1083,1669
2.1111,1652
2.1139,1658
2.1167,1661
2.1194,1676
2.1222,1690
2.1250,1708
2.1278,1703
2.1306,1675
2.1333,1665
2.1361,1665
2.1389,1671
2.1417,1662
2.1444,1658
2.1472,1669
2.1500,1693
2.1528,1704
2.1556,1702
2.1583,1706
2.1611,1705
2.1639,1735
2.1667,1750
2.1694,1767
2.1722,1762
2.1750,1771
2.1778,1780
2.1806,1801
2.1833,1810
2.1861,1813
2.1889,1797
2.1917,1776
2.1944,1771
2.1972,1768
2.2000,1768
2.2028,1747
2.2056,1723
2.2083,1688
2.2111,1665
2.2139,1646
2.2167,1624
2.2194,1608
2.2222,1619
2.2250,1626
2.2278,1626
2.2306,1631
2.2333,1635
2.2361,1637
2.2389,1637
2.2417,1647
2.2444,1646
2.2472,1639
2.2500,1633
2.2528,1627
2.2556,1635
2.2583,1635
2.2611,1643
2.2639,1634
2.2667,1626
2.2694,1621
2.2722,1615
2.2750,1630
2.2778,1636
2.2806,1634
2.2833,1617
2.2861,1581
2.2889,1530
2.2917,1497
2.2944,1495
2.2972,1529
2.3000,1591
2.3028,1669
2.3056,1789
2.3083,1946
2.3111,2166
2.3139,2449
2.3167,2730
2.3194,2919
2.3222,2902
2.3250,2685
2.3278,2364
2.3306,2067
2.3333,1889
2.3361,1802
2.3389,1784
2.3417,1776
2.3444,1772
2.3472,1764
2.3500,1742
2.3528,1712
2.3556,1667
2.3583,1627
2.3611,1599
2.3639,1589
2.3667,1593
2.3694,1585
2.3722,1578
2.3750,1565
2.3778,1565
2.3806,1585
2.3833,1613
2.3861,1651
2.3889,1667
2.3917,1657
2.3944,1645
2.3972,1623
2.4000,1617
2.4028,1629
2.4056,1639
2.4083,1657
2.4111,1663
2.4139,1656
2.4167,1642
2.4194,1622
2.4222,1616
2.4250,1616
2.4278,1634
2.4306,1622
2.4333,1609
2.4361,1606
2.4389,1610
2.4417,1631
2.4444,1647
2.4472,1674
2.4500,1698
2.4528,1682
2.4556,1670
2.4583,1644
2.4611,1630
2.4639,1628
2.4667,1651
2.4694,1688
2.4722,1720
2.4750,1738
2.4778,1725
2.4806,1715
2.4833,1707
2.4861,1725
2.4889,1718
2.4917,1701
2.4944,1694
2.4972,1690
2.5000,1705
2.5028,1728
2.5056,1744
2.5083,1754
2.5111,1690
2.5139,1707
2.5167,1694
2.5194,1676
2.5222,1669
2.5250,1676
2.5278,1668
2.5306,1666
2.5333,1671
2.5361,1671
2.5389,1676
2.5417,1680
2.5444,1685
2.5472,1678
2.5500,1665
2.5528,1653
2.5556,1637
2.5583,1634
2.5611,1637
2.5639,1655
2.5667,1665
2.5694,1679
2.5722,1682
2.5750,1668
2.5778,1651
2.5806,1637
2.5833,1636
2.5861,1646
2.5889,1649
2.5917,1657
2.5944,1665
2.5972,1671
2.6000,1673
2.6028,1654
2.6056,1649
2.6083,1645
2.6111,1653
2.6139,1678
2.6167,1676
2.6194,1673
2.6222,1675
2.6250,1671
2.6278,1685
2.6306,1677
2.6333,1672
2.6361,1671
2.6389,1681
2.6417,1693
2.6444,1697
2.6472,1678
2.6500,1669
2.6528,1665
2.6556,1649
2.6583,1637
2.6611,1631
2.6639,1627
2.6667,1639
2.6694,1651
2.6722,1675
2.6750,1685
2.6778,1661
2.6806,1664
2.6833,1663
2.6861,1644
2.6889,1637
2.6917,1628
2.6944,1637
2.6972,1649
2.7000,1644
2.7028,1639
2.7056,1651
2.7083,1664
2.7111,1671
2.7139,1695
2.7167,1686
2.7194,1695
2.7222,1688
2.7250,1703
2.7278,1710
2.7306,1710
2.7333,1721
2.7361,1741
2.7389,1738
2.7417,1695
2.7444,1660
2.7472,1666
2.7500,1703
2.7528,1732
2.7556,1759
2.7583,1775
2.7611,1767
2.7639,1782
2.7667,1795
2.7694,1783
2.7722,1772
2.7750,1741
2.7778,1698
2.7806,1679
2.7833,1688
2.7861,1684
2.7889,1672
2.7917,1652
2.7944,1633
2.7972,1595
2.8000,1580
2.8028,1576
2.8056,1568
2.8083,1570
2.8111,1583
2.8139,1595
2.8167,1593
2.8194,1581
2.8222,1568
2.8250,1577
2.8278,1592
2.8306,1618
2.8333,1621
2.8361,1616
2.8389,1612
2.8417,1609
2.8444,1628
2.8472,1629
2.8500,1619
2.8528,1613
2.8556,1603
2.8583,1576
2.8611,1545
2.8639,1538
2.8667,1555
2.8694,1583
2.8722,1621
2.8750,1696
2.8778,1800
2.8806,1970
2.8833,2256
2.8861,2544
2.8889,2770
2.8917,2818
2.8944,2636
2.8972,2351
2.9000,2084
2.9028,1905
2.9056,1809
2.9083,1777
2.9111,1783
2.9139,1792
2.9167,1804
2.9194,1790
2.9222,1748
2.9250,1698
2.9278,1639
2.9306,1617
2.9333,1605
2.9361,1610
2.9389,1638
2.9417,1642
2.9444,1624
2.9472,1599
2.9500,1574
2.9528,1588
2.9556,1591
2.9583,1604
2.9611,1619
2.9639,1618
2.9667,1605
2.9694,1579
2.9722,1594
2.9750,1624
2.9778,1660
2.9806,1676
2.9833,1676
2.9861,1659
2.9889,1617
2.9917,1588
2.9944,1594
2.9972,1607
3.0000,1644
3.0028,1664
3.0056,1679
3.0083,1658
3.0111,1634
3.0139,1614
3.0167,1630
3.0194,1656
3.0222,1685
3.0250,1705
3.0278,1711
3.0306,1702
3.0333,1695
3.0361,1703
3.0389,1726
3.0417,1731
3.0444,1742
3.0472,1725
3.0500,1706
3.0528,1701
3.0556,1700
3.0583,1699
3.0611,1700
3.0639,1685
3.0667,1688
3.0694,1688
3.0722,1704
3.0750,1732
3.0778,1749
3.0806,1791
3.0833,1772
3.0861,1757
3.0889,1740
3.0917,1735
3.0944,1715
3.0972,1716
3.1000,1739
3.1028,1753
3.1056,1746
3.1083,1735
3.1111,1721
3.1139,1718
3.1167,1718
3.1194,1716
3.1222,1733
3.1250,1736
3.1278,1722
3.1306,1706
3.1333,1707
3.1361,1687
3.1389,1683
3.1417,1683
3.1444,1688
3.1472,1693
3.1500,1695
3.1528,1705
3.1556,1710
3.1583,1715
3.1611,1716
3.1639,1726
3.1667,1720
3.1694,1732
3.1722,1745
3.1750,1736
3.1778,1729
3.1806,1724
3.1833,1725
3.1861,1723
3.1889,1715
3.1917,1721
3.1944,1730
3.1972,1736
3.2000,1746
3.2028,1745
3.2056,1743
3.2083,1728
3.2111,1718
3.2139,1713
3.2167,1717
3.2194,1719
3.2222,1719
3.2250,1715
3.2278,1713
3.2306,1705
3.2333,1686
3.2361,1668
3.2389,1663
3.2417,1680
3.2444,1692
3.2472,1688
3.2500,1683
3.2528,1695
3.2556,1706
3.2583,1726
3.2611,1746
3.2639,1755
3.2667,1762
3.2694,1742
3.2722,1725
3.2750,1725
3.2778,1712
3.2806,1713
3.2833,1706
3.2861,1692
3.2889,1683
3.2917,1690
3.2944,1725
3.2972,1763
3.3000,1773
3.3028,1777
3.3056,1765
3.3083,1748
3.3111,1743
3.3139,1765
3.3167,1772
3.3194,1789
3.3222,1800
3.3250,1786
3.3278,1777
3.3306,1798
3.3333,1816
3.3361,1833
3.3389,1824
3.3417,1797
3.3444,1769
3.3472,1744
3.3500,1719
3.3528,1692
3.3556,1688
3.3583,1687
3.3611,1688
3.3639,1688
3.3667,1669
3.3694,1652
3.3722,1638
3.3750,1641
3.3778,1653
3.3806,1653
3.3833,1661
3.3861,1640
3.3889,1627
3.3917,1645
3.3944,1640
3.3972,1634
3.4000,1631
3.4028,1643
3.4056,1639
3.4083,1625
3.4111,1617
3.4139,1624
3.4167,1639
3.4194,1644
3.4222,1654
3.4250,1651
3.4278,1651
3.4306,1632
3.4333,1598
3.4361,1564
3.4389,1540
3.4417,1528
3.4444,1544
3.4472,1586
3.4500,1667
3.4528,1805
3.4556,2040
3.4583,2331
3.4611,2636
3.4639,2895
3.4667,3003
3.4694,2863
3.4722,2556
3.4750,2220
3.4778,1966
3.4806,1842
3.4833,1806
3.4861,1809
3.4889,1816
3.4917,1799
3.4944,1766
3.4972,1713
3.5000,1659
3.5028,1622
3.5056,1605
3.5083,1601
3.5111,1621
3.5139,1649
3.5167,1642
3.5194,1636
3.5222,1620
3.5250,1607
3.5278,1592
3.5306,1599
3.5333,1624
3.5361,1635
3.5389,1635
3.5417,1605
3.5444,1571
3.5472,1568
3.5500,1583
3.5528,1619
3.5556,1643
3.5583,1651
3.5611,1642
3.5639,1635
3.5667,1625
3.5694,1620
3.5722,1630
3.5750,1642
3.5778,1636
3.5806,1630
3.5833,1637
3.5861,1648
3.5889,1668
3.5917,1685
3.5944,1704
3.5972,1697
3.6000,1697
3.6028,1681
3.6056,1674
3.6083,1671
3.6111,1669
3.6139,1681
3.6167,1682
3.6194,1683
3.6222,1675
3.6250,1675
3.6278,1661
3.6306,1677
3.6333,1678
3.6361,1700
3.6389,1718
3.6417,1735
3.6444,1741
3.6472,1740
3.6500,1731
3.6528,1734
3.6556,1703
3.6583,1704
3.6611,1723
3.6639,1728
3.6667,1715
3.6694,1693
3.6722,1673
3.6750,1688
3.6778,1707
3.6806,1715
3.6833,1713
3.6861,1698
3.6889,1689
3.6917,1690
3.6944,1690
3.6972,1680
3.7000,1652
3.7028,1620
3.7056,1591
3.7083,1582
3.7111,1601
3.7139,1644
3.7167,1687
3.7194,1710
3.7222,1723
3.7250,1737
3.7278,1726
3.7306,1705
3.7333,1699
3.7361,1694
3.7389,1690
3.7417,1682
3.7444,1699
3.7472,1698
3.7500,1704
3.7528,1714
3.7556,1720
3.7583,1724
3.7611,1710
3.7639,1708
3.7667,1690
3.7694,1680
3.7722,1681
3.7750,1694
3.7778,1708
3.7806,1714
3.7833,1676
3.7861,1636
3.7889,1594
3.7917,1599
3.7944,1618
3.7972,1646
3.8000,1669
3.8028,1693
3.8056,1709
3.8083,1695
3.8111,1699
3.8139,1695
3.8167,1680
3.8194,1682
3.8222,1696
3.8250,1683
3.8278,1674
3.8306,1668
3.8333,1679
3.8361,1683
3.8389,1677
3.8417,1673
3.8444,1656
3.8472,1617
3.8500,1602
3.8528,1602
3.8556,1633
3.8583,1663
3.8611,1688
3.8639,1711
3.8667,1700
3.8694,1682
3.8722,1689
3.8750,1683
3.8778,1696
3.8806,1685
3.8833,1690
3.8861,1702
3.8889,1719
3.8917,1751
3.8944,1777
3.8972,1780
3.9000,1774
3.9028,1764
3.9056,1765
3.9083,1757
3.9111,1765
3.9139,1778
3.9167,1771
3.9194,1763
3.9222,1756
3.9250,1766
3.9278,1765
3.9306,1768
3.9333,1739
3.9361,1700
3.9389,1675
3.9417,1659
3.9444,1646
3.9472,1635
3.9500,1626
3.9528,1614
3.9556,1609
3.9583,1606
3.9611,1598
3.9639,1607
3.9667,1612
3.9694,1616
3.9722,1633
3.9750,1652
3.9778,1669
3.9806,1677
3.9833,1676
3.9861,1663
3.9889,1661
3.9917,1654
3.9944,1652
3.9972,1647
4.0000,1640
4.0028,1634
4.0056,1647
4.0083,1649
4.0111,1631
4.0139,1610
4.0167,1566
4.0194,1529
4.0222,1536
4.0250,1539
4.0278,1569
4.0306,1604
4.0333,1709
4.0361,1862
4.0389,2086
4.0417,2372
4.0444,2672
4.0472,2884
4.0500,2873
4.0528,2670
4.0556,2353
4.0583,2086
4.0611,1895
4.0639,1813
4.0667,1772
4.0694,1775
4.0722,1771
4.0750,1759
4.0778,1711
4.0806,1672
4.0833,1631
4.0861,1605
4.0889,1596
4.0917,1603
4.0944,1623
4.0972,1633
4.1000,1642
4.1028,1620
4.1056,1590
4.1083,1576
4.1111,1591
4.1139,1601
4.1167,1612
4.1194,1618
4.1222,1608
4.1250,1602
4.1278,1596
4.1306,1615
4.1333,1607
4.1361,1592
4.1389,1596
4.1417,1580
4.1444,1594
4.1472,1597
4.1500,1615
4.1528,1635
4.1556,1650
4.1583,1668
4.1611,1668
4.1639,1652
4.1667,1626
4.1694,1616
4.1722,1624
4.1750,1648
4.1778,1651
4.1806,1654
4.1833,1652
4.1861,1651
4.1889,1645
4.1917,1659
4.1944,1671
4.1972,1679
4.2000,1672
4.2028,1671
4.2056,1667
4.2083,1662
4.2111,1680
4.2139,1694
4.2167,1720
4.2194,1717
4.2222,1712
4.2250,1698
4.2278,1676
4.2306,1676
4.2333,1690
4.2361,1720
4.2389,1760
4.2417,1747
4.2444,1714
4.2472,1675
4.2500,1653
4.2528,1662
4.2556,1681
4.2583,1692
4.2611,1691
4.2639,1673
4.2667,1656
4.2694,1649
4.2722,1665
4.2750,1672
4.2778,1675
4.2806,1677
4.2833,1655
4.2861,1639
4.2889,1642
4.2917,1637
4.2944,1646
4.2972,1653
4.3000,1660
4.3028,1658
4.3056,1664
4.3083,1645
4.3111,1634
4.3139,1656
4.3167,1669
4.3194,1682
4.3222,1683
4.3250,1675
4.3278,1656
4.3306,1655
4.3333,1672
4.3361,1690
4.3389,1681
4.3417,1667
4.3444,1655
4.3472,1641
4.3500,1640
4.3528,1655
4.3556,1675
4.3583,1672
4.3611,1690
4.3639,1689
4.3667,1678
4.3694,1676
4.3722,1664
4.3750,1659
4.3778,1669
4.3806,1660
4.3833,1661
4.3861,1657
4.3889,1662
4.3917,1669
4.3944,1680
4.3972,1690
4.4000,1687
4.4028,1661
4.4056,1633
4.4083,1627
4.4111,1640
4.4139,1655
4.4167,1665
4.4194,1664
4.4222,1667
4.4250,1665
4.4278,1639
4.4306,1651
4.4333,1661
4.4361,1681
4.4389,1681
4.4417,1679
4.4444,1663
4.4472,1629
4.4500,1614
4.4528,1620
4.4556,1648
4.4583,1692
4.4611,1728
4.4639,1742
4.4667,1734
4.4694,1718
4.4722,1733
4.4750,1742
4.4778,1756
4.4806,1754
4.4833,1750
4.4861,1742
4.4889,1737
4.4917,1746
4.4944,1749
4.4972,1746
4.5000,1725
4.5028,1730
4.5056,1746
4.5083,1767
4.5111,1788
4.5139,1785
4.5167,1762
4.5194,1705
4.5222,1664
4.5250,1640
4.5278,1635
4.5306,1644
4.5333,1648
4.5361,1645
4.5389,1657
4.5417,1653
4.5444,1640
4.5472,1625
4.5500,1639
4.5528,1654
4.5556,1664
4.5583,1668
4.5611,1660
4.5639,1663
4.5667,1652
4.5694,1644
4.5722,1637
4.5750,1618
4.5778,1611
4.5806,1614
4.5833,1621
4.5861,1648
4.5889,1662
4.5917,1665
4.5944,1649
4.5972,1609
4.6000,1563
4.6028,1552
4.6056,1558
4.6083,1597
4.6111,1661
4.6139,1738
4.6167,1840
4.6194,1999
4.6222,2237
4.6250,2498
4.6278,2717
4.6306,2796
4.6333,2652
4.6361,2394
4.6389,2165
4.6417,2023
4.6444,1931
4.6472,1880
4.6500,1855
4.6528,1847
4.6556,1829
4.6583,1804
4.6611,1754
4.6639,1693
4.6667,1628
4.6694,1604
4.6722,1613
4.6750,1627
4.6778,1657
4.6806,1681
4.6833,1682
4.6861,1659
4.6889,1626
4.6917,1614
4.6944,1607
4.6972,1617
4.7000,1645
4.7028,1670
4.7056,1677
4.7083,1659
4.7111,1637
4.7139,1646
4.7167,1655
4.7194,1670
4.7222,1675
4.7250,1670
4.7278,1671
4.7306,1653
4.7333,1643
4.7361,1650
4.7389,1683
4.7417,1706
4.7444,1715
4.7472,1708
4.7500,1709
4.7528,1702
4.7556,1705
4.7583,1717
4.7611,1722
4.7639,1726
4.7667,1714
4.7694,1718
4.7722,1724
4.7750,1723
4.7778,1738
4.7806,1751
4.7833,1751
4.7861,1744
4.7889,1746
4.7917,1742
4.7944,1737
4.7972,1742
4.8000,1752
4.8028,1773
4.8056,1785
4.8083,1787
4.8111,1777
4.8139,1767
4.8167,1771
4.8194,1849
4.8222,1832
4.8250,1814
4.8278,1804
4.8306,1812
4.8333,1820
4.8361,1822
4.8389,1821
4.8417,1801
4.8444,1768
4.8472,1739
4.8500,1731
4.8528,1743
4.8556,1758
4.8583,1765
4.8611,1760
4.8639,1744
4.8667,1717
4.8694,1716
4.8722,1721
4.8750,1750
4.8778,1765
4.8806,1773
4.8833,1759
4.8861,1736
4.8889,1712
4.8917,1729
4.8944,1743
4.8972,1765
4.9000,1768
4.9028,1756
4.9056,1752
4.9083,1750
4.9111,1758
4.9139,1778
4.9167,1785
4.9194,1775
4.9222,1769
4.9250,1759
4.9278,1729
4.9306,1725
4.9333,1744
4.9361,1764
4.9389,1789
4.9417,1788
4.9444,1782
4.9472,1751
4.9500,1749
4.9528,1747
4.9556,1744
4.9583,1728
4.9611,1720
4.9639,1725
4.9667,1714
4.9694,1727
4.9722,1750
4.9750,1747
4.9778,1761
4.9806,1756
4.9833,1752
4.9861,1735
4.9889,1726
4.9917,1712
4.9944,1712
4.9972,1725
5.0000,1733
5.0028,1751
5.0056,1745
5.0083,1750
5.0111,1735
5.0139,1738
5.0167,1744
5.0194,1767
5.0222,1779
5.0250,1777
5.0278,1769
5.0306,1773
5.0333,1776
5.0361,1775
5.0389,1782
5.0417,1776
5.0444,1760
5.0472,1779
5.0500,1800
5.0528,1822
5.0556,1849
5.0583,1873
5.0611,1865
5.0639,1839
5.0667,1816
5.0694,1808
5.0722,1819
5.0750,1800
5.0778,1782
5.0806,1761
5.0833,1749
5.0861,1733
5.0889,1716
5.0917,1706
5.0944,1700
5.0972,1681
5.1000,1669
5.1028,1671
5.1056,1645
5.1083,1623
5.1111,1632
5.1139,1643
5.1167,1656
5.1194,1663
5.1222,1675
5.1250,1671
5.1278,1670
5.1306,1679
5.1333,1688
5.1361,1694
5.1389,1698
5.1417,1691
5.1444,1684
5.1472,1668
5.1500,1664
5.1528,1655
5.1556,1645
5.1583,1626
5.1611,1591
5.1639,1552
5.1667,1548
5.1694,1567
5.1722,1624
5.1750,1688
5.1778,1794
5.1806,1976
5.1833,2217
5.1861,2503
5.1889,2776
5.1917,2939
5.1944,2904
5.1972,2666
5.2000,2346
5.2028,2063
5.2056,1894
5.2083,1824
5.2111,1824
5.2139,1836
5.2167,1841
5.2194,1821
5.2222,1764
5.2250,1702
5.2278,1638
5.2306,1609
5.2333,1580
5.2361,1610
5.2389,1638
5.2417,1668
5.2444,1657
5.2472,1644
5.2500,1625
5.2528,1614
5.2556,1627
5.2583,1651
5.2611,1662
5.2639,1643
5.2667,1621
5.2694,1591
5.2722,1575
5.2750,1582
5.2778,1619
5.2806,1651
5.2833,1666
5.2861,1662
5.2889,1646
5.2917,1631
5.2944,1617
5.2972,1640
5.3000,1674
5.3028,1698
5.3056,1687
5.3083,1682
5.3111,1661
5.3139,1657
5.3167,1664
5.3194,1690
5.3222,1716
5.3250,1725
5.3278,1717
5.3306,1707
5.3333,1695
5.3361,1691
5.3389,1713
5.3417,1727
5.3444,1716
5.3472,1693
5.3500,1678
5.3528,1680
5.3556,1686
5.3583,1692
5.3611,1697
5.3639,1712
5.3667,1687
5.3694,1680
5.3722,1681
5.3750,1690
5.3778,1703
5.3806,1728
5.3833,1716
5.3861,1706
5.3889,1675
5.3917,1650
5.3944,1644
5.3972,1637
5.4000,1662
5.4028,1674
5.4056,1683
5.4083,1690
5.4111,1711
5.4139,1727
5.4167,1733
5.4194,1731
5.4222,1714
5.4250,1691
5.4278,1673
5.4306,1673
5.4333,1672
5.4361,1675
5.4389,1678
5.4417,1685
5.4444,1678
5.4472,1677
5.4500,1683
5.4528,1681
5.4556,1700
5.4583,1710
5.4611,1715
5.4639,1707
5.4667,1702
5.4694,1672
5.4722,1654
5.4750,1656
5.4778,1681
5.4806,1684
5.4833,1673
5.4861,1660
5.4889,1654
5.4917,1664
5.4944,1683
5.4972,1695
5.5000,1701
5.5028,1703
5.5056,1704
5.5083,1702
5.5111,1703
5.5139,1673
5.5167,1674
5.5194,1673
5.5222,1693
5.5250,1699
5.5278,1702
5.5306,1698
5.5333,1682
5.5361,1671
5.5389,1667
5.5417,1687
5.5444,1681
5.5472,1653
5.5500,1643
5.5528,1641
5.5556,1655
5.5583,1665
5.5611,1683
5.5639,1694
5.5667,1699
5.5694,1691
5.5722,1673
5.5750,1668
5.5778,1671
5.5806,1689
5.5833,1713
5.5861,1717
5.5889,1720
5.5917,1737
5.5944,1735
5.5972,1742
5.6000,1766
5.6028,1765
5.6056,1760
5.6083,1753
5.6111,1753
5.6139,1752
5.6167,1749
5.6194,1729
5.6222,1716
5.6250,1712
5.6278,1737
5.6306,1758
5.6333,1782
5.6361,1789
5.6389,1794
5.6417,1787
5.6444,1755
5.6472,1715
5.6500,1703
5.6528,1687
5.6556,1650
5.6583,1624
5.6611,1616
5.6639,1613
5.6667,1611
5.6694,1623
5.6722,1605
5.6750,1608
5.6778,1601
5.6806,1610
5.6833,1619
5.6861,1627
5.6889,1634
5.6917,1641
5.6944,1623
5.6972,1622
5.7000,1608
5.7028,1602
5.7056,1608
5.7083,1618
5.7111,1645
5.7139,1658
5.7167,1663
5.7194,1652
5.7222,1625
5.7250,1570
5.7278,1509
5.7306,1483
5.7333,1497
5.7361,1543
5.7389,1601
5.7417,1662
5.7444,1756
5.7472,1898
5.7500,2123
5.7528,2421
5.7556,2714
5.7583,2899
5.7611,2897
5.7639,2658
5.7667,2284
5.7694,1985
5.7722,1795
5.7750,1732
5.7778,1753
5.7806,1788
5.7833,1806
5.7861,1796
5.7889,1768
5.7917,1715
5.7944,1653
5.7972,1617
5.8000,1603
5.8028,1597
5.8056,1609
5.8083,1628
5.8111,1625
5.8139,1616
5.8167,1586
5.8194,1572
5.8222,1566
5.8250,1570
5.8278,1590
5.8306,1623
5.8333,1629
5.8361,1633
5.8389,1626
5.8417,1628
5.8444,1632
5.8472,1622
5.8500,1603
5.8528,1589
5.8556,1582
5.8583,1589
5.8611,1631
5.8639,1646
5.8667,1665
5.8694,1675
5.8722,1667
5.8750,1650
5.8778,1635
5.8806,1627
5.8833,1638
5.8861,1643
5.8889,1673
5.8917,1688
5.8944,1671
5.8972,1671
5.9000,1668
5.9028,1661
5.9056,1652
5.9083,1656
5.9111,1660
5.9139,1668
5.9167,1671
5.9194,1688
5.9222,1700
5.9250,1720
5.9278,1729
5.9306,1728
5.9333,1717
5.9361,1690
5.9389,1669
5.9417,1679
5.9444,1715
5.9472,1749
5.9500,1701
5.9528,1717
5.9556,1718
5.9583,1714
5.9611,1709
5.9639,1717
5.9667,1711
5.9694,1717
5.9722,1719
5.9750,1724
5.9778,1705
5.9806,1709
5.9833,1691
5.9861,1678
5.9889,1681
5.9917,1695
5.9944,1686
5.9972,1697
6.0000,1690
6.0028,1676
6.0056,1672
6.0083,1671
6.0111,1672
6.0139,1686
6.0167,1692
6.0194,1689
6.0222,1687
6.0250,1676
6.0278,1683
6.0306,1689
6.0333,1682
6.0361,1683
6.0389,1660
6.0417,1668
6.0444,1674
6.0472,1676
6.0500,1655
6.0528,1644
6.0556,1649
6.0583,1682
6.0611,1706
6.0639,1720
6.0667,1717
6.0694,1708
6.0722,1697
6.0750,1686
6.0778,1677
6.0806,1682
6.0833,1682
6.0861,1675
6.0889,1683
6.0917,1674
6.0944,1659
6.0972,1646
6.1000,1637
6.1028,1626
6.1056,1622
6.1083,1648
6.1111,1671
6.1139,1690
6.1167,1694
6.1194,1674
6.1222,1652
6.1250,1630
6.1278,1648
6.1306,1668
6.1333,1665
6.1361,1664
6.1389,1668
6.1417,1670
6.1444,1661
6.1472,1659
6.1500,1659
6.1528,1657
6.1556,1653
6.1583,1665
6.1611,1675
6.1639,1693
6.1667,1699
6.1694,1708
6.1722,1708
6.1750,1668
6.1778,1667
6.1806,1678
6.1833,1673
6.1861,1677
6.1889,1699
6.1917,1726
6.1944,1742
6.1972,1750
6.2000,1770
6.2028,1781
6.2056,1784
6.2083,1775
6.2111,1775
6.2139,1770
6.2167,1756
6.2194,1725
6.2222,1686
6.2250,1656
6.2278,1640
6.2306,1617
6.2333,1616
6.2361,1612
6.2389,1601
6.2417,1599
6.2444,1601
6.2472,1612
6.2500,1611
6.2528,1615
6.2556,1610
6.2583,1606
6.2611,1594
6.2639,1573
6.2667,1542
6.2694,1542
6.2722,1569
6.2750,1593
6.2778,1627
6.2806,1646
6.2833,1655
6.2861,1660
6.2889,1663
6.2917,1652
6.2944,1636
6.2972,1610
6.3000,1584
6.3028,1559
6.3056,1530
6.3083,1530
6.3111,1543
6.3139,1576
6.3167,1616
6.3194,1717
6.3222,1859
6.3250,2089
6.3278,2385
6.3306,2666
6.3333,2800
6.3361,2734
6.3389,2488
6.3417,2211
6.3444,2007
6.3472,1887
6.3500,1810
6.3528,1750
6.3556,1729
6.3583,1726
6.3611,1729
6.3639,1717
6.3667,1680
6.3694,1641
6.3722,1600
6.3750,1589
6.3778,1587
6.3806,1607
6.3833,1621
6.3861,1629
6.3889,1637
6.3917,1614
6.3944,1597
6.3972,1590
6.4000,1604
6.4028,1596
6.4056,1605
6.4083,1601
6.4111,1604
6.4139,1598
6.4167,1581
6.4194,1569
6.4222,1566
6.4250,1572
6.4278,1586
6.4306,1608
6.4333,1619
6.4361,1626
6.4389,1647
6.4417,1659
6.4444,1663
6.4472,1658
6.4500,1634
6.4528,1620
6.4556,1617
6.4583,1635
6.4611,1657
6.4639,1674
6.4667,1664
6.4694,1653
6.4722,1638
6.4750,1616
6.4778,1621
6.4806,1631
6.4833,1650
6.4861,1674
6.4889,1685
6.4917,1664
6.4944,1655
6.4972,1657
6.5000,1685
6.5028,1716
6.5056,1737
6.5083,1735
6.5111,1716
6.5139,1693
6.5167,1684
6.5194,1683
6.5222,1767
6.5250,1768
6.5278,1768
6.5306,1758
6.5333,1751
6.5361,1743
6.5389,1727
6.5417,1722
6.5444,1719
6.5472,1718
6.5500,1715
6.5528,1702
6.5556,1671
6.5583,1668
6.5611,1676
6.5639,1673
6.5667,1669
6.5694,1687
6.5722,1710
6.5750,1724
6.5778,1747
6.5806,1753
6.5833,1706
6.5861,1649
6.5889,1650
6.5917,1660
6.5944,1686
6.5972,1722
6.6000,1731
6.6028,1713
6.6056,1689
6.6083,1677
6.6111,1676
6.6139,1687
6.6167,1704
6.6194,1714
6.6222,1716
6.6250,1709
6.6278,1718
6.6306,1697
6.6333,1705
6.6361,1710
6.6389,1725
6.6417,1728
6.6444,1729
6.6472,1724
6.6500,1723
6.6528,1725
6.6556,1720
6.6583,1720
6.6611,1718
6.6639,1715
6.6667,1712
6.6694,1703
6.6722,1692
6.6750,1683
6.6778,1691
6.6806,1702
6.6833,1685
6.6861,1690
6.6889,1700
6.6917,1708
6.6944,1726
6.6972,1753
6.7000,1756
6.7028,1747
6.7056,1732
6.7083,1722
6.7111,1723
6.7139,1735
6.7167,1752
6.7194,1788
6.7222,1813
6.7250,1833
6.7278,1833
6.7306,1828
6.7333,1820
6.7361,1803
6.7389,1804
6.7417,1812
6.7444,1811
6.7472,1801
6.7500,1808
6.7528,1797
6.7556,1787
6.7583,1801
6.7611,1807
6.7639,1801
6.7667,1795
6.7694,1790
6.7722,1757
6.7750,1711
6.7778,1700
6.7806,1697
6.7833,1698
6.7861,1704
6.7889,1708
6.7917,1708
6.7944,1712
6.7972,1712
6.8000,1703
6.8028,1688
6.8056,1667
6.8083,1666
6.8111,1659
6.8139,1660
6.8167,1663
6.8194,1667
6.8222,1691
6.8250,1705
6.8278,1708
6.8306,1696
6.8333,1697
6.8361,1712
6.8389,1725
6.8417,1722
6.8444,1691
6.8472,1647
6.8500,1611
6.8528,1589
6.8556,1579
6.8583,1602
6.8611,1653
6.8639,1706
6.8667,1793
6.8694,1927
6.8722,2133
6.8750,2399
6.8778,2681
6.8806,2894
6.8833,2913
6.8861,2719
6.8889,2436
6.8917,2166
6.8944,1985
6.8972,1881
6.9000,1842
6.9028,1845
6.9056,1865
6.9083,1877
6.9111,1855
6.9139,1807
6.9167,1736
6.9194,1683
6.9222,1657
6.9250,1654
6.9278,1672
6.9306,1698
6.9333,1701
6.9361,1682
6.9389,1666
6.9417,1648
6.9444,1645
6.9472,1654
6.9500,1677
6.9528,1695
6.9556,1694
6.9583,1680
6.9611,1680
6.9639,1679
6.9667,1693
6.9694,1700
6.9722,1676
6.9750,1654
6.9778,1637
6.9806,1638
6.9833,1650
6.9861,1660
6.9889,1670
6.9917,1692
6.9944,1710
6.9972,1725
7.0000,1731
7.0028,1736
7.0056,1743
7.0083,1766
7.0111,1781
7.0139,1775
7.0167,1739
7.0194,1712
7.0222,1694
7.0250,1700
7.0278,1710
7.0306,1728
7.0333,1737
7.0361,1734
7.0389,1741
7.0417,1736
7.0444,1743
7.0472,1762
7.0500,1775
7.0528,1777
7.0556,1754
7.0583,1747
7.0611,1749
7.0639,1764
7.0667,1766
7.0694,1781
7.0722,1780
7.0750,1777
7.0778,1767
7.0806,1753
7.0833,1736
7.0861,1737
7.0889,1751
7.0917,1770
7.0944,1787
7.0972,1784
7.1000,1764
7.1028,1734
7.1056,1707
7.1083,1711
7.1111,1729
7.1139,1737
7.1167,1736
7.1194,1745
7.1222,1738
7.1250,1738
7.1278,1735
7.1306,1738
7.1333,1731
7.1361,1744
7.1389,1760
7.1417,1741
7.1444,1715
7.1472,1718
7.1500,1723
7.1528,1749
7.1556,1761
7.1583,1767
7.1611,1758
7.1639,1747
7.1667,1741
7.1694,1752
7.1722,1767
7.1750,1746
7.1778,1746
7.1806,1730
7.1833,1709
7.1861,1690
7.1889,1693
7.1917,1701
7.1944,1707
7.1972,1716
7.2000,1700
7.2028,1673
7.2056,1691
7.2083,1698
7.2111,1718
7.2139,1727
7.2167,1725
7.2194,1715
7.2222,1716
7.2250,1695
7.2278,1676
7.2306,1675
7.2333,1677
7.2361,1686
7.2389,1703
7.2417,1709
7.2444,1720
7.2472,1725
7.2500,1742
7.2528,1753
7.2556,1778
7.2583,1791
7.2611,1781
7.2639,1772
7.2667,1746
7.2694,1741
7.2722,1744
7.2750,1751
7.2778,1760
7.2806,1773
7.2833,1763
7.2861,1773
7.2889,1772
7.2917,1776
7.2944,1780
7.2972,1791
7.3000,1787
7.3028,1765
7.3056,1760
7.3083,1752
7.3111,1745
7.3139,1734
7.3167,1725
7.3194,1703
7.3222,1671
7.3250,1651
7.3278,1643
7.3306,1647
7.3333,1638
7.3361,1631
7.3389,1643
7.3417,1640
7.3444,1619
7.3472,1622
7.3500,1641
7.3528,1657
7.3556,1671
7.3583,1659
7.3611,1658
7.3639,1649
7.3667,1631
7.3694,1613
7.3722,1603
7.3750,1601
7.3778,1610
7.3806,1619
7.3833,1619
7.3861,1631
7.3889,1628
7.3917,1590
7.3944,1543
7.3972,1515
7.4000,1537
7.4028,1583
7.4056,1642
7.4083,1733
7.4111,1880
7.4139,2108
7.4167,2412
7.4194,2719
7.4222,2944
7.4250,2975
7.4278,2784
7.4306,2442
7.4333,2119
7.4361,1900
7.4389,1796
7.4417,1777
7.4444,1799
7.4472,1827
7.4500,1813
7.4528,1752
7.4556,1668
7.4583,1616
7.4611,1590
7.4639,1585
7.4667,1582
7.4694,1593
7.4722,1599
7.4750,1606
7.4778,1597
7.4806,1588
7.4833,1572
7.4861,1579
7.4889,1611
7.4917,1630
7.4944,1635
7.4972,1627
7.5000,1608
7.5028,1596
7.5056,1610
7.5083,1654
7.5111,1671
7.5139,1652
7.5167,1607
7.5194,1585
7.5222,1575
7.5250,1578
7.5278,1595
7.5306,1604
7.5333,1633
7.5361,1660
7.5389,1663
7.5417,1638
7.5444,1593
7.5472,1601
7.5500,1624
7.5528,1668
7.5556,1667
7.5583,1653
7.5611,1637
7.5639,1634
7.5667,1627
7.5694,1619
7.5722,1610
7.5750,1617
7.5778,1620
7.5806,1633
7.5833,1640
7.5861,1661
7.5889,1705
7.5917,1745
7.5944,1772
7.5972,1776
7.6000,1761
7.6028,1734
7.6056,1713
7.6083,1721
7.6111,1741
7.6139,1723
7.6167,1701
7.6194,1682
7.6222,1657
7.6250,1647
7.6278,1670
7.6306,1706
7.6333,1740
7.6361,1768
7.6389,1739
7.6417,1707
7.6444,1672
7.6472,1659
7.6500,1670
7.6528,1669
7.6556,1670
7.6583,1670
7.6611,1652
7.6639,1635
7.6667,1641
7.6694,1642
7.6722,1647
7.6750,1666
7.6778,1685
7.6806,1686
7.6833,1682
7.6861,1683
7.6889,1701
7.6917,1700
7.6944,1690
7.6972,1680
7.7000,1653
7.7028,1631
7.7056,1625
7.7083,1642
7.7111,1670
7.7139,1685
7.7167,1693
7.7194,1683
7.7222,1664
7.7250,1683
7.7278,1717
7.7306,1736
7.7333,1735
7.7361,1720
7.7389,1686
7.7417,1658
7.7444,1639
7.7472,1657
7.7500,1671
7.7528,1677
7.7556,1676
7.7583,1679
7.7611,1666
7.7639,1667
7.7667,1668
7.7694,1684
7.7722,1707
7.7750,1710
7.7778,1695
7.7806,1672
7.7833,1645
7.7861,1642
7.7889,1642
7.7917,1665
7.7944,1681
7.7972,1714
7.8000,1724
7.8028,1721
7.8056,1718
7.8083,1709
7.8111,1712
7.8139,1724
7.8167,1718
7.8194,1702
7.8222,1719
7.8250,1752
7.8278,1801
7.8306,1832
7.8333,1834
7.8361,1813
7.8389,1761
7.8417,1726
7.8444,1736
7.8472,1750
7.8500,1761
7.8528,1737
7.8556,1707
7.8583,1685
7.8611,1666
7.8639,1632
7.8667,1624
7.8694,1621
7.8722,1614
7.8750,1600
7.8778,1584
7.8806,1580
7.8833,1594
7.8861,1616
7.8889,1623
7.8917,1649
7.8944,1664
7.8972,1670
7.9000,1665
7.9028,1631
7.9056,1617
7.9083,1617
7.9111,1622
7.9139,1625
7.9167,1639
7.9194,1621
7.9222,1614
7.9250,1610
7.9278,1602
7.9306,1581
7.9333,1530
7.9361,1488
7.9389,1469
7.9417,1485
7.9444,1541
7.9472,1597
7.9500,1670
7.9528,1772
7.9556,1956
7.9583,2242
7.9611,2579
7.9639,2868
7.9667,2992
7.9694,2874
7.9722,2578
7.9750,2245
7.9778,1988
7.9806,1823
7.9833,1760
7.9861,1737
7.9889,1746
7.9917,1748
7.9944,1732
7.9972,1692
8.0000,1679
8.0028,1634
8.0056,1606
8.0083,1583
8.0111,1581
8.0139,1593
8.0167,1619
8.0194,1629
8.0222,1622
8.0250,1604
8.0278,1596
8.0306,1587
8.0333,1596
8.0361,1611
8.0389,1620
8.0417,1611
8.0444,1606
8.0472,1612
8.0500,1624
8.0528,1627
8.0556,1635
8.0583,1653
8.0611,1647
8.0639,1632
8.0667,1604
8.0694,1585
8.0722,1579
8.0750,1606
8.0778,1642
8.0806,1656
8.0833,1648
8.0861,1643
8.0889,1658
8.0917,1687
8.0944,1694
8.0972,1699
8.1000,1664
8.1028,1637
8.1056,1636
8.1083,1659
8.1111,1684
8.1139,1705
8.1167,1725
8.1194,1724
8.1222,1717
8.1250,1709
8.1278,1694
8.1306,1688
8.1333,1699
8.1361,1712
8.1389,1732
8.1417,1709
8.1444,1687
8.1472,1682
8.1500,1684
8.1528,1701
8.1556,1768
8.1583,1760
8.1611,1737
8.1639,1720
8.1667,1696
8.1694,1696
8.1722,1710
8.1750,1732
8.1778,1739
8.1806,1737
8.1833,1713
8.1861,1703
8.1889,1706
8.1917,1725
8.1944,1737
8.1972,1725
8.2000,1704
8.2028,1689
8.2056,1685
8.2083,1678
8.2111,1695
8.2139,1717
8.2167,1732
8.2194,1722
8.2222,1714
8.2250,1702
8.2278,1697
8.2306,1697
8.2333,1680
8.2361,1697
8.2389,1708
8.2417,1704
8.2444,1695
8.2472,1687
8.2500,1695
8.2528,1712
8.2556,1729
8.2583,1722
8.2611,1695
8.2639,1691
8.2667,1713
8.2694,1740
8.2722,1758
8.2750,1762
8.2778,1752
8.2806,1714
8.2833,1703
8.2861,1699
8.2889,1715
8.2917,1732
8.2944,1754
8.2972,1748
8.3000,1715
8.3028,1690
8.3056,1687
8.3083,1680
8.3111,1668
8.3139,1674
8.3167,1683
8.3194,1700
8.3222,1728
8.3250,1752
8.3278,1775
8.3306,1795
8.3333,1799
8.3361,1794
8.3389,1792
8.3417,1771
8.3444,1764
8.3472,1766
8.3500,1786
8.3528,1798
8.3556,1803
8.3583,1803
8.3611,1793
8.3639,1787
8.3667,1787
8.3694,1785
8.3722,1804
8.3750,1822
8.3778,1818
8.3806,1779
8.3833,1735
8.3861,1704
8.3889,1692
8.3917,1673
8.3944,1666
8.3972,1656
8.4000,1630
8.4028,1610
8.4056,1603
8.4083,1606
8.4111,1601
8.4139,1604
8.4167,1620
8.4194,1630
8.4222,1619
8.4250,1634
8.4278,1643
8.4306,1659
8.4333,1658
8.4361,1670
8.4389,1667
8.4417,1650
8.4444,1649
8.4472,1640
8.4500,1636
8.4528,1634
8.4556,1631
8.4583,1631
8.4611,1581
8.4639,1526
8.4667,1488
8.4694,1476
8.4722,1518
8.4750,1604
8.4778,1702
8.4806,1839
8.4833,2055
8.4861,2331
8.4889,2649
8.4917,2926
8.4944,3037
8.4972,2898
8.5000,2556
8.5028,2204
8.5056,1945
8.5083,1809
8.5111,1755
8.5139,1762
8.5167,1780
8.5194,1789
8.5222,1764
8.5250,1724
8.5278,1675
8.5306,1639
8.5333,1612
8.5361,1607
8.5389,1620
8.5417,1640
8.5444,1651
8.5472,1636
8.5500,1624
8.5528,1616
8.5556,1637
8.5583,1652
8.5611,1658
8.5639,1655
8.5667,1645
8.5694,1622
8.5722,1605
8.5750,1622
8.5778,1634
8.5806,1659
8.5833,1666
8.5861,1660
8.5889,1664
8.5917,1645
8.5944,1632
8.5972,1633
8.6000,1647
8.6028,1653
8.6056,1672
8.6083,1668
8.6111,1656
8.6139,1659
8.6167,1669
8.6194,1683
8.6222,1680
8.6250,1689
8.6278,1679
8.6306,1663
8.6333,1649
8.6361,1656
8.6389,1670
8.6417,1680
8.6444,1702
8.6472,1700
8.6500,1694
8.6528,1678
8.6556,1674
8.6583,1684
8.6611,1692
8.6639,1690
8.6667,1700
8.6694,1700
8.6722,1700
8.6750,1699
8.6778,1722
8.6806,1731
8.6833,1666
8.6861,1680
8.6889,1685
8.6917,1677
8.6944,1685
8.6972,1696
8.7000,1707
8.7028,1711
8.7056,1709
8.7083,1683
8.7111,1655
8.7139,1654
8.7167,1669
8.7194,1670
8.7222,1675
8.7250,1654
8.7278,1625
8.7306,1593
8.7333,1597
8.7361,1626
8.7389,1650
8.7417,1673
8.7444,1693
8.7472,1702
8.7500,1702
8.7528,1698
8.7556,1696
8.7583,1680
8.7611,1659
8.7639,1664
8.7667,1671
8.7694,1663
8.7722,1664
8.7750,1671
8.7778,1671
8.7806,1663
8.7833,1665
8.7861,1676
8.7889,1683
8.7917,1679
8.7944,1666
8.7972,1658
8.8000,1646
8.8028,1646
8.8056,1650
8.8083,1643
8.8111,1627
8.8139,1600
8.8167,1596
8.8194,1583
8.8222,1604
8.8250,1628
8.8278,1657
8.8306,1671
8.8333,1678
8.8361,1684
8.8389,1701
8.8417,1715
8.8444,1731
8.8472,1732
8.8500,1718
8.8528,1721
8.8556,1723
8.8583,1731
8.8611,1726
8.8639,1725
8.8667,1733
8.8694,1735
8.8722,1749
8.8750,1760
8.8778,1777
8.8806,1776
8.8833,1773
8.8861,1750
8.8889,1729
8.8917,1685
8.8944,1652
8.8972,1634
8.9000,1628
8.9028,1637
8.9056,1631
8.9083,1639
8.9111,1634
8.9139,1629
8.9167,1637
8.9194,1639
8.9222,1640
8.9250,1639
8.9278,1616
8.9306,1605
8.9333,1609
8.9361,1612
8.9389,1617
8.9417,1610
8.9444,1622
8.9472,1625
8.9500,1624
8.9528,1612
8.9556,1598
8.9583,1600
8.9611,1610
8.9639,1627
8.9667,1621
8.9694,1579
8.9722,1548
8.9750,1522
8.9778,1496
8.9806,1489
8.9833,1522
8.9861,1566
8.9889,1621
8.9917,1666
8.9944,1733
8.9972,1862
9.0000,2071
9.0028,2346
9.0056,2606
9.0083,2753
9.0111,2708
9.0139,2493
9.0167,2241
9.0194,2029
9.0222,1902
9.0250,1830
9.0278,1795
9.0306,1781
9.0333,1770
9.0361,1763
9.0389,1728
9.0417,1659
9.0444,1596
9.0472,1572
9.0500,1582
9.0528,1613
9.0556,1648
9.0583,1687
9.0611,1679
9.0639,1668
9.0667,1648
9.0694,1624
9.0722,1614
9.0750,1627
9.0778,1617
9.0806,1605
9.0833,1604
9.0861,1611
9.0889,1592
9.0917,1592
9.0944,1607
9.0972,1638
9.1000,1644
9.1028,1649
9.1056,1651
9.1083,1653
9.1111,1641
9.1139,1642
9.1167,1632
9.1194,1606
9.1222,1602
9.1250,1605
9.1278,1612
9.1306,1643
9.1333,1674
9.1361,1697
9.1389,1697
9.1417,1687
9.1444,1679
9.1472,1681
9.1500,1695
9.1528,1707
9.1556,1727
9.1583,1746
9.1611,1748
9.1639,1731
9.1667,1717
9.1694,1713
9.1722,1721
9.1750,1736
9.1778,1750
9.1806,1754
9.1833,1750
9.1861,1751
9.1889,1727
9.1917,1709
9.1944,1707
9.1972,1724
9.2000,1763
9.2028,1772
9.2056,1754
9.2083,1753
9.2111,1749
9.2139,1765
9.2167,1761
9.2194,1746
9.2222,1749
9.2250,1745
9.2278,1750
9.2306,1749
9.2333,1755
9.2361,1743
9.2389,1734
9.2417,1746
9.2444,1757
9.2472,1767
9.2500,1781
9.2528,1773
9.2556,1784
9.2583,1779
9.2611,1766
9.2639,1763
9.2667,1763
9.2694,1770
9.2722,1763
9.2750,1774
9.2778,1772
9.2806,1761
9.2833,1763
9.2861,1764
9.2889,1757
9.2917,1753
9.2944,1765
9.2972,1750
9.3000,1729
9.3028,1719
9.3056,1713
9.3083,1729
9.3111,1733
9.3139,1742
9.3167,1749
9.3194,1763
9.3222,1787
9.3250,1785
9.3278,1789
9.3306,1791
9.3333,1797
9.3361,1777
9.3389,1764
9.3417,1746
9.3444,1751
9.3472,1763
9.3500,1760
9.3528,1775
9.3556,1794
9.3583,1807
9.3611,1812
9.3639,1811
9.3667,1834
9.3694,1850
9.3722,1856
9.3750,1869
9.3778,1868
9.3806,1851
9.3833,1805
9.3861,1778
9.3889,1775
9.3917,1792
9.3944,1825
9.3972,1841
9.4000,1848
9.4028,1845
9.4056,1857
9.4083,1856
9.4111,1843
9.4139,1811
9.4167,1791
9.4194,1751
9.4222,1705
9.4250,1665
9.4278,1630
9.4306,1618
9.4333,1644
9.4361,1673
9.4389,1692
9.4417,1700
9.4444,1701
9.4472,1690
9.4500,1682
9.4528,1686
9.4556,1681
9.4583,1675
9.4611,1653
9.4639,1644
9.4667,1652
9.4694,1649
9.4722,1644
9.4750,1624
9.4778,1606
9.4806,1600
9.4833,1629
9.4861,1661
9.4889,1670
9.4917,1664
9.4944,1639
9.4972,1604
9.5000,1590
9.5028,1604
9.5056,1651
9.5083,1727
9.5111,1865
9.5139,2104
9.5167,2419
9.5194,2741
9.5222,2981
9.5250,3028
9.5278,2829
9.5306,2488
9.5333,2163
9.5361,1933
9.5389,1820
9.5417,1781
9.5444,1794
9.5472,1799
9.5500,1793
9.5528,1749
9.5556,1699
9.5583,1639
9.5611,1595
9.5639,1575
9.5667,1586
9.5694,1608
9.5722,1640
9.5750,1672
9.5778,1693
9.5806,1684
9.5833,1654
9.5861,1620
9.5889,1627
9.5917,1653
9.5944,1666
9.5972,1660
9.6000,1626
9.6028,1609
9.6056,1613
9.6083,1626
9.6111,1647
9.6139,1670
9.6167,1681
9.6194,1670
9.6222,1645
9.6250,1629
9.6278,1623
9.6306,1639
9.6333,1664
9.6361,1684
9.6389,1674
9.6417,1661
9.6444,1660
9.6472,1640
9.6500,1626
9.6528,1635
9.6556,1664
9.6583,1691
9.6611,1691
9.6639,1678
9.6667,1669
9.6694,1681
9.6722,1702
9.6750,1721
9.6778,1727
9.6806,1697
9.6833,1692
9.6861,1686
9.6889,1697
9.6917,1718
9.6944,1741
9.6972,1742
9.7000,1724
9.7028,1708
9.7056,1688
9.7083,1682
9.7111,1688
9.7139,1763
9.7167,1738
9.7194,1724
9.7222,1707
9.7250,1704
9.7278,1698
9.7306,1705
9.7333,1722
9.7361,1721
9.7389,1692
9.7417,1682
9.7444,1673
9.7472,1664
9.7500,1658
9.7528,1640
9.7556,1640
9.7583,1653
9.7611,1666
9.7639,1688
9.7667,1700
9.7694,1711
9.7722,1699
9.7750,1710
9.7778,1694
9.7806,1684
9.7833,1689
9.7861,1704
9.7889,1706
9.7917,1718
9.7944,1719
9.7972,1704
9.8000,1689
9.8028,1682
9.8056,1683
9.8083,1686
9.8111,1686
9.8139,1703
9.8167,1700
9.8194,1692
9.8222,1684
9.8250,1698
9.8278,1715
9.8306,1710
9.8333,1703
9.8361,1679
9.8389,1663
9.8417,1662
9.8444,1659
9.8472,1669
9.8500,1673
9.8528,1701
9.8556,1706
9.8583,1702
9.8611,1692
9.8639,1678
9.8667,1673
9.8694,1671
9.8722,1680
9.8750,1680
9.8778,1673
9.8806,1668
9.8833,1672
9.8861,1695
9.8889,1722
9.8917,1737
9.8944,1772
9.8972,1781
9.9000,1778
9.9028,1792
9.9056,1794
9.9083,1797
9.9111,1796
9.9139,1798
9.9167,1784
9.9194,1744
9.9222,1729
9.9250,1742
9.9278,1773
9.9306,1794
9.9333,1810
9.9361,1806
9.9389,1773
9.9417,1746
9.9444,1718
9.9472,1693
9.9500,1670
9.9528,1650
9.9556,1640
9.9583,1623
9.9611,1606
9.9639,1602
9.9667,1600
9.9694,1622
9.9722,1650
9.9750,1655
9.9778,1634
9.9806,1599
9.9833,1571
9.9861,1566
9.9889,1574
9.9917,1600
9.9944,1628
9.9972,1655
10.0000,1676
10.0028,1672
10.0056,1665
10.0083,1656
10.0111,1639
10.0139,1633
10.0167,1634
10.0194,1609
10.0222,1591
10.0250,1573
10.0278,1535
10.0306,1520
10.0333,1526
10.0361,1553
10.0389,1588
10.0417,1642
10.0444,1752
10.0472,1939
10.0500,2192
10.0528,2500
10.0556,2775
10.0583,2891
10.0611,2791
10.0639,2505
10.0667,2168
10.0694,1914
10.0722,1770
10.0750,1722
10.0778,1726
10.0806,1746
10.0833,1762
10.0861,1727
10.0889,1687
10.0917,1625
10.0944,1572
10.0972,1538
10.1000,1544
10.1028,1562
10.1056,1589
10.1083,1601
10.1111,1602
10.1139,1591
10.1167,1574
10.1194,1544
10.1222,1534
10.1250,1556
10.1278,1575
10.1306,1590
10.1333,1586
10.1361,1562
10.1389,1549
10.1417,1554
10.1444,1574
10.1472,1599
10.1500,1613
10.1528,1607
10.1556,1602
10.1583,1585
10.1611,1569
10.1639,1586
10.1667,1593
10.1694,1592
10.1722,1595
10.1750,1580
10.1778,1559
10.1806,1547
10.1833,1555
10.1861,1570
10.1889,1566
10.1917,1570
10.1944,1579
10.1972,1580
10.2000,1599
10.2028,1625
10.2056,1642
10.2083,1660
10.2111,1645
10.2139,1629
10.2167,1613
10.2194,1612
10.2222,1609
10.2250,1624
10.2278,1638
10.2306,1655
10.2333,1669
10.2361,1668
10.2389,1646
10.2417,1626
10.2444,1629
10.2472,1644
10.2500,1645
10.2528,1662
10.2556,1651
10.2583,1653
10.2611,1656
10.2639,1659
10.2667,1659
10.2694,1636
10.2722,1617
10.2750,1599
10.2778,1585
10.2806,1595
10.2833,1618
10.2861,1628
10.2889,1641
10.2917,1652
10.2944,1651
10.2972,1637
10.3000,1632
10.3028,1648
10.3056,1651
10.3083,1658
10.3111,1650
10.3139,1666
10.3167,1644
10.3194,1645
10.3222,1649
10.3250,1659
10.3278,1661
10.3306,1667
10.3333,1667
10.3361,1646
10.3389,1616
10.3417,1614
10.3444,1619
10.3472,1632
10.3500,1637
10.3528,1628
10.3556,1634
10.3583,1651
10.3611,1679
10.3639,1698
10.3667,1708
10.3694,1701
10.3722,1693
10.3750,1693
10.3778,1679
10.3806,1652
10.3833,1634
10.3861,1647
10.3889,1663
10.3917,1666
10.3944,1650
10.3972,1637
10.4000,1627
10.4028,1631
10.4056,1648
10.4083,1662
10.4111,1668
10.4139,1671
10.4167,1667
10.4194,1653
10.4222,1657
10.4250,1676
10.4278,1699
10.4306,1712
10.4333,1721
10.4361,1718
10.4389,1721
10.4417,1716
10.4444,1723
10.4472,1729
10.4500,1717
10.4528,1711
10.4556,1698
10.4583,1708
10.4611,1730
10.4639,1778
10.4667,1811
10.4694,1831
10.4722,1827
10.4750,1815
10.4778,1798
10.4806,1767
10.4833,1726
10.4861,1691
10.4889,1666
10.4917,1657
10.4944,1650
10.4972,1639
10.5000,1627
10.5028,1634
10.5056,1637
10.5083,1634
10.5111,1641
10.5139,1620
10.5167,1605
10.5194,1596
10.5222,1604
10.5250,1621
10.5278,1639
10.5306,1661
10.5333,1681
10.5361,1677
10.5389,1674
10.5417,1670
10.5444,1664
10.5472,1644
10.5500,1626
10.5528,1612
10.5556,1607
10.5583,1609
10.5611,1619
10.5639,1608
10.5667,1582
10.5694,1582
10.5722,1596
10.5750,1633
10.5778,1660
10.5806,1709
10.5833,1808
10.5861,1970
10.5889,2233
10.5917,2502
10.5944,2722
10.5972,2764
10.6000,2606
10.6028,2361
10.6056,2157
10.6083,2012
10.6111,1931
10.6139,1877
10.6167,1852
10.6194,1828
10.6222,1818
10.6250,1795
10.6278,1761
10.6306,1711
10.6333,1675
10.6361,1658
10.6389,1650
10.6417,1669
10.6444,1686
10.6472,1689
10.6500,1678
10.6528,1659
10.6556,1644
10.6583,1645
10.6611,1661
10.6639,1669
10.6667,1672
10.6694,1656
10.6722,1657
10.6750,1657
10.6778,1663
10.6806,1668
10.6833,1665
10.6861,1664
10.6889,1652
10.6917,1652
10.6944,1646
10.6972,1657
10.7000,1661
10.7028,1688
10.7056,1700
10.7083,1697
10.7111,1696
10.7139,1685
10.7167,1686
10.7194,1702
10.7222,1721
10.7250,1737
10.7278,1731
10.7306,1741
10.7333,1737
10.7361,1741
10.7389,1733
10.7417,1737
10.7444,1765
10.7472,1767
10.7500,1761
10.7528,1755
10.7556,1743
10.7583,1729
10.7611,1740
10.7639,1748
10.7667,1771
10.7694,1771
10.7722,1756
10.7750,1736
10.7778,1732
10.7806,1735
10.7833,1761
10.7861,1801
10.7889,1795
10.7917,1806
10.7944,1804
10.7972,1782
10.8000,1785
10.8028,1794
10.8056,1798
10.8083,1808
10.8111,1803
10.8139,1781
10.8167,1754
10.8194,1738
10.8222,1752
10.8250,1762
10.8278,1774
10.8306,1789
10.8333,1804
10.8361,1792
10.8389,1797
10.8417,1795
10.8444,1794
10.8472,1789
10.8500,1772
10.8528,1763
10.8556,1755
10.8583,1750
10.8611,1768
10.8639,1790
10.8667,1814
10.8694,1808
10.8722,1790
10.8750,1780
10.8778,1770
10.8806,1774
10.8833,1774
10.8861,1774
10.8889,1782
10.8917,1776
10.8944,1755
10.8972,1735
10.9000,1727
10.9028,1736
10.9056,1742
10.9083,1749
10.9111,1746
10.9139,1740
10.9167,1741
10.9194,1738
10.9222,1746
10.9250,1767
10.9278,1795
10.9306,1802
10.9333,1801
10.9361,1792
10.9389,1777
10.9417,1777
10.9444,1773
10.9472,1750
10.9500,1734
10.9528,1725
10.9556,1732
10.9583,1746
10.9611,1745
10.9639,1742
10.9667,1749
10.9694,1741
10.9722,1749
10.9750,1748
10.9778,1740
10.9806,1775
10.9833,1815
10.9861,1831
10.9889,1831
10.9917,1832
10.9944,1829
10.9972,1815
11.0000,1807
11.0028,1810
11.0056,1819
11.0083,1820
11.0111,1828
11.0139,1806
11.0167,1807
11.0194,1820
11.0222,1847
11.0250,1867
11.0278,1867
11.0306,1858
11.0333,1828
11.0361,1795
11.0389,1762
11.0417,1746
11.0444,1728
11.0472,1704
11.0500,1695
11.0528,1680
11.0556,1686
11.0583,1681
11.0611,1691
11.0639,1698
11.0667,1696
11.0694,1681
11.0722,1663
11.0750,1651
11.0778,1641
11.0806,1664
11.0833,1683
11.0861,1696
11.0889,1696
11.0917,1702
11.0944,1704
11.0972,1702
11.1000,1695
11.1028,1692
11.1056,1677
11.1083,1658
11.1111,1651
11.1139,1609
11.1167,1561
11.1194,1546
11.1222,1575
11.1250,1623
11.1278,1689
11.1306,1759
11.1333,1872
11.1361,2044
11.1389,2280
11.1417,2586
11.1444,2857
11.1472,2975
11.1500,2870
11.1528,2576
11.1556,2238
11.1583,1994
11.1611,1858
11.1639,1810
11.1667,1812
11.1694,1820
11.1722,1820
11.1750,1780
11.1778,1715
11.1806,1669
11.1833,1629
11.1861,1618
11.1889,1621
11.1917,1643
11.1944,1656
11.1972,1648
11.2000,1624
11.2028,1606
11.2056,1619
11.2083,1640
11.2111,1683
11.2139,1708
11.2167,1701
11.2194,1666
11.2222,1634
11.2250,1628
11.2278,1631
11.2306,1639
11.2333,1672
11.2361,1686
11.2389,1699
11.2417,1692
11.2444,1678
11.2472,1653
11.2500,1629
11.2528,1641
11.2556,1656
11.2583,1672
11.2611,1681
11.2639,1681
11.2667,1676
11.2694,1671
11.2722,1674
11.2750,1668
11.2778,1662
11.2806,1664
11.2833,1673
11.2861,1671
11.2889,1671
11.2917,1675
11.2944,1681
11.2972,1700
11.3000,1709
11.3028,1721
11.3056,1711
11.3083,1713
11.3111,1717
11.3139,1730
11.3167,1746
11.3194,1765
11.3222,1762
11.3250,1754
11.3278,1741
11.3306,1737
11.3333,1738
11.3361,1710
11.3389,1717
11.3417,1726
11.3444,1714
11.3472,1716
11.3500,1721
11.3528,1733
11.3556,1728
11.3583,1720
11.3611,1712
11.3639,1684
11.3667,1673
11.3694,1681
11.3722,1722
11.3750,1749
11.3778,1754
11.3806,1755
11.3833,1725
11.3861,1712
11.3889,1700
11.3917,1721
11.3944,1731
11.3972,1732
11.4000,1734
11.4028,1723
11.4056,1719
11.4083,1709
11.4111,1717
11.4139,1711
11.4167,1710
11.4194,1705
11.4222,1713
11.4250,1701
11.4278,1680
11.4306,1662
11.4333,1675
11.4361,1686
11.4389,1707
11.4417,1718
11.4444,1714
11.4472,1713
11.4500,1720
11.4528,1717
11.4556,1705
11.4583,1705
11.4611,1689
11.4639,1685
11.4667,1708
11.4694,1731
11.4722,1743
11.4750,1743
11.4778,1739
11.4806,1724
11.4833,1719
11.4861,1710
11.4889,1711
11.4917,1725
11.4944,1732
11.4972,1720
11.5000,1707
11.5028,1690
11.5056,1668
11.5083,1646
11.5111,1656
11.5139,1670
11.5167,1669
11.5194,1668
11.5222,1664
11.5250,1652
11.5278,1660
11.5306,1682
11.5333,1710
11.5361,1737
11.5389,1746
11.5417,1741
11.5444,1719
11.5472,1714
11.5500,1729
11.5528,1752
11.5556,1772
11.5583,1758
11.5611,1747
11.5639,1735
11.5667,1734
11.5694,1757
11.5722,1781
11.5750,1795
11.5778,1803
11.5806,1784
11.5833,1761
11.5861,1741
11.5889,1749
11.5917,1773
11.5944,1784
11.5972,1787
11.6000,1791
11.6028,1792
11.6056,1764
11.6083,1713
11.6111,1687
11.6139,1660
11.6167,1633
11.6194,1643
11.6222,1653
11.6250,1663
11.6278,1669
11.6306,1660
11.6333,1659
11.6361,1658
11.6389,1640
11.6417,1640
11.6444,1642
11.6472,1627
11.6500,1621
11.6528,1621
11.6556,1619
11.6583,1625
11.6611,1621
11.6639,1612
11.6667,1609
11.6694,1612
11.6722,1603
11.6750,1603
11.6778,1599
11.6806,1603
11.6833,1599
11.6861,1579
11.6889,1570
11.6917,1569
11.6944,1570
11.6972,1589
11.7000,1631
11.7028,1710
11.7056,1829
11.7083,2031
11.7111,2301
11.7139,2594
11.7167,2833
11.7194,2894
11.7222,2718
11.7250,2407
11.7278,2110
11.7306,1895
11.7333,1798
11.7361,1761
11.7389,1762
11.7417,1775
11.7444,1762
11.7472,1736
11.7500,1695
11.7528,1650
11.7556,1596
11.7583,1555
11.7611,1554
11.7639,1557
11.7667,1582
11.7694,1606
11.7722,1631
11.7750,1637
11.7778,1639
11.7806,1635
11.7833,1650
11.7861,1650
11.7889,1659
11.7917,1634
11.7944,1621
11.7972,1600
11.8000,1600
11.8028,1605
11.8056,1620
11.8083,1627
11.8111,1636
11.8139,1625
11.8167,1607
11.8194,1600
11.8222,1626
11.8250,1640
11.8278,1611
11.8306,1595
11.8333,1595
11.8361,1616
11.8389,1639
11.8417,1652
11.8444,1677
11.8472,1673
11.8500,1675
11.8528,1678
11.8556,1677
11.8583,1683
11.8611,1691
11.8639,1701
11.8667,1719
11.8694,1722
11.8722,1710
11.8750,1695
11.8778,1666
11.8806,1664
11.8833,1660
11.8861,1683
11.8889,1699
11.8917,1702
11.8944,1705
11.8972,1697
11.9000,1698
11.9028,1704
11.9056,1688
11.9083,1768
11.9111,1740
11.9139,1719
11.9167,1692
11.9194,1689
11.9222,1693
11.9250,1705
11.9278,1722
11.9306,1715
11.9333,1686
11.9361,1664
11.9389,1648
11.9417,1662
11.9444,1684
11.9472,1703
11.9500,1706
11.9528,1686
11.9556,1656
11.9583,1645
11.9611,1655
11.9639,1642
11.9667,1665
11.9694,1676
11.9722,1681
11.9750,1660
11.9778,1659
11.9806,1675
11.9833,1690
11.9861,1704
11.9889,1712
11.9917,1728
11.9944,1726
11.9972,1713
12.0000,1696
12.0028,1704
12.0056,1706
12.0083,1717
12.0111,1720
12.0139,1711
12.0167,1696
12.0194,1694
12.0222,1678
12.0250,1689
12.0278,1695
12.0306,1718
12.0333,1703
12.0361,1663
12.0389,1648
12.0417,1631
12.0444,1647
12.0472,1663
12.0500,1699
12.0528,1715
12.0556,1701
12.0583,1692
12.0611,1683
12.0639,1679
12.0667,1684
12.0694,1714
12.0722,1713
12.0750,1705
12.0778,1686
12.0806,1669
12.0833,1681
12.0861,1672
12.0889,1684
12.0917,1698
12.0944,1692
12.0972,1674
12.1000,1677
12.1028,1678
12.1056,1690
12.1083,1693
12.1111,1701
12.1139,1676
12.1167,1661
12.1194,1655
12.1222,1654
12.1250,1660
12.1278,1659
12.1306,1678
12.1333,1692
12.1361,1694
12.1389,1689
12.1417,1689
12.1444,1686
12.1472,1687
12.1500,1686
12.1528,1687
12.1556,1695
12.1583,1713
12.1611,1732
12.1639,1735
12.1667,1730
12.1694,1730
12.1722,1729
12.1750,1736
12.1778,1734
12.1806,1719
12.1833,1720
12.1861,1738
12.1889,1760
12.1917,1789
12.1944,1793
12.1972,1774
12.2000,1759
12.2028,1753
12.2056,1758
12.2083,1765
12.2111,1754
12.2139,1715
12.2167,1684
12.2194,1685
12.2222,1675
12.2250,1648
12.2278,1636
12.2306,1621
12.2333,1610
12.2361,1606
12.2389,1619
12.2417,1630
12.2444,1634
12.2472,1613
12.2500,1614
12.2528,1612
12.2556,1599
12.2583,1591
12.2611,1590
12.2639,1595
12.2667,1581
12.2694,1578
12.2722,1594
12.2750,1604
12.2778,1609
12.2806,1623
12.2833,1634
12.2861,1632
12.2889,1603
12.2917,1563
12.2944,1512
12.2972,1500
12.3000,1509
12.3028,1548
12.3056,1580
12.3083,1636
12.3111,1766
12.3139,1983
12.3167,2257
12.3194,2544
12.3222,2752
12.3250,2766
12.3278,2573
12.3306,2296
12.3333,2054
12.3361,1888
12.3389,1806
12.3417,1776
12.3444,1778
12.3472,1782
12.3500,1770
12.3528,1729
12.3556,1659
12.3583,1600
12.3611,1574
12.3639,1567
12.3667,1569
12.3694,1587
12.3722,1613
12.3750,1597
12.3778,1577
12.3806,1578
12.3833,1580
12.3861,1593
12.3889,1608
12.3917,1612
12.3944,1601
12.3972,1586
12.4000,1589
12.4028,1602
12.4056,1606
12.4083,1616
12.4111,1612
12.4139,1606
12.4167,1603
12.4194,1602
12.4222,1597
12.4250,1596
12.4278,1599
12.4306,1615
12.4333,1633
12.4361,1611
12.4389,1610
12.4417,1613
12.4444,1617
12.4472,1631
12.4500,1628
12.4528,1626
12.4556,1630
12.4583,1631
12.4611,1633
12.4639,1633
12.4667,1635
12.4694,1644
12.4722,1669
12.4750,1681
12.4778,1669
12.4806,1645
12.4833,1637
12.4861,1644
12.4889,1660
12.4917,1679
12.4944,1690
12.4972,1677
12.5000,1681
12.5028,1673
12.5056,1693
12.5083,1684
12.5111,1716
12.5139,1650
12.5167,1660
12.5194,1664
12.5222,1679
12.5250,1701
12.5278,1713
12.5306,1719
12.5333,1716
12.5361,1693
12.5389,1679
12.5417,1664
12.5444,1662
12.5472,1661
12.5500,1682
12.5528,1678
12.5556,1659
12.5583,1657
12.5611,1652
12.5639,1646
12.5667,1639
12.5694,1646
12.5722,1672
12.5750,1672
12.5778,1654
12.5806,1634
12.5833,1597
12.5861,1585
12.5889,1609
12.5917,1637
12.5944,1648
12.5972,1631
12.6000,1642
12.6028,1654
12.6056,1670
12.6083,1682
12.6111,1701
12.6139,1679
12.6167,1656
12.6194,1639
12.6222,1616
12.6250,1607
12.6278,1633
12.6306,1662
12.6333,1680
12.6361,1680
12.6389,1671
12.6417,1649
12.6444,1643
12.6472,1633
12.6500,1627
12.6528,1646
12.6556,1629
12.6583,1617
12.6611,1619
12.6639,1619
12.6667,1605
12.6694,1576
12.6722,1562
12.6750,1556
12.6778,1594
12.6806,1623
12.6833,1645
12.6861,1629
12.6889,1612
12.6917,1607
12.6944,1601
12.6972,1605
12.7000,1614
12.7028,1618
12.7056,1620
12.7083,1621
12.7111,1611
12.7139,1601
12.7167,1588
12.7194,1592
12.7222,1610
12.7250,1635
12.7278,1645
12.7306,1662
12.7333,1661
12.7361,1639
12.7389,1637
12.7417,1634
12.7444,1628
12.7472,1616
12.7500,1624
12.7528,1624
12.7556,1613
12.7583,1606
12.7611,1608
12.7639,1621
12.7667,1647
12.7694,1669
12.7722,1688
12.7750,1681
12.7778,1683
12.7806,1681
12.7833,1673
12.7861,1652
12.7889,1672
12.7917,1694
12.7944,1708
12.7972,1731
12.8000,1744
12.8028,1759
12.8056,1759
12.8083,1754
12.8111,1743
12.8139,1736
12.8167,1720
12.8194,1692
12.8222,1660
12.8250,1644
12.8278,1630
12.8306,1625
12.8333,1617
12.8361,1610
12.8389,1599
12.8417,1583
12.8444,1579
12.8472,1570
12.8500,1585
12.8528,1580
12.8556,1573
12.8583,1562
12.8611,1559
12.8639,1564
12.8667,1554
12.8694,1558
12.8722,1566
12.8750,1558
12.8778,1565
12.8806,1587
12.8833,1597
12.8861,1601
12.8889,1602
12.8917,1592
12.8944,1584
12.8972,1536
12.9000,1495
12.9028,1451
12.9056,1434
12.9083,1477
12.9111,1553
12.9139,1635
12.9167,1713
12.9194,1819
12.9222,2028
12.9250,2284
12.9278,2547
12.9306,2667
12.9333,2575
12.9361,2344
12.9389,2125
12.9417,1972
12.9444,1861
12.9472,1786
12.9500,1759
12.9528,1748
12.9556,1734
12.9583,1697
12.9611,1656
12.9639,1594
12.9667,1563
12.9694,1551
12.9722,1538
12.9750,1535
12.9778,1539
12.9806,1554
12.9833,1561
12.9861,1564
12.9889,1561
12.9917,1556
12.9944,1557
12.9972,1551
13.0000,1561
13.0028,1564
13.0056,1546
13.0083,1539
13.0111,1532
13.0139,1541
13.0167,1553
13.0194,1566
13.0222,1577
13.0250,1568
13.0278,1534
13.0306,1516
13.0333,1518
13.0361,1539
13.0389,1569
13.0417,1599
13.0444,1612
13.0472,1612
13.0500,1602
13.0528,1589
13.0556,1597
13.0583,1593
13.0611,1600
13.0639,1599
13.0667,1589
13.0694,1579
13.0722,1590
13.0750,1599
13.0778,1594
13.0806,1599
13.0833,1578
13.0861,1590
13.0889,1608
13.0917,1633
13.0944,1644
13.0972,1650
13.1000,1642
13.1028,1636
13.1056,1607
13.1083,1595
13.1111,1599
13.1139,1615
13.1167,1624
13.1194,1634
13.1222,1660
13.1250,1642
13.1278,1631
13.1306,1618
13.1333,1598
13.1361,1589
13.1389,1601
13.1417,1592
13.1444,1594
13.1472,1589
13.1500,1582
13.1528,1577
13.1556,1582
13.1583,1601
13.1611,1611
13.1639,1608
13.1667,1590
13.1694,1585
13.1722,1564
13.1750,1554
13.1778,1559
13.1806,1574
13.1833,1581
13.1861,1582
13.1889,1585
13.1917,1578
13.1944,1587
13.1972,1587
13.2000,1605
13.2028,1605
13.2056,1601
13.2083,1596
13.2111,1596
13.2139,1597
13.2167,1590
13.2194,1596
13.2222,1589
13.2250,1566
13.2278,1556
13.2306,1541
13.2333,1518
13.2361,1528
13.2389,1560
13.2417,1583
13.2444,1596
13.2472,1620
13.2500,1634
13.2528,1611
13.2556,1544
13.2583,1519
13.2611,1521
13.2639,1528
13.2667,1557
13.2694,1575
13.2722,1593
13.2750,1595
13.2778,1595
13.2806,1604
13.2833,1583
13.2861,1559
13.2889,1557
13.2917,1546
13.2944,1548
13.2972,1538
13.3000,1533
13.3028,1546
13.3056,1536
13.3083,1537
13.3111,1531
13.3139,1535
13.3167,1552
13.3194,1574
13.3222,1587
13.3250,1577
13.3278,1570
13.3306,1567
13.3333,1560
13.3361,1534
13.3389,1527
13.3417,1520
13.3444,1511
13.3472,1512
13.3500,1542
13.3528,1565
13.3556,1593
13.3583,1608
13.3611,1620
13.3639,1629
13.3667,1623
13.3694,1632
13.3722,1626
13.3750,1620
13.3778,1635
13.3806,1642
13.3833,1647
13.3861,1655
13.3889,1653
13.3917,1642
13.3944,1644
13.3972,1649
13.4000,1660
13.4028,1660
13.4056,1667
13.4083,1674
13.4111,1685
13.4139,1666
13.4167,1641
13.4194,1612
13.4222,1590
13.4250,1535
13.4278,1507
13.4306,1492
13.4333,1484
13.4361,1488
13.4389,1511
13.4417,1510
13.4444,1512
13.4472,1499
13.4500,1495
13.4528,1495
13.4556,1508
13.4583,1522
13.4611,1545
13.4639,1541
13.4667,1542
13.4694,1551
13.4722,1569
13.4750,1574
13.4778,1570
13.4806,1553
13.4833,1559
13.4861,1547
13.4889,1544
13.4917,1516
13.4944,1472
13.4972,1438
13.5000,1422
13.5028,1408
13.5056,1432
13.5083,1456
13.5111,1519
13.5139,1613
13.5167,1775
13.5194,2012
13.5222,2288
13.5250,2568
13.5278,2762
13.5306,2767
13.5333,2555
13.5361,2238
13.5389,1959
13.5417,1782
13.5444,1691
13.5472,1656
13.5500,1645
13.5528,1657
13.5556,1662
13.5583,1635
13.5611,1598
13.5639,1551
13.5667,1542
13.5694,1529
13.5722,1548
13.5750,1558
13.5778,1569
13.5806,1554
13.5833,1515
13.5861,1486
13.5889,1491
13.5917,1514
13.5944,1542
13.5972,1556
13.6000,1551
13.6028,1523
13.6056,1502
13.6083,1495
13.6111,1521
13.6139,1539
13.6167,1563
13.6194,1571
13.6222,1584
13.6250,1584
13.6278,1563
13.6306,1549
13.6333,1551
13.6361,1571
13.6389,1592
13.6417,1610
13.6444,1613
13.6472,1599
13.6500,1590
13.6528,1588
13.6556,1588
13.6583,1597
13.6611,1606
13.6639,1593
13.6667,1587
13.6694,1591
13.6722,1595
13.6750,1603
13.6778,1610
13.6806,1621
13.6833,1611
13.6861,1605
13.6889,1605
13.6917,1587
13.6944,1585
13.6972,1601
13.7000,1635
13.7028,1655
13.7056,1669
13.7083,1685
13.7111,1685
13.7139,1680
13.7167,1683
13.7194,1644
13.7222,1646
13.7250,1645
13.7278,1635
13.7306,1636
13.7333,1633
13.7361,1658
13.7389,1673
13.7417,1668
13.7444,1664
13.7472,1635
13.7500,1624
13.7528,1633
13.7556,1652
13.7583,1657
13.7611,1643
13.7639,1636
13.7667,1614
13.7694,1622
13.7722,1625
13.7750,1643
13.7778,1657
13.7806,1656
13.7833,1658
13.7861,1656
13.7889,1669
13.7917,1675
13.7944,1675
13.7972,1671
13.8000,1670
13.8028,1664
13.8056,1642
13.8083,1646
13.8111,1643
13.8139,1646
13.8167,1646
13.8194,1658
13.8222,1663
13.8250,1664
13.8278,1646
13.8306,1640
13.8333,1640
13.8361,1659
13.8389,1681
13.8417,1672
13.8444,1668
13.8472,1672
13.8500,1665
13.8528,1665
13.8556,1668
13.8583,1667
13.8611,1667
13.8639,1666
13.8667,1666
13.8694,1674
13.8722,1685
13.8750,1684
13.8778,1692
13.8806,1689
13.8833,1672
13.8861,1673
13.8889,1671
13.8917,1662
13.8944,1657
13.8972,1653
13.9000,1665
13.9028,1656
13.9056,1667
13.9083,1675
13.9111,1662
13.9139,1645
13.9167,1640
13.9194,1648
13.9222,1667
13.9250,1680
13.9278,1686
13.9306,1676
13.9333,1658
13.9361,1626
13.9389,1630
13.9417,1660
13.9444,1674
13.9472,1680
13.9500,1690
13.9528,1686
13.9556,1692
13.9583,1707
13.9611,1727
13.9639,1738
13.9667,1745
13.9694,1737
13.9722,1737
13.9750,1747
13.9778,1755
13.9806,1752
13.9833,1760
13.9861,1757
13.9889,1755
13.9917,1765
13.9944,1779
13.9972,1803
14.0000,1824
14.0028,1814
14.0056,1801
14.0083,1794
14.0111,1776
14.0139,1747
14.0167,1729
14.0194,1718
14.0222,1699
14.0250,1669
14.0278,1654
14.0306,1655
14.0333,1641
14.0361,1632
14.0389,1617
14.0417,1619
14.0444,1618
14.0472,1627
14.0500,1617
14.0528,1618
14.0556,1622
14.0583,1627
14.0611,1643
14.0639,1659
14.0667,1661
14.0694,1653
14.0722,1655
14.0750,1656
14.0778,1663
14.0806,1665
14.0833,1645
14.0861,1636
14.0889,1632
14.0917,1611
14.0944,1580
14.0972,1564
14.1000,1548
14.1028,1554
14.1056,1563
14.1083,1617
14.1111,1670
14.1139,1775
14.1167,1954
14.1194,2202
14.1222,2474
14.1250,2714
14.1278,2827
14.1306,2754
14.1333,2500
14.1361,2209
14.1389,1986
14.1417,1851
14.1444,1784
14.1472,1780
14.1500,1797
14.1528,1809
14.1556,1792
14.1583,1747
14.1611,1704
14.1639,1636
14.1667,1599
14.1694,1597
14.1722,1615
14.1750,1648
14.1778,1665
14.1806,1669
14.1833,1642
14.1861,1614
14.1889,1602
14.1917,1595
14.1944,1619
14.1972,1654
14.2000,1669
14.2028,1664
14.2056,1643
14.2083,1620
14.2111,1619
14.2139,1633
14.2167,1647
14.2194,1661
14.2222,1662
14.2250,1665
14.2278,1665
14.2306,1672
14.2333,1676
14.2361,1671
14.2389,1668
14.2417,1649
14.2444,1644
14.2472,1659
14.2500,1679
14.2528,1693
14.2556,1696
14.2583,1700
14.2611,1700
14.2639,1690
14.2667,1684
14.2694,1691
14.2722,1690
14.2750,1690
14.2778,1693
14.2806,1700
14.2833,1695
14.2861,1716
14.2889,1734
14.2917,1743
14.2944,1747
14.2972,1747
14.3000,1742
14.3028,1723
14.3056,1718
14.3083,1721
14.3111,1733
14.3139,1756
14.3167,1724
14.3194,1752
14.3222,1740
14.3250,1730
14.3278,1712
14.3306,1711
14.3333,1711
14.3361,1716
14.3389,1709
14.3417,1716
14.3444,1714
14.3472,1708
14.3500,1714
14.3528,1696
14.3556,1699
14.3583,1681
14.3611,1672
14.3639,1671
14.3667,1698
14.3694,1715
14.3722,1712
14.3750,1709
14.3778,1691
14.3806,1688
14.3833,1687
14.3861,1684
14.3889,1689
14.3917,1699
14.3944,1703
14.3972,1714
14.4000,1723
14.4028,1719
14.4056,1710
14.4083,1717
14.4111,1711
14.4139,1701
14.4167,1708
14.4194,1714
14.4222,1717
14.4250,1723
14.4278,1709
14.4306,1689
14.4333,1669
14.4361,1662
14.4389,1671
14.4417,1690
14.4444,1701
14.4472,1718
14.4500,1717
14.4528,1715
14.4556,1723
14.4583,1736
14.4611,1745
14.4639,1734
14.4667,1719
14.4694,1700
14.4722,1693
14.4750,1695
14.4778,1691
14.4806,1702
14.4833,1675
14.4861,1671
14.4889,1661
14.4917,1664
14.4944,1678
14.4972,1691
14.5000,1695
14.5028,1690
14.5056,1699
14.5083,1697
14.5111,1693
14.5139,1690
14.5167,1689
14.5194,1669
14.5222,1664
14.5250,1658
14.5278,1665
14.5306,1680
14.5333,1684
14.5361,1699
14.5389,1710
14.5417,1733
14.5444,1737
14.5472,1765
14.5500,1765
14.5528,1761
14.5556,1770
14.5583,1779
14.5611,1782
14.5639,1765
14.5667,1760
14.5694,1752
14.5722,1761
14.5750,1768
14.5778,1788
14.5806,1800
14.5833,1795
14.5861,1799
14.5889,1806
14.5917,1791
14.5944,1772
14.5972,1767
14.6000,1754
14.6028,1733
14.6056,1706
14.6083,1697
14.6111,1672
14.6139,1633
14.6167,1617
14.6194,1631
14.6222,1642
14.6250,1647
14.6278,1658
14.6306,1660
14.6333,1670
14.6361,1692
14.6389,1688
14.6417,1676
14.6444,1661
14.6472,1646
14.6500,1645
14.6528,1634
14.6556,1646
14.6583,1655
14.6611,1685
14.6639,1687
14.6667,1673
14.6694,1659
14.6722,1648
14.6750,1639
14.6778,1634
14.6806,1609
14.6833,1588
14.6861,1571
14.6889,1586
14.6917,1604
14.6944,1654
14.6972,1731
14.7000,1835
14.7028,2009
14.7056,2258
14.7083,2534
14.7111,2710
14.7139,2705
14.7167,2525
14.7194,2279
14.7222,2065
14.7250,1955
14.7278,1905
14.7306,1886
14.7333,1865
14.7361,1858
14.7389,1833
14.7417,1784
14.7444,1728
14.7472,1691
14.7500,1675
14.7528,1675
14.7556,1693
14.7583,1719
14.7611,1708
14.7639,1685
14.7667,1660
14.7694,1648
14.7722,1651
14.7750,1641
14.7778,1659
14.7806,1668
14.7833,1659
14.7861,1663
14.7889,1663
14.7917,1658
14.7944,1641
14.7972,1646
14.8000,1654
14.8028,1647
14.8056,1628
14.8083,1623
14.8111,1639
14.8139,1653
14.8167,1681
14.8194,1708
14.8222,1723
14.8250,1713
14.8278,1716
14.8306,1694
14.8333,1683
14.8361,1702
14.8389,1720
14.8417,1722
14.8444,1718
14.8472,1715
14.8500,1710
14.8528,1705
14.8556,1722
14.8583,1724
14.8611,1737
14.8639,1750
14.8667,1751
14.8694,1747
14.8722,1747
14.8750,1745
14.8778,1760
14.8806,1781
14.8833,1784
14.8861,1785
14.8889,1784
14.8917,1770
14.8944,1782
14.8972,1793
14.9000,1795
14.9028,1856
14.9056,1840
14.9083,1822
14.9111,1807
14.9139,1808
14.9167,1806
14.9194,1804
14.9222,1805
14.9250,1806
14.9278,1802
14.9306,1788
14.9333,1787
14.9361,1783
14.9389,1775
14.9417,1760
14.9444,1767
14.9472,1766
14.9500,1755
14.9528,1754
14.9556,1745
14.9583,1747
14.9611,1747
14.9639,1761
14.9667,1767
14.9694,1766
14.9722,1760
14.9750,1770
14.9778,1774
14.9806,1790
14.9833,1787
14.9861,1797
14.9889,1789
14.9917,1778
14.9944,1769
14.9972,1767
15.0000,1756
15.0028,1744
15.0056,1750
15.0083,1751
15.0111,1761
15.0139,1755
15.0167,1774
15.0194,1767
15.0222,1775
15.0250,1786
15.0278,1793
15.0306,1772
15.0333,1748
15.0361,1737
15.0389,1745
15.0417,1749
15.0444,1751
15.0472,1747
15.0500,1749
15.0528,1745
15.0556,1758
15.0583,1787
15.0611,1796
15.0639,1788
15.0667,1772
15.0694,1760
15.0722,1746
15.0750,1746
15.0778,1768
15.0806,1772
15.0833,1771
15.0861,1762
15.0889,1755
15.0917,1759
15.0944,1759
15.0972,1749
15.1000,1750
15.1028,1743
15.1056,1745
15.1083,1741
15.1111,1722
15.1139,1739
15.1167,1772
15.1194,1811
15.1222,1833
15.1250,1838
15.1278,1851
15.1306,1840
15.1333,1830
15.1361,1807
15.1389,1798
15.1417,1798
15.1444,1803
15.1472,1820
15.1500,1835
15.1528,1860
15.1556,1878
15.1583,1881
15.1611,1875
15.1639,1866
15.1667,1867
15.1694,1853
15.1722,1817
15.1750,1774
15.1778,1755
15.1806,1745
15.1833,1738
15.1861,1720
15.1889,1699
15.1917,1673
15.1944,1666
15.1972,1687
15.2000,1696
15.2028,1714
15.2056,1703
15.2083,1699
15.2111,1694
15.2139,1682
15.2167,1672
15.2194,1683
15.2222,1688
15.2250,1689
15.2278,1693
15.2306,1695
15.2333,1691
15.2361,1693
15.2389,1692
15.2417,1686
15.2444,1679
15.2472,1658
15.2500,1646
15.2528,1628
15.2556,1595
15.2583,1601
15.2611,1605
15.2639,1626
15.2667,1675
15.2694,1728
15.2722,1848
15.2750,2023
15.2778,2279
15.2806,2563
15.2833,2819
15.2861,2925
15.2889,2818
15.2917,2530
15.2944,2231
15.2972,1999
15.3000,1868
15.3028,1824
15.3056,1834
15.3083,1840
15.3111,1823
15.3139,1801
15.3167,1760
15.3194,1713
15.3222,1675
15.3250,1655
15.3278,1649
15.3306,1649
15.3333,1661
15.3361,1665
15.3389,1642
15.3417,1605
15.3444,1574
15.3472,1590
15.3500,1628
15.3528,1674
15.3556,1694
15.3583,1695
15.3611,1670
15.3639,1633
15.3667,1639
15.3694,1639
15.3722,1657
15.3750,1665
15.3778,1676
15.3806,1679
15.3833,1681
15.3861,1678
15.3889,1679
15.3917,1690
15.3944,1701
15.3972,1702
15.4000,1706
15.4028,1694
15.4056,1676
15.4083,1671
15.4111,1682
15.4139,1685
15.4167,1697
15.4194,1703
15.4222,1698
15.4250,1691
15.4278,1683
15.4306,1677
15.4333,1675
15.4361,1693
15.4389,1700
15.4417,1696
15.4444,1684
15.4472,1690
15.4500,1695
15.4528,1717
15.4556,1745
15.4583,1775
15.4611,1791
15.4639,1768
15.4667,1751
15.4694,1737
15.4722,1737
15.4750,1744
15.4778,1765
15.4806,1759
15.4833,1746
15.4861,1732
15.4889,1712
15.4917,1723
15.4944,1714
15.4972,1724
15.5000,1718
15.5028,1719
15.5056,1703
15.5083,1684
15.5111,1691
15.5139,1677
15.5167,1697
15.5194,1680
15.5222,1678
15.5250,1653
15.5278,1648
15.5306,1658
15.5333,1664
15.5361,1683
15.5389,1688
15.5417,1701
15.5444,1707
15.5472,1713
15.5500,1707
15.5528,1724
15.5556,1731
15.5583,1727
15.5611,1725
15.5639,1735
15.5667,1722
15.5694,1710
15.5722,1697
15.5750,1695
15.5778,1710
15.5806,1707
15.5833,1698
15.5861,1702
15.5889,1713
15.5917,1715
15.5944,1708
15.5972,1709
15.6000,1701
15.6028,1678
15.6056,1666
15.6083,1674
15.6111,1684
15.6139,1684
15.6167,1672
15.6194,1667
15.6222,1658
15.6250,1673
15.6278,1684
15.6306,1684
15.6333,1699
15.6361,1711
15.6389,1720
15.6417,1725
15.6444,1724
15.6472,1697
15.6500,1700
15.6528,1691
15.6556,1700
15.6583,1698
15.6611,1689
15.6639,1687
15.6667,1689
15.6694,1691
15.6722,1683
15.6750,1688
15.6778,1676
15.6806,1671
15.6833,1672
15.6861,1680
15.6889,1705
15.6917,1728
15.6944,1744
15.6972,1747
15.7000,1746
15.7028,1732
15.7056,1738
15.7083,1747
15.7111,1758
15.7139,1774
15.7167,1780
15.7194,1775
15.7222,1760
15.7250,1786
15.7278,1802
15.7306,1802
15.7333,1816
15.7361,1818
15.7389,1809
15.7417,1802
15.7444,1779
15.7472,1754
15.7500,1715
15.7528,1684
15.7556,1680
15.7583,1673
15.7611,1668
15.7639,1659
15.7667,1646
15.7694,1617
15.7722,1613
15.7750,1630
15.7778,1642
15.7806,1651
15.7833,1643
15.7861,1641
15.7889,1622
15.7917,1619
15.7944,1625
15.7972,1637
15.8000,1642
15.8028,1653
15.8056,1654
15.8083,1645
15.8111,1629
15.8139,1631
15.8167,1641
15.8194,1640
15.8222,1640
15.8250,1609
15.8278,1587
15.8306,1544
15.8333,1514
15.8361,1513
15.8389,1550
15.8417,1614
15.8444,1686
15.8472,1789
15.8500,1945
15.8528,2161
15.8556,2428
15.8583,2675
15.8611,2826
15.8639,2785
15.8667,2562
15.8694,2251
15.8722,1985
15.8750,1835
15.8778,1769
15.8806,1777
15.8833,1788
15.8861,1796
15.8889,1788
15.8917,1731
15.8944,1682
15.8972,1637
15.9000,1589
15.9028,1583
15.9056,1600
15.9083,1623
15.9111,1622
15.9139,1601
15.9167,1568
15.9194,1547
15.9222,1548
15.9250,1584
15.9278,1630
15.9306,1672
15.9333,1677
15.9361,1658
15.9389,1624
15.9417,1603
15.9444,1597
15.9472,1618
15.9500,1641
15.9528,1657
15.9556,1663
15.9583,1650
15.9611,1629
15.9639,1636
15.9667,1653
15.9694,1655
15.9722,1662
15.9750,1665
15.9778,1658
15.9806,1655
15.9833,1639
15.9861,1643
15.9889,1646
15.9917,1647
15.9944,1651
15.9972,1662
16.0000,1656
16.0028,1645
16.0056,1666
16.0083,1681
16.0111,1694
16.0139,1712
16.0167,1722
16.0194,1709
16.0222,1702
16.0250,1711
16.0278,1731
16.0306,1731
16.0333,1730
16.0361,1737
16.0389,1727
16.0417,1716
16.0444,1703
16.0472,1704
16.0500,1723
16.0528,1739
16.0556,1722
16.0583,1689
16.0611,1671
16.0639,1672
16.0667,1678
16.0694,1703
16.0722,1714
16.0750,1714
16.0778,1714
16.0806,1704
16.0833,1701
16.0861,1723
16.0889,1718
16.0917,1721
16.0944,1716
16.0972,1703
16.1000,1695
16.1028,1687
16.1056,1700
16.1083,1678
16.1111,1670
16.1139,1674
16.1167,1681
16.1194,1681
16.1222,1670
16.1250,1691
16.1278,1691
16.1306,1682
16.1333,1684
16.1361,1689
16.1389,1716
16.1417,1733
16.1444,1734
16.1472,1727
16.1500,1713
16.1528,1695
16.1556,1682
16.1583,1676
16.1611,1688
16.1639,1717
16.1667,1733
16.1694,1738
16.1722,1732
16.1750,1731
16.1778,1712
16.1806,1705
16.1833,1692
16.1861,1701
16.1889,1700
16.1917,1699
16.1944,1704
16.1972,1690
16.2000,1673
16.2028,1661
16.2056,1671
16.2083,1669
16.2111,1669
16.2139,1678
16.2167,1680
16.2194,1696
16.2222,1708
16.2250,1718
16.2278,1715
16.2306,1715
16.2333,1704
16.2361,1707
16.2389,1685
16.2417,1670
16.2444,1659
16.2472,1658
16.2500,1656
16.2528,1669
16.2556,1670
16.2583,1655
16.2611,1657
16.2639,1656
16.2667,1652
16.2694,1653
16.2722,1665
16.2750,1688
16.2778,1718
16.2806,1735
16.2833,1758
16.2861,1770
16.2889,1782
16.2917,1758
16.2944,1761
16.2972,1769
16.3000,1764
16.3028,1762
16.3056,1769
16.3083,1775
16.3111,1761
16.3139,1764
16.3167,1790
16.3194,1792
16.3222,1793
16.3250,1786
16.3278,1775
16.3306,1766
16.3333,1773
16.3361,1762
16.3389,1743
16.3417,1707
16.3444,1687
16.3472,1655
16.3500,1623
16.3528,1621
16.3556,1624
16.3583,1632
16.3611,1650
16.3639,1650
16.3667,1650
16.3694,1644
16.3722,1638
16.3750,1630
16.3778,1623
16.3806,1631
16.3833,1637
16.3861,1624
16.3889,1626
16.3917,1619
16.3944,1614
16.3972,1623
16.4000,1627
16.4028,1636
16.4056,1652
16.4083,1653
16.4111,1646
16.4139,1640
16.4167,1613
16.4194,1575
16.4222,1543
16.4250,1545
16.4278,1555
16.4306,1594
16.4333,1648
16.4361,1722
16.4389,1847
16.4417,2051
16.4444,2324
16.4472,2584
16.4500,2750
16.4528,2737
16.4556,2559
16.4583,2281
16.4611,2046
16.4639,1880
16.4667,1788
16.4694,1743
16.4722,1733
16.4750,1744
16.4778,1741
16.4806,1720
16.4833,1672
16.4861,1643
16.4889,1618
16.4917,1609
16.4944,1608
16.4972,1617
16.5000,1621
16.5028,1613
16.5056,1616
16.5083,1605
16.5111,1605
16.5139,1602
16.5167,1615
16.5194,1627
16.5222,1623
16.5250,1632
16.5278,1615
16.5306,1588
16.5333,1584
16.5361,1579
16.5389,1591
16.5417,1594
16.5444,1600
16.5472,1599
16.5500,1608
16.5528,1617
16.5556,1624
16.5583,1628
16.5611,1636
16.5639,1625
16.5667,1629
16.5694,1614
16.5722,1621
16.5750,1634
16.5778,1664
16.5806,1675
16.5833,1666
16.5861,1657
16.5889,1633
16.5917,1634
16.5944,1657
16.5972,1670
16.6000,1666
16.6028,1669
16.6056,1667
16.6083,1654
16.6111,1654
16.6139,1671
16.6167,1671
16.6194,1682
16.6222,1689
16.6250,1711
16.6278,1701
16.6306,1688
16.6333,1689
16.6361,1702
16.6389,1722
16.6417,1730
16.6444,1706
16.6472,1706
16.6500,1704
16.6528,1706
16.6556,1699
16.6583,1705
16.6611,1702
16.6639,1708
16.6667,1673
16.6694,1663
16.6722,1658
16.6750,1670
16.6778,1681
16.6806,1687
16.6833,1677
16.6861,1660
16.6889,1641
16.6917,1638
16.6944,1661
16.6972,1675
16.7000,1678
16.7028,1687
16.7056,1677
16.7083,1643
16.7111,1629
16.7139,1632
16.7167,1640
16.7194,1650
16.7222,1667
16.7250,1683
16.7278,1684
16.7306,1687
16.7333,1687
16.7361,1697
16.7389,1705
16.7417,1706
16.7444,1707
16.7472,1702
16.7500,1693
16.7528,1688
16.7556,1706
16.7583,1716
16.7611,1732
16.7639,1745
16.7667,1750
16.7694,1727
16.7722,1701
16.7750,1688
16.7778,1671
16.7806,1658
16.7833,1659
16.7861,1655
16.7889,1648
16.7917,1643
16.7944,1664
16.7972,1686
16.8000,1682
16.8028,1682
16.8056,1685
16.8083,1686
16.8111,1673
16.8139,1684
16.8167,1708
16.8194,1721
16.8222,1722
16.8250,1731
16.8278,1716
16.8306,1696
16.8333,1688
16.8361,1689
16.8389,1688
16.8417,1695
16.8444,1696
16.8472,1693
16.8500,1697
16.8528,1696
16.8556,1696
16.8583,1709
16.8611,1712
16.8639,1724
16.8667,1709
16.8694,1708
16.8722,1734
16.8750,1761
16.8778,1774
16.8806,1792
16.8833,1799
16.8861,1823
16.8889,1826
16.8917,1831
16.8944,1827
16.8972,1797
16.9000,1804
16.9028,1815
16.9056,1830
16.9083,1844
16.9111,1837
16.9139,1836
16.9167,1823
16.9194,1810
16.9222,1793
16.9250,1758
16.9278,1729
16.9306,1708
16.9333,1703
16.9361,1698
16.9389,1697
16.9417,1703
16.9444,1718
16.9472,1714
16.9500,1704
16.9528,1711
16.9556,1705
16.9583,1696
16.9611,1698
16.9639,1708
16.9667,1722
16.9694,1714
16.9722,1706
16.9750,1700
16.9778,1702
16.9806,1688
16.9833,1692
16.9861,1670
16.9889,1663
16.9917,1658
16.9944,1696
16.9972,1724
17.0000,1731
17.0028,1706
17.0056,1660
17.0083,1615
17.0111,1607
17.0139,1634
17.0167,1673
17.0194,1708
17.0222,1787
17.0250,1924
17.0278,2142
17.0306,2420
17.0333,2678
17.0361,2817
17.0389,2770
17.0417,2557
17.0444,2317
17.0472,2124
17.0500,1995
17.0528,1923
17.0556,1879
17.0583,1873
17.0611,1870
17.0639,1850
17.0667,1800
17.0694,1740
17.0722,1693
17.0750,1681
17.0778,1688
17.0806,1698
17.0833,1706
17.0861,1714
17.0889,1681
17.0917,1669
17.0944,1659
17.0972,1663
17.1000,1694
17.1028,1719
17.1056,1737
17.1083,1731
17.1111,1696
17.1139,1667
17.1167,1649
17.1194,1654
17.1222,1663
17.1250,1669
17.1278,1665
17.1306,1648
17.1333,1653
17.1361,1680
17.1389,1704
17.1417,1729
17.1444,1728
17.1472,1716
17.1500,1696
17.1528,1679
17.1556,1675
17.1583,1696
17.1611,1725
17.1639,1758
17.1667,1780
17.1694,1743
17.1722,1713
17.1750,1727
17.1778,1744
17.1806,1764
17.1833,1767
17.1861,1743
17.1889,1722
17.1917,1696
17.1944,1701
17.1972,1732
17.2000,1747
17.2028,1757
17.2056,1772
17.2083,1782
17.2111,1800
17.2139,1814
17.2167,1810
17.2194,1811
17.2222,1809
17.2250,1816
17.2278,1778
17.2306,1786
17.2333,1803
17.2361,1799
17.2389,1787
17.2417,1773
17.2444,1758
17.2472,1753
17.2500,1749
17.2528,1742
17.2556,1720
17.2583,1715
17.2611,1725
17.2639,1744
17.2667,1750
17.2694,1741
17.2722,1710
17.2750,1689
17.2778,1689
17.2806,1709
17.2833,1736
17.2861,1745
17.2889,1743
17.2917,1721
17.2944,1715
17.2972,1727
17.3000,1732
17.3028,1742
17.3056,1761
17.3083,1763
17.3111,1757
17.3139,1740
17.3167,1720
17.3194,1728
17.3222,1744
17.3250,1771
17.3278,1775
17.3306,1754
17.3333,1736
17.3361,1722
17.3389,1710
17.3417,1721
17.3444,1740
17.3472,1732
17.3500,1737
17.3528,1747
17.3556,1741
17.3583,1746
17.3611,1743
17.3639,1749
17.3667,1729
17.3694,1696
17.3722,1651
17.3750,1633
17.3778,1631
17.3806,1646
17.3833,1686
17.3861,1734
17.3889,1743
17.3917,1742
17.3944,1769
17.3972,1753
17.4000,1730
17.4028,1716
17.4056,1714
17.4083,1713
17.4111,1696
17.4139,1695
17.4167,1692
17.4194,1699
17.4222,1707
17.4250,1714
17.4278,1722
17.4306,1712
17.4333,1718
17.4361,1710
17.4389,1708
17.4417,1708
17.4444,1707
17.4472,1683
17.4500,1673
17.4528,1669
17.4556,1668
17.4583,1647
17.4611,1625
17.4639,1661
17.4667,1663
17.4694,1654
17.4722,1642
17.4750,1655
17.4778,1709
17.4806,1782
17.4833,1842
17.4861,1863
17.4889,1856
17.4917,1829
17.4944,1801
17.4972,1768
17.5000,1745
17.5028,1759
17.5056,1776
17.5083,1777
17.5111,1794
17.5139,1799
17.5167,1802
17.5194,1802
17.5222,1791
17.5250,1768
17.5278,1760
17.5306,1762
17.5333,1753
17.5361,1737
17.5389,1726
17.5417,1720
17.5444,1710
17.5472,1690
17.5500,1680
17.5528,1686
17.5556,1685
17.5583,1680
17.5611,1658
17.5639,1639
17.5667,1617
17.5694,1611
17.5722,1635
17.5750,1647
17.5778,1644
17.5806,1655
17.5833,1672
17.5861,1679
17.5889,1675
17.5917,1666
17.5944,1666
17.5972,1672
17.6000,1667
17.6028,1634
17.6056,1610
17.6083,1616
17.6111,1615
17.6139,1620
17.6167,1594
17.6194,1568
17.6222,1565
17.6250,1573
17.6278,1602
17.6306,1642
17.6333,1702
17.6361,1818
17.6389,2000
17.6417,2271
17.6444,2594
17.6472,2861
17.6500,2929
17.6528,2777
17.6556,2447
17.6583,2093
17.6611,1852
17.6639,1760
17.6667,1757
17.6694,1795
17.6722,1822
17.6750,1829
17.6778,1810
17.6806,1746
17.6833,1688
17.6861,1623
17.6889,1582
17.6917,1573
17.6944,1575
17.6972,1608
17.7000,1621
17.7028,1636
17.7056,1657
17.7083,1646
17.7111,1632
17.7139,1626
17.7167,1627
17.7194,1621
17.7222,1618
17.7250,1615
17.7278,1608
17.7306,1627
17.7333,1631
17.7361,1638
17.7389,1630
17.7417,1629
17.7444,1631
17.7472,1631
17.7500,1634
17.7528,1661
17.7556,1656
17.7583,1655
17.7611,1652
17.7639,1651
17.7667,1632
17.7694,1618
17.7722,1632
17.7750,1668
17.7778,1673
17.7806,1655
17.7833,1645
17.7861,1623
17.7889,1606
17.7917,1621
17.7944,1648
17.7972,1677
17.8000,1690
17.8028,1696
17.8056,1687
17.8083,1688
17.8111,1687
17.8139,1700
17.8167,1700
17.8194,1721
17.8222,1739
17.8250,1736
17.8278,1729
17.8306,1725
17.8333,1731
17.8361,1741
17.8389,1786
17.8417,1769
17.8444,1724
17.8472,1666
17.8500,1647
17.8528,1665
17.8556,1714
17.8583,1732
17.8611,1752
17.8639,1741
17.8667,1705
17.8694,1680
17.8722,1678
17.8750,1664
17.8778,1679
17.8806,1685
17.8833,1685
17.8861,1665
17.8889,1650
17.8917,1639
17.8944,1637
17.8972,1652
17.9000,1669
17.9028,1685
17.9056,1697
17.9083,1685
17.9111,1674
17.9139,1674
17.9167,1668
17.9194,1672
17.9222,1687
17.9250,1699
17.9278,1700
17.9306,1684
17.9333,1649
17.9361,1640
17.9389,1660
17.9417,1714
17.9444,1749
17.9472,1735
17.9500,1710
17.9528,1703
17.9556,1694
17.9583,1696
17.9611,1691
17.9639,1682
17.9667,1674
17.9694,1686
17.9722,1715
17.9750,1715
17.9778,1701
17.9806,1702
17.9833,1705
17.9861,1707
17.9889,1697
17.9917,1689
17.9944,1683
17.9972,1682
18.0000,1682
18.0028,1682
18.0056,1662
18.0083,1642
18.0111,1639
18.0139,1674
18.0167,1680
18.0194,1682
18.0222,1690
18.0250,1681
18.0278,1663
18.0306,1669
18.0333,1689
18.0361,1691
18.0389,1692
18.0417,1693
18.0444,1675
18.0472,1638
18.0500,1635
18.0528,1643
18.0556,1664
18.0583,1683
18.0611,1690
18.0639,1681
18.0667,1662
18.0694,1656
18.0722,1660
18.0750,1668
18.0778,1672
18.0806,1685
18.0833,1702
18.0861,1710
18.0889,1694
18.0917,1698
18.0944,1694
18.0972,1696
18.1000,1694
18.1028,1689
18.1056,1676
18.1083,1645
18.1111,1625
18.1139,1626
18.1167,1648
18.1194,1672
18.1222,1699
18.1250,1718
18.1278,1705
18.1306,1689
18.1333,1705
18.1361,1716
18.1389,1733
18.1417,1761
18.1444,1786
18.1472,1785
18.1500,1781
18.1528,1775
18.1556,1764
18.1583,1754
18.1611,1768
18.1639,1796
18.1667,1805
18.1694,1786
18.1722,1785
18.1750,1783
18.1778,1791
18.1806,1792
18.1833,1781
18.1861,1750
18.1889,1716
18.1917,1702
18.1944,1702
18.1972,1690
18.2000,1675
18.2028,1672
18.2056,1665
18.2083,1656
18.2111,1641
18.2139,1628
18.2167,1608
18.2194,1622
18.2222,1635
18.2250,1654
18.2278,1654
18.2306,1663
18.2333,1666
18.2361,1656
18.2389,1654
18.2417,1649
18.2444,1658
18.2472,1674
18.2500,1672
18.2528,1673
18.2556,1666
18.2583,1644
18.2611,1624
18.2639,1579
18.2667,1546
18.2694,1538
18.2722,1571
18.2750,1623
18.2778,1671
18.2806,1735
18.2833,1848
18.2861,2027
18.2889,2277
18.2917,2566
18.2944,2808
18.2972,2891
18.3000,2743
18.3028,2448
18.3056,2151
18.3083,1953
18.3111,1844
18.3139,1825
18.3167,1818
18.3194,1816
18.3222,1806
18.3250,1768
18.3278,1723
18.3306,1681
18.3333,1650
18.3361,1638
18.3389,1626
18.3417,1644
18.3444,1663
18.3472,1653
18.3500,1619
18.3528,1592
18.3556,1586
18.3583,1585
18.3611,1626
18.3639,1661
18.3667,1688
18.3694,1668
18.3722,1654
18.3750,1627
18.3778,1619
18.3806,1626
18.3833,1655
18.3861,1668
18.3889,1674
18.3917,1665
18.3944,1647
18.3972,1636
18.4000,1640
18.4028,1656
18.4056,1661
18.4083,1663
18.4111,1656
18.4139,1647
18.4167,1642
18.4194,1639
18.4222,1642
18.4250,1633
18.4278,1618
18.4306,1608
18.4333,1638
18.4361,1666
18.4389,1687
18.4417,1708
18.4444,1723
18.4472,1731
18.4500,1733
18.4528,1726
18.4556,1710
18.4583,1702
18.4611,1707
18.4639,1718
18.4667,1727
18.4694,1708
18.4722,1710
18.4750,1722
18.4778,1720
18.4806,1733
18.4833,1723
18.4861,1730
18.4889,1730
18.4917,1718
18.4944,1707
18.4972,1695
18.5000,1685
18.5028,1678
18.5056,1673
18.5083,1687
18.5111,1687
18.5139,1678
18.5167,1647
18.5194,1637
18.5222,1641
18.5250,1652
18.5278,1651
18.5306,1661
18.5333,1677
18.5361,1681
18.5389,1694
18.5417,1695
18.5444,1693
18.5472,1682
18.5500,1671
18.5528,1666
18.5556,1660
18.5583,1659
18.5611,1661
18.5639,1660
18.5667,1653
18.5694,1657
18.5722,1662
18.5750,1666
18.5778,1676
18.5806,1670
18.5833,1665
18.5861,1676
18.5889,1689
18.5917,1711
18.5944,1711
18.5972,1707
18.6000,1684
18.6028,1680
18.6056,1675
18.6083,1690
18.6111,1693
18.6139,1702
18.6167,1696
18.6194,1691
18.6222,1703
18.6250,1695
18.6278,1687
18.6306,1673
18.6333,1657
18.6361,1635
18.6389,1626
18.6417,1654
18.6444,1695
18.6472,1716
18.6500,1724
18.6528,1712
18.6556,1697
18.6583,1685
18.6611,1673
18.6639,1665
18.6667,1652
18.6694,1639
18.6722,1641
18.6750,1646
18.6778,1652
18.6806,1662
18.6833,1668
18.6861,1672
18.6889,1674
18.6917,1678
18.6944,1673
18.6972,1674
18.7000,1681
18.7028,1696
18.7056,1697
18.7083,1689
18.7111,1671
18.7139,1671
18.7167,1661
18.7194,1646
18.7222,1659
18.7250,1660
18.7278,1667
18.7306,1666
18.7333,1668
18.7361,1664
18.7389,1671
18.7417,1668
18.7444,1654
18.7472,1638
18.7500,1644
18.7528,1649
18.7556,1670
18.7583,1690
18.7611,1722
18.7639,1720
18.7667,1707
18.7694,1698
18.7722,1698
18.7750,1715
18.7778,1727
18.7806,1736
18.7833,1741
18.7861,1741
18.7889,1745
18.7917,1748
18.7944,1750
18.7972,1750
18.8000,1758
18.8028,1757
18.8056,1747
18.8083,1738
18.8111,1759
18.8139,1770
18.8167,1789
18.8194,1795
18.8222,1765
18.8250,1738
18.8278,1708
18.8306,1677
18.8333,1636
18.8361,1616
18.8389,1641
18.8417,1668
18.8444,1676
18.8472,1651
18.8500,1622
18.8528,1613
18.8556,1622
18.8583,1646
18.8611,1660
18.8639,1673
18.8667,1655
18.8694,1648
18.8722,1639
18.8750,1625
18.8778,1613
18.8806,1625
18.8833,1642
18.8861,1663
18.8889,1669
18.8917,1682
18.8944,1659
18.8972,1640
18.9000,1601
18.9028,1564
18.9056,1530
18.9083,1541
18.9111,1575
18.9139,1613
18.9167,1654
18.9194,1705
18.9222,1812
18.9250,1988
18.9278,2225
18.9306,2493
18.9333,2694
18.9361,2709
18.9389,2546
18.9417,2325
18.9444,2133
18.9472,2005
18.9500,1916
18.9528,1856
18.9556,1828
18.9583,1813
18.9611,1810
18.9639,1793
18.9667,1740
18.9694,1672
18.9722,1636
18.9750,1613
18.9778,1608
18.9806,1629
18.9833,1628
18.9861,1623
18.9889,1648
18.9917,1654
18.9944,1643
18.9972,1628
19.0000,1615
19.0028,1621
19.0056,1620
19.0083,1619
19.0111,1635
19.0139,1654
19.0167,1654
19.0194,1652
19.0222,1655
19.0250,1648
19.0278,1635
19.0306,1617
19.0333,1611
19.0361,1609
19.0389,1630
19.0417,1651
19.0444,1659
19.0472,1679
19.0500,1680
19.0528,1680
19.0556,1667
19.0583,1669
19.0611,1672
19.0639,1691
19.0667,1688
19.0694,1707
19.0722,1713
19.0750,1719
19.0778,1725
19.0806,1731
19.0833,1742
19.0861,1733
19.0889,1732
19.0917,1725
19.0944,1728
19.0972,1729
19.1000,1734
19.1028,1744
19.1056,1758
19.1083,1740
19.1111,1734
19.1139,1712
19.1167,1707
19.1194,1717
19.1222,1734
19.1250,1800
19.1278,1787
19.1306,1784
19.1333,1777
19.1361,1776
19.1389,1785
19.1417,1798
19.1444,1794
19.1472,1752
19.1500,1721
19.1528,1718
19.1556,1744
19.1583,1763
19.1611,1766
19.1639,1755
19.1667,1719
19.1694,1724
19.1722,1712
19.1750,1719
19.1778,1710
19.1806,1719
19.1833,1732
19.1861,1729
19.1889,1735
19.1917,1744
19.1944,1734
19.1972,1717
19.2000,1707
19.2028,1716
19.2056,1750
19.2083,1765
19.2111,1778
19.2139,1781
19.2167,1778
19.2194,1777
19.2222,1780
19.2250,1768
19.2278,1739
19.2306,1724
19.2333,1738
19.2361,1740
19.2389,1756
19.2417,1775
19.2444,1776
19.2472,1766
19.2500,1751
19.2528,1736
19.2556,1737
19.2583,1728
19.2611,1753
19.2639,1776
19.2667,1772
19.2694,1755
19.2722,1734
19.2750,1711
19.2778,1699
19.2806,1701
19.2833,1723
19.2861,1720
19.2889,1729
19.2917,1729
19.2944,1740
19.2972,1748
19.3000,1761
19.3028,1789
19.3056,1771
19.3083,1739
19.3111,1712
19.3139,1701
19.3167,1717
19.3194,1736
19.3222,1759
19.3250,1760
19.3278,1754
19.3306,1747
19.3333,1736
19.3361,1741
19.3389,1737
19.3417,1753
19.3444,1742
19.3472,1722
19.3500,1701
19.3528,1710
19.3556,1711
19.3583,1709
19.3611,1724
19.3639,1720
19.3667,1698
19.3694,1691
19.3722,1715
19.3750,1743
19.3778,1762
19.3806,1771
19.3833,1789
19.3861,1798
19.3889,1816
19.3917,1823
19.3944,1819
19.3972,1821
19.4000,1805
19.4028,1810
19.4056,1801
19.4083,1806
19.4111,1812
19.4139,1824
19.4167,1845
19.4194,1848
19.4222,1844
19.4250,1848
19.4278,1844
19.4306,1838
19.4333,1814
19.4361,1779
19.4389,1750
19.4417,1726
19.4444,1715
19.4472,1699
19.4500,1672
19.4528,1643
19.4556,1640
19.4583,1666
19.4611,1696
19.4639,1711
19.4667,1706
19.4694,1683
19.4722,1666
19.4750,1645
19.4778,1635
19.4806,1655
19.4833,1676
19.4861,1694
19.4889,1701
19.4917,1700
19.4944,1685
19.4972,1684
19.5000,1678
19.5028,1686
19.5056,1690
19.5083,1688
19.5111,1676
19.5139,1647
19.5167,1603
19.5194,1560
19.5222,1549
19.5250,1558
19.5278,1606
19.5306,1673
19.5333,1745
19.5361,1851
19.5389,2026
19.5417,2278
19.5444,2585
19.5472,2870
19.5500,3004
19.5528,2892
19.5556,2594
19.5583,2257
19.5611,2000
19.5639,1849
19.5667,1791
19.5694,1795
19.5722,1793
19.5750,1800
19.5778,1770
19.5806,1746
19.5833,1705
19.5861,1660
19.5889,1626
19.5917,1628
19.5944,1637
19.5972,1666
19.6000,1691
19.6028,1683
19.6056,1647
19.6083,1602
19.6111,1614
19.6139,1631
19.6167,1650
19.6194,1668
19.6222,1657
19.6250,1625
19.6278,1600
19.6306,1612
19.6333,1646
19.6361,1665
19.6389,1680
19.6417,1669
19.6444,1654
19.6472,1625
19.6500,1614
19.6528,1625
19.6556,1648
19.6583,1653
19.6611,1665
19.6639,1682
19.6667,1666
19.6694,1658
19.6722,1659
19.6750,1693
19.6778,1710
19.6806,1729
19.6833,1729
19.6861,1710
19.6889,1689
19.6917,1678
19.6944,1688
19.6972,1692
19.7000,1711
19.7028,1721
19.7056,1709
19.7083,1673
19.7111,1649
19.7139,1648
19.7167,1678
19.7194,1711
19.7222,1756
19.7250,1760
19.7278,1756
19.7306,1750
19.7333,1740
19.7361,1733
19.7389,1770
19.7417,1746
19.7444,1717
19.7472,1688
19.7500,1683
19.7528,1696
19.7556,1703
19.7583,1705
19.7611,1698
19.7639,1684
19.7667,1661
19.7694,1648
19.7722,1663
19.7750,1676
19.7778,1696
19.7806,1694
19.7833,1682
19.7861,1656
19.7889,1648
19.7917,1663
19.7944,1674
19.7972,1671
19.8000,1689
19.8028,1682
19.8056,1674
19.8083,1645
19.8111,1643
19.8139,1652
19.8167,1658
19.8194,1677
19.8222,1698
19.8250,1694
19.8278,1662
19.8306,1653
19.8333,1659
19.8361,1681
19.8389,1691
19.8417,1697
19.8444,1674
19.8472,1672
19.8500,1687
19.8528,1696
19.8556,1698
19.8583,1685
19.8611,1683
19.8639,1686
19.8667,1683
19.8694,1704
19.8722,1692
19.8750,1692
19.8778,1697
19.8806,1710
19.8833,1701
19.8861,1670
19.8889,1658
19.8917,1659
19.8944,1669
19.8972,1681
19.9000,1691
19.9028,1694
19.9056,1682
19.9083,1689
19.9111,1682
19.9139,1685
19.9167,1679
19.9194,1677
19.9222,1686
19.9250,1689
19.9278,1674
19.9306,1679
19.9333,1687
19.9361,1690
19.9389,1681
19.9417,1671
19.9444,1683
19.9472,1667
19.9500,1659
19.9528,1650
19.9556,1654
19.9583,1656
19.9611,1683
19.9639,1704
19.9667,1702
19.9694,1700
19.9722,1678
19.9750,1671
19.9778,1671
19.9806,1675
19.9833,1677
19.9861,1674
19.9889,1664
19.9917,1660
19.9944,1675
19.9972,1696
20.0000,1702
20.0028,1675
20.0056,1647
20.0083,1647
20.0111,1667
20.0139,1682
20.0167,1699
20.0194,1723
20.0222,1753
20.0250,1769
20.0278,1787
20.0306,1790
20.0333,1779
20.0361,1768
20.0389,1777
20.0417,1763
20.0444,1748
20.0472,1744
20.0500,1775
20.0528,1821
20.0556,1827
20.0583,1816
20.0611,1794
20.0639,1766
20.0667,1746
20.0694,1735
20.0722,1728
20.0750,1724
20.0778,1713
20.0806,1696
20.0833,1680
20.0861,1664
20.0889,1653
20.0917,1638
20.0944,1637
20.0972,1634
20.1000,1648
20.1028,1648
20.1056,1630
20.1083,1617
20.1111,1622
20.1139,1633
20.1167,1638
20.1194,1634
20.1222,1656
20.1250,1647
20.1278,1636
20.1306,1626
20.1333,1637
20.1361,1638
20.1389,1632
20.1417,1650
20.1444,1657
20.1472,1662
20.1500,1620
20.1528,1574
20.1556,1541
20.1583,1538
20.1611,1571
20.1639,1605
20.1667,1654
20.1694,1725
20.1722,1867
20.1750,2084
20.1778,2360
20.1806,2665
20.1833,2863
20.1861,2865
20.1889,2648
20.1917,2333
20.1944,2059
20.1972,1884
20.2000,1792
20.2028,1788
20.2056,1801
20.2083,1828
20.2111,1814
20.2139,1776
20.2167,1704
20.2194,1656
20.2222,1621
20.2250,1596
20.2278,1595
20.2306,1598
20.2333,1612
20.2361,1622
20.2389,1626
20.2417,1637
20.2444,1630
20.2472,1616
20.2500,1602
20.2528,1612
20.2556,1618
20.2583,1617
20.2611,1610
20.2639,1619
20.2667,1615
20.2694,1637
20.2722,1644
20.2750,1644
20.2778,1634
20.2806,1631
20.2833,1607
20.2861,1602
20.2889,1613
20.2917,1616
20.2944,1619
20.2972,1629
20.3000,1642
20.3028,1662
20.3056,1665
20.3083,1670
20.3111,1673
20.3139,1687
20.3167,1672
20.3194,1664
20.3222,1656
20.3250,1665
20.3278,1679
20.3306,1690
20.3333,1708
20.3361,1705
20.3389,1708
20.3417,1703
20.3444,1689
20.3472,1693
20.3500,1718
20.3528,1734
20.3556,1745
20.3583,1747
20.3611,1723
20.3639,1722
20.3667,1714
20.3694,1731
20.3722,1733
20.3750,1781
20.3778,1770
20.3806,1749
20.3833,1716
20.3861,1682
20.3889,1673
20.3917,1660
20.3944,1678
20.3972,1694
20.4000,1715
20.4028,1707
20.4056,1687
20.4083,1693
20.4111,1698
20.4139,1695
20.4167,1687
20.4194,1680
20.4222,1676
20.4250,1663
20.4278,1666
20.4306,1665
20.4333,1684
20.4361,1677
20.4389,1660
20.4417,1644
20.4444,1640
20.4472,1648
20.4500,1674
20.4528,1686
20.4556,1701
20.4583,1693
20.4611,1682
20.4639,1670
20.4667,1670
20.4694,1675
20.4722,1683
20.4750,1697
20.4778,1691
20.4806,1677
20.4833,1671
20.4861,1684
20.4889,1698
20.4917,1710
20.4944,1715
20.4972,1716
20.5000,1721
20.5028,1703
20.5056,1686
20.5083,1679
20.5111,1672
20.5139,1663
20.5167,1659
20.5194,1655
20.5222,1654
20.5250,1656
20.5278,1674
20.5306,1696
20.5333,1709
20.5361,1693
20.5389,1687
20.5417,1675
20.5444,1658
20.5472,1657
20.5500,1666
20.5528,1681
20.5556,1689
20.5583,1688
20.5611,1681
20.5639,1654
20.5667,1630
20.5694,1626
20.5722,1644
20.5750,1663
20.5778,1667
20.5806,1675
20.5833,1676
20.5861,1662
20.5889,1664
20.5917,1676
20.5944,1668
20.5972,1659
20.6000,1641
20.6028,1634
20.6056,1628
20.6083,1636
20.6111,1651
20.6139,1658
20.6167,1641
20.6194,1644
20.6222,1646
20.6250,1653
20.6278,1672
20.6306,1677
20.6333,1678
20.6361,1686
20.6389,1683
20.6417,1673
20.6444,1657
20.6472,1660
20.6500,1674
20.6528,1681
20.6556,1688
20.6583,1685
20.6611,1683
20.6639,1670
20.6667,1681
20.6694,1704
20.6722,1721
20.6750,1734
20.6778,1750
20.6806,1737
20.6833,1729
20.6861,1707
20.6889,1700
20.6917,1692
20.6944,1696
20.6972,1715
20.7000,1755
20.7028,1790
20.7056,1806
20.7083,1793
20.7111,1798
20.7139,1791
20.7167,1787
20.7194,1770
20.7222,1739
20.7250,1704
20.7278,1683
20.7306,1664
20.7333,1663
20.7361,1639
20.7389,1649
20.7417,1644
20.7444,1633
20.7472,1610
20.7500,1603
20.7528,1620
20.7556,1643
20.7583,1650
20.7611,1640
20.7639,1618
20.7667,1584
20.7694,1594
20.7722,1614
20.7750,1616
20.7778,1604
20.7806,1616
20.7833,1611
20.7861,1624
20.7889,1643
20.7917,1654
20.7944,1655
20.7972,1652
20.8000,1622
20.8028,1587
20.8056,1551
20.8083,1542
20.8111,1574
20.8139,1619
20.8167,1678
20.8194,1741
20.8222,1846
20.8250,2030
20.8278,2279
20.8306,2546
20.8333,2729
20.8361,2724
20.8389,2530
20.8417,2262
20.8444,2042
20.8472,1885
20.8500,1808
20.8528,1780
20.8556,1784
20.8583,1779
20.8611,1778
20.8639,1748
20.8667,1698
20.8694,1649
20.8722,1610
20.8750,1591
20.8778,1591
20.8806,1607
20.8833,1624
20.8861,1619
20.8889,1629
20.8917,1629
20.8944,1621
20.8972,1610
20.9000,1587
20.9028,1591
20.9056,1592
20.9083,1598
20.9111,1605
20.9139,1593
20.9167,1597
20.9194,1616
20.9222,1637
20.9250,1642
20.9278,1643
20.9306,1624
20.9333,1611
20.9361,1607
20.9389,1618
20.9417,1632
20.9444,1637
20.9472,1640
20.9500,1649
20.9528,1642
20.9556,1643
20.9583,1642
20.9611,1660
20.9639,1664
20.9667,1666
20.9694,1642
20.9722,1630
20.9750,1625
20.9778,1635
20.9806,1665
20.9833,1683
20.9861,1684
20.9889,1695
20.9917,1711
20.9944,1702
20.9972,1692
21.0000,1689
21.0028,1670
21.0056,1677
21.0083,1693
21.0111,1717
21.0139,1730
21.0167,1724
21.0194,1725
21.0222,1724
21.0250,1724
21.0278,1725
21.0306,1712
21.0333,1710
21.0361,1721
21.0389,1732
21.0417,1748
21.0444,1731
21.0472,1710
21.0500,1679
21.0528,1670
21.0556,1682
21.0583,1696
21.0611,1707
21.0639,1703
21.0667,1687
21.0694,1671
21.0722,1661
21.0750,1668
21.0778,1672
21.0806,1685
21.0833,1696
21.0861,1698
21.0889,1705
21.0917,1694
21.0944,1682
21.0972,1684
21.1000,1705
21.1028,1701
21.1056,1693
21.1083,1689
21.1111,1682
21.1139,1685
21.1167,1689
21.1194,1694
21.1222,1684
21.1250,1671
21.1278,1676
21.1306,1683
21.1333,1680
21.1361,1695
21.1389,1717
21.1417,1728
21.1444,1719
21.1472,1728
21.1500,1730
21.1528,1718
21.1556,1714
21.1583,1734
21.1611,1745
21.1639,1730
21.1667,1715
21.1694,1719
21.1722,1729
21.1750,1720
21.1778,1702
21.1806,1692
21.1833,1693
21.1861,1689
21.1889,1710
21.1917,1720
21.1944,1719
21.1972,1716
21.2000,1716
21.2028,1692
21.2056,1663
21.2083,1646
21.2111,1635
21.2139,1657
21.2167,1703
21.2194,1745
21.2222,1771
21.2250,1756
21.2278,1729
21.2306,1701
21.2333,1658
21.2361,1617
21.2389,1635
21.2417,1687
21.2444,1736
21.2472,1763
21.2500,1780
21.2528,1777
21.2556,1773
21.2583,1766
21.2611,1767
21.2639,1757
21.2667,1758
21.2694,1747
21.2722,1747
21.2750,1733
21.2778,1740
21.2806,1760
21.2833,1780
21.2861,1779
21.2889,1781
21.2917,1782
21.2944,1789
21.2972,1796
21.3000,1809
21.3028,1799
21.3056,1798
21.3083,1812
21.3111,1817
21.3139,1828
21.3167,1836
21.3194,1857
21.3222,1861
21.3250,1863
21.3278,1861
21.3306,1835
21.3333,1813
21.3361,1786
21.3389,1748
21.3417,1730
21.3444,1725
21.3472,1715
21.3500,1700
21.3528,1686
21.3556,1686
21.3583,1691
21.3611,1723
21.3639,1733
21.3667,1727
21.3694,1711
21.3722,1699
21.3750,1685
21.3778,1677
21.3806,1674
21.3833,1668
21.3861,1665
21.3889,1686
21.3917,1690
21.3944,1703
21.3972,1702
21.4000,1710
21.4028,1713
21.4056,1708
21.4083,1703
21.4111,1692
21.4139,1655
21.4167,1620
21.4194,1587
21.4222,1583
21.4250,1598
21.4278,1631
21.4306,1681
21.4333,1732
21.4361,1815
21.4389,1947
21.4417,2148
21.4444,2419
21.4472,2674
21.4500,2874
21.4528,2851
21.4556,2632
21.4583,2358
21.4611,2110
21.4639,1939
21.4667,1854
21.4694,1847
21.4722,1867
21.4750,1875
21.4778,1866
21.4806,1822
21.4833,1763
21.4861,1714
21.4889,1675
21.4917,1649
21.4944,1637
21.4972,1626
21.5000,1644
21.5028,1670
21.5056,1675
21.5083,1676
21.5111,1676
21.5139,1672
21.5167,1673
21.5194,1676
21.5222,1673
21.5250,1656
21.5278,1617
21.5306,1599
21.5333,1614
21.5361,1654
21.5389,1691
21.5417,1710
21.5444,1708
21.5472,1686
21.5500,1667
21.5528,1662
21.5556,1677
21.5583,1681
21.5611,1709
21.5639,1721
21.5667,1710
21.5694,1697
21.5722,1702
21.5750,1702
21.5778,1704
21.5806,1724
21.5833,1717
21.5861,1694
21.5889,1680
21.5917,1681
21.5944,1697
21.5972,1727
21.6000,1753
21.6028,1767
21.6056,1767
21.6083,1752
21.6111,1726
21.6139,1724
21.6167,1732
21.6194,1754
21.6222,1747
21.6250,1732
21.6278,1715
21.6306,1713
21.6333,1726
21.6361,1755
21.6389,1782
21.6417,1766
21.6444,1754
21.6472,1727
21.6500,1708
21.6528,1700
21.6556,1710
21.6583,1741
21.6611,1747
21.6639,1720
21.6667,1717
21.6694,1738
21.6722,1742
21.6750,1760
21.6778,1765
21.6806,1749
21.6833,1743
21.6861,1724
21.6889,1714
21.6917,1704
21.6944,1692
21.6972,1709
21.7000,1712
21.7028,1713
21.7056,1706
21.7083,1717
21.7111,1708
21.7139,1719
21.7167,1731
21.7194,1726
21.7222,1712
21.7250,1695
21.7278,1675
21.7306,1678
21.7333,1685
21.7361,1697
21.7389,1712
21.7417,1729
21.7444,1734
21.7472,1711
21.7500,1691
21.7528,1673
21.7556,1680
21.7583,1720
21.7611,1739
21.7639,1725
21.7667,1693
21.7694,1678
21.7722,1678
21.7750,1686
21.7778,1695
21.7806,1685
21.7833,1668
21.7861,1651
21.7889,1647
21.7917,1671
21.7944,1719
21.7972,1747
21.8000,1752
21.8028,1735
21.8056,1710
21.8083,1694
21.8111,1687
21.8139,1704
21.8167,1715
21.8194,1716
21.8222,1691
21.8250,1670
21.8278,1675
21.8306,1674
21.8333,1678
21.8361,1674
21.8389,1689
21.8417,1678
21.8444,1649
21.8472,1649
21.8500,1680
21.8528,1692
21.8556,1702
21.8583,1710
21.8611,1701
21.8639,1692
21.8667,1687
21.8694,1686
21.8722,1695
21.8750,1677
21.8778,1671
21.8806,1679
21.8833,1681
21.8861,1684
21.8889,1675
21.8917,1674
21.8944,1685
21.8972,1683
21.9000,1687
21.9028,1685
21.9056,1696
21.9083,1693
21.9111,1674
21.9139,1662
21.9167,1650
21.9194,1669
21.9222,1682
21.9250,1688
21.9278,1726
21.9306,1764
21.9333,1778
21.9361,1779
21.9389,1779
21.9417,1761
21.9444,1763
21.9472,1762
21.9500,1774
21.9528,1777
21.9556,1767
21.9583,1768
21.9611,1760
21.9639,1767
21.9667,1779
21.9694,1784
21.9722,1789
21.9750,1782
21.9778,1780
21.9806,1745
21.9833,1699
21.9861,1662
21.9889,1631
21.9917,1636
21.9944,1639
21.9972,1635
22.0000,1651
22.0028,1656
22.0056,1641
22.0083,1641
22.0111,1637
22.0139,1620
22.0167,1624
22.0194,1622
22.0222,1631
22.0250,1632
22.0278,1649
22.0306,1654
22.0333,1653
22.0361,1646
22.0389,1635
22.0417,1633
22.0444,1613
22.0472,1617
22.0500,1623
22.0528,1619
22.0556,1611
22.0583,1593
22.0611,1559
22.0639,1520
22.0667,1510
22.0694,1535
22.0722,1602
22.0750,1654
22.0778,1720
22.0806,1864
22.0833,2093
22.0861,2383
22.0889,2698
22.0917,2896
22.0944,2906
22.0972,2689
22.1000,2350
22.1028,2055
22.1056,1853
22.1083,1760
22.1111,1740
22.1139,1759
22.1167,1780
22.1194,1796
22.1222,1756
22.1250,1685
22.1278,1626
22.1306,1609
22.1333,1598
22.1361,1605
22.1389,1634
22.1417,1648
22.1444,1647
22.1472,1627
22.1500,1598
22.1528,1597
22.1556,1603
22.1583,1620
22.1611,1641
22.1639,1650
22.1667,1635
22.1694,1612
22.1722,1585
22.1750,1569
22.1778,1586
22.1806,1623
22.1833,1651
22.1861,1645
22.1889,1614
22.1917,1601
22.1944,1605
22.1972,1633
22.2000,1671
22.2028,1675
22.2056,1670
22.2083,1642
22.2111,1627
22.2139,1623
22.2167,1644
22.2194,1688
22.2222,1699
22.2250,1702
22.2278,1696
22.2306,1679
22.2333,1664
22.2361,1656
22.2389,1661
22.2417,1662
22.2444,1677
22.2472,1697
22.2500,1717
22.2528,1715
22.2556,1706
22.2583,1713
22.2611,1717
22.2639,1702
22.2667,1704
22.2694,1704
22.2722,1693
22.2750,1697
22.2778,1715
22.2806,1729
22.2833,1757
22.2861,1768
22.2889,1767
22.2917,1757
22.2944,1741
22.2972,1736
22.3000,1728
22.3028,1717
22.3056,1703
22.3083,1702
22.3111,1679
22.3139,1682
22.3167,1695
22.3194,1700
22.3222,1710
22.3250,1702
22.3278,1692
22.3306,1666
22.3333,1634
22.3361,1633
22.3389,1644
22.3417,1659
22.3444,1670
22.3472,1677
22.3500,1687
22.3528,1697
22.3556,1697
22.3583,1698
22.3611,1686
22.3639,1677
22.3667,1688
22.3694,1708
22.3722,1710
22.3750,1716
22.3778,1717
22.3806,1709
22.3833,1687
22.3861,1672
22.3889,1673
22.3917,1694
22.3944,1710
22.3972,1721
22.4000,1728
22.4028,1728
22.4056,1719
22.4083,1700
22.4111,1689
22.4139,1679
22.4167,1672
22.4194,1678
22.4222,1683
22.4250,1687
22.4278,1679
22.4306,1665
22.4333,1653
22.4361,1669
22.4389,1695
22.4417,1699
22.4444,1696
22.4472,1676
22.4500,1667
22.4528,1665
22.4556,1663
22.4583,1685
22.4611,1693
22.4639,1688
22.4667,1684
22.4694,1671
22.4722,1672
22.4750,1662
22.4778,1672
22.4806,1674
22.4833,1682
22.4861,1692
22.4889,1697
22.4917,1692
22.4944,1680
22.4972,1675
22.5000,1645
22.5028,1637
22.5056,1627
22.5083,1648
22.5111,1673
22.5139,1692
22.5167,1705
22.5194,1705
22.5222,1707
22.5250,1694
22.5278,1700
22.5306,1691
22.5333,1683
22.5361,1677
22.5389,1698
22.5417,1687
22.5444,1674
22.5472,1663
22.5500,1664
22.5528,1660
22.5556,1677
22.5583,1675
22.5611,1674
22.5639,1673
22.5667,1666
22.5694,1653
22.5722,1656
22.5750,1669
22.5778,1709
22.5806,1733
22.5833,1756
22.5861,1768
22.5889,1767
22.5917,1766
22.5944,1746
22.5972,1739
22.6000,1729
22.6028,1725
22.6056,1727
22.6083,1725
22.6111,1739
22.6139,1755
22.6167,1780
22.6194,1793
22.6222,1791
22.6250,1776
22.6278,1776
22.6306,1785
22.6333,1770
22.6361,1741
22.6389,1721
22.6417,1705
22.6444,1695
22.6472,1677
22.6500,1645
22.6528,1626
22.6556,1627
22.6583,1643
22.6611,1646
22.6639,1639
22.6667,1644
22.6694,1651
22.6722,1650
22.6750,1652
22.6778,1655
22.6806,1665
22.6833,1651
22.6861,1651
22.6889,1657
22.6917,1637
22.6944,1606
22.6972,1594
22.7000,1612
22.7028,1613
22.7056,1639
22.7083,1653
22.7111,1663
22.7139,1641
22.7167,1611
22.7194,1571
22.7222,1555
22.7250,1551
22.7278,1602
22.7306,1665
22.7333,1741
22.7361,1858
22.7389,2045
22.7417,2308
22.7444,2553
22.7472,2755
22.7500,2790
22.7528,2631
22.7556,2359
22.7583,2099
22.7611,1922
22.7639,1805
22.7667,1753
22.7694,1743
22.7722,1763
22.7750,1773
22.7778,1765
22.7806,1727
22.7833,1663
22.7861,1635
22.7889,1602
22.7917,1596
22.7944,1625
22.7972,1646
22.8000,1656
22.8028,1643
22.8056,1619
22.8083,1602
22.8111,1581
22.8139,1590
22.8167,1610
22.8194,1638
22.8222,1631
22.8250,1607
22.8278,1582
22.8306,1563
22.8333,1552
22.8361,1571
22.8389,1607
22.8417,1640
22.8444,1634
22.8472,1633
22.8500,1635
22.8528,1638
22.8556,1655
22.8583,1665
22.8611,1666
22.8639,1663
22.8667,1650
22.8694,1640
22.8722,1632
22.8750,1636
22.8778,1659
22.8806,1680
22.8833,1689
22.8861,1690
22.8889,1673
22.8917,1666
22.8944,1662
22.8972,1680
22.9000,1700
22.9028,1708
22.9056,1708
22.9083,1700
22.9111,1695
22.9139,1695
22.9167,1699
22.9194,1697
22.9222,1703
22.9250,1703
22.9278,1706
22.9306,1717
22.9333,1715
22.9361,1726
22.9389,1753
22.9417,1738
22.9444,1725
22.9472,1714
22.9500,1714
22.9528,1706
22.9556,1725
22.9583,1710
22.9611,1712
22.9639,1699
22.9667,1687
22.9694,1699
22.9722,1705
22.9750,1710
22.9778,1698
22.9806,1665
22.9833,1640
22.9861,1617
22.9889,1617
22.9917,1626
22.9944,1645
22.9972,1651
23.0000,1646
23.0028,1636
23.0056,1645
23.0083,1666
23.0111,1696
23.0139,1726
23.0167,1741
23.0194,1729
23.0222,1689
23.0250,1655
23.0278,1647
23.0306,1652
23.0333,1671
23.0361,1676
23.0389,1683
23.0417,1671
23.0444,1678
23.0472,1675
23.0500,1674
23.0528,1686
23.0556,1701
23.0583,1711
23.0611,1706
23.0639,1695
23.0667,1676
23.0694,1676
23.0722,1668
23.0750,1675
23.0778,1674
23.0806,1695
23.0833,1692
23.0861,1705
23.0889,1709
23.0917,1713
23.0944,1700
23.0972,1700
23.1000,1695
23.1028,1689
23.1056,1691
23.1083,1673
23.1111,1667
23.1139,1679
23.1167,1689
23.1194,1695
23.1222,1684
23.1250,1671
23.1278,1669
23.1306,1684
23.1333,1691
23.1361,1702
23.1389,1714
23.1417,1705
23.1444,1699
23.1472,1685
23.1500,1684
23.1528,1686
23.1556,1684
23.1583,1699
23.1611,1705
23.1639,1698
23.1667,1671
23.1694,1664
23.1722,1666
23.1750,1667
23.1778,1677
23.1806,1682
23.1833,1687
23.1861,1716
23.1889,1739
23.1917,1743
23.1944,1743
23.1972,1735
23.2000,1732
23.2028,1734
23.2056,1763
23.2083,1783
23.2111,1782
23.2139,1780
23.2167,1760
23.2194,1769
23.2222,1770
23.2250,1771
23.2278,1781
23.2306,1784
23.2333,1792
23.2361,1804
23.2389,1810
23.2417,1814
23.2444,1822
23.2472,1812
23.2500,1802
23.2528,1795
23.2556,1794
23.2583,1777
23.2611,1751
23.2639,1731
23.2667,1734
23.2694,1722
23.2722,1712
23.2750,1692
23.2778,1711
23.2806,1698
23.2833,1693
23.2861,1677
23.2889,1668
23.2917,1671
23.2944,1674
23.2972,1688
23.3000,1692
23.3028,1688
23.3056,1697
23.3083,1698
23.3111,1692
23.3139,1679
23.3167,1679
23.3194,1683
23.3222,1677
23.3250,1645
23.3278,1644
23.3306,1648
23.3333,1664
23.3361,1671
23.3389,1659
23.3417,1628
23.3444,1612
23.3472,1607
23.3500,1627
23.3528,1670
23.3556,1701
23.3583,1774
23.3611,1909
23.3639,2121
23.3667,2420
23.3694,2681
23.3722,2845
23.3750,2822
23.3778,2601
23.3806,2326
23.3833,2099
23.3861,1983
23.3889,1912
23.3917,1867
23.3944,1847
23.3972,1850
23.4000,1834
23.4028,1789
23.4056,1736
23.4083,1689
23.4111,1658
23.4139,1640
23.4167,1643
23.4194,1654
23.4222,1653
23.4250,1653
23.4278,1641
23.4306,1634
23.4333,1638
23.4361,1656
23.4389,1694
23.4417,1705
23.4444,1705
23.4472,1696
23.4500,1682
23.4528,1668
23.4556,1673
23.4583,1687
23.4611,1712
23.4639,1711
23.4667,1706
23.4694,1694
23.4722,1692
23.4750,1676
23.4778,1682
23.4806,1682
23.4833,1689
23.4861,1696
23.4889,1692
23.4917,1693
23.4944,1686
23.4972,1706
23.5000,1721
23.5028,1729
23.5056,1722
23.5083,1703
23.5111,1691
23.5139,1686
23.5167,1702
23.5194,1728
23.5222,1730
23.5250,1738
23.5278,1737
23.5306,1738
23.5333,1726
23.5361,1719
23.5389,1725
23.5417,1729
23.5444,1748
23.5472,1758
23.5500,1777
23.5528,1774
23.5556,1785
23.5583,1781
23.5611,1800
23.5639,1795
23.5667,1791
23.5694,1787
23.5722,1765
23.5750,1763
23.5778,1766
23.5806,1758
23.5833,1735
23.5861,1732
23.5889,1725
23.5917,1736
23.5944,1744
23.5972,1757
23.6000,1748
23.6028,1743
23.6056,1733
23.6083,1717
23.6111,1711
23.6139,1724
23.6167,1725
23.6194,1725
23.6222,1715
23.6250,1697
23.6278,1686
23.6306,1689
23.6333,1685
23.6361,1693
23.6389,1695
23.6417,1693
23.6444,1689
23.6472,1704
23.6500,1704
23.6528,1714
23.6556,1734
23.6583,1754
23.6611,1757
23.6639,1744
23.6667,1728
23.6694,1726
23.6722,1709
23.6750,1724
23.6778,1727
23.6806,1742
23.6833,1733
23.6861,1708
23.6889,1683
23.6917,1669
23.6944,1674
23.6972,1676
23.7000,1682
23.7028,1677
23.7056,1699
23.7083,1721
23.7111,1749
23.7139,1759
23.7167,1764
23.7194,1755
23.7222,1747
23.7250,1732
23.7278,1717
23.7306,1700
23.7333,1703
23.7361,1701
23.7389,1716
23.7417,1715
23.7444,1708
23.7472,1710
23.7500,1698
23.7528,1687
23.7556,1702
23.7583,1709
23.7611,1719
23.7639,1728
23.7667,1711
23.7694,1689
23.7722,1675
23.7750,1682
23.7778,1707
23.7806,1716
23.7833,1717
23.7861,1711
23.7889,1682
23.7917,1646
23.7944,1661
23.7972,1688
23.8000,1704
23.8028,1710
23.8056,1725
23.8083,1725
23.8111,1733
23.8139,1721
23.8167,1726
23.8194,1736
23.8222,1736
23.8250,1733
23.8278,1722
23.8306,1705
23.8333,1690
23.8361,1703
23.8389,1702
23.8417,1691
23.8444,1685
23.8472,1685
23.8500,1688
23.8528,1679
23.8556,1692
23.8583,1721
23.8611,1746
23.8639,1780
23.8667,1776
23.8694,1786
23.8722,1787
23.8750,1788
23.8778,1796
23.8806,1771
23.8833,1743
23.8861,1728
23.8889,1735
23.8917,1763
23.8944,1791
23.8972,1814
23.9000,1839
23.9028,1835
23.9056,1836
23.9083,1830
23.9111,1816
23.9139,1775
23.9167,1754
23.9194,1713
23.9222,1706
23.9250,1705
23.9278,1696
23.9306,1679
23.9333,1659
23.9361,1639
23.9389,1647
23.9417,1639
23.9444,1660
23.9472,1676
23.9500,1681
23.9528,1665
23.9556,1639
23.9583,1621
23.9611,1620
23.9639,1624
23.9667,1647
23.9694,1671
23.9722,1691
23.9750,1700
23.9778,1680
23.9806,1658
23.9833,1645
23.9861,1649
23.9889,1659
23.9917,1645
23.9944,1617
23.9972,1585
24.0000,1559
24.0028,1552
24.0056,1577
24.0083,1619
24.0111,1664
24.0139,1754
24.0167,1882
24.0194,2107
24.0222,2384
24.0250,2657
24.0278,2853
24.0306,2891
24.0333,2708
24.0361,2391
24.0389,2086
24.0417,1886
24.0444,1784
24.0472,1771
24.0500,1786
24.0528,1798
24.0556,1792
24.0583,1770
24.0611,1742
24.0639,1716
24.0667,1679
24.0694,1645
24.0722,1620
24.0750,1620
24.0778,1635
24.0806,1644
24.0833,1646
24.0861,1633
24.0889,1618
24.0917,1613
24.0944,1634
24.0972,1659
24.1000,1681
24.1028,1665
24.1056,1631
24.1083,1602
24.1111,1597
24.1139,1592
24.1167,1631
24.1194,1652
24.1222,1657
24.1250,1652
24.1278,1626
24.1306,1595
24.1333,1573
24.1361,1606
24.1389,1635
24.1417,1663
24.1444,1667
24.1472,1671
24.1500,1693
24.1528,1711
24.1556,1742
24.1583,1747
24.1611,1725
24.1639,1695
24.1667,1690
24.1694,1689
24.1722,1666
24.1750,1689
24.1778,1708
24.1806,1704
24.1833,1716
24.1861,1706
24.1889,1699
24.1917,1698
24.1944,1718
24.1972,1733
24.2000,1740
24.2028,1736
24.2056,1734
24.2083,1715
24.2111,1699
24.2139,1709
24.2167,1727
24.2194,1723
24.2222,1713
24.2250,1702
24.2278,1698
24.2306,1710
24.2333,1746
24.2361,1766
24.2389,1756
24.2417,1715
24.2444,1699
24.2472,1693
24.2500,1676
24.2528,1672
24.2556,1673
24.2583,1668
24.2611,1667
24.2639,1671
24.2667,1676
24.2694,1680
24.2722,1697
24.2750,1708
24.2778,1713
24.2806,1716
24.2833,1706
24.2861,1685
24.2889,1669
24.2917,1638
24.2944,1625
24.2972,1630
24.3000,1655
24.3028,1676
24.3056,1686
24.3083,1697
24.3111,1706
24.3139,1708
24.3167,1722
24.3194,1721
24.3222,1699
24.3250,1690
24.3278,1688
24.3306,1704
24.3333,1697
24.3361,1669
24.3389,1652
24.3417,1628
24.3444,1627
24.3472,1649
24.3500,1684
24.3528,1683
24.3556,1687
24.3583,1692
24.3611,1697
24.3639,1694
24.3667,1701
24.3694,1700
24.3722,1701
24.3750,1713
24.3778,1714
24.3806,1705
24.3833,1686
24.3861,1678
24.3889,1679
24.3917,1677
24.3944,1685
24.3972,1697
24.4000,1687
24.4028,1680
24.4056,1673
24.4083,1672
24.4111,1685
24.4139,1695
24.4167,1711
24.4194,1703
24.4222,1684
24.4250,1681
24.4278,1672
24.4306,1662
24.4333,1659
24.4361,1671
24.4389,1677
24.4417,1678
24.4444,1661
24.4472,1667
24.4500,1673
24.4528,1695
24.4556,1710
24.4583,1695
24.4611,1684
24.4639,1638
24.4667,1643
24.4694,1652
24.4722,1668
24.4750,1695
24.4778,1705
24.4806,1703
24.4833,1701
24.4861,1710
24.4889,1712
24.4917,1716
24.4944,1724
24.4972,1721
24.5000,1728
24.5028,1715
24.5056,1709
24.5083,1697
24.5111,1693
24.5139,1700
24.5167,1719
24.5194,1747
24.5222,1759
24.5250,1766
24.5278,1756
24.5306,1765
24.5333,1768
24.5361,1771
24.5389,1768
24.5417,1761
24.5444,1754
24.5472,1766
24.5500,1781
24.5528,1806
24.5556,1825
24.5583,1828
24.5611,1810
24.5639,1797
24.5667,1786
24.5694,1780
24.5722,1753
24.5750,1736
24.5778,1702
24.5806,1670
24.5833,1648
24.5861,1637
24.5889,1616
24.5917,1622
24.5944,1640
24.5972,1671
24.6000,1675
24.6028,1668
24.6056,1666
24.6083,1656
24.6111,1648
24.6139,1659
24.6167,1656
24.6194,1657
24.6222,1654
24.6250,1650
24.6278,1658
24.6306,1661
24.6333,1662
24.6361,1670
24.6389,1675
24.6417,1668
24.6444,1665
24.6472,1649
24.6500,1627
24.6528,1580
24.6556,1536
24.6583,1541
24.6611,1546
24.6639,1586
24.6667,1636
24.6694,1707
24.6722,1813
24.6750,1999
24.6778,2264
24.6806,2536
24.6833,2770
24.6861,2866
24.6889,2741
24.6917,2461
24.6944,2170
24.6972,1976
24.7000,1843
24.7028,1794
24.7056,1787
24.7083,1784
24.7111,1775
24.7139,1758
24.7167,1732
24.7194,1683
24.7222,1645
24.7250,1610
24.7278,1587
24.7306,1579
24.7333,1590
24.7361,1621
24.7389,1635
24.7417,1627
24.7444,1614
24.7472,1598
24.7500,1610
24.7528,1632
24.7556,1640
24.7583,1655
24.7611,1652
24.7639,1646
24.7667,1647
24.7694,1640
24.7722,1650
24.7750,1665
24.7778,1666
24.7806,1644
24.7833,1637
24.7861,1624
24.7889,1621
24.7917,1637
24.7944,1634
24.7972,1643
24.8000,1638
24.8028,1623
24.8056,1633
24.8083,1641
24.8111,1643
24.8139,1646
24.8167,1651
24.8194,1646
24.8222,1658
24.8250,1657
24.8278,1671
24.8306,1680
24.8333,1697
24.8361,1696
24.8389,1705
24.8417,1689
24.8444,1703
24.8472,1714
24.8500,1729
24.8528,1738
24.8556,1753
24.8583,1746
24.8611,1742
24.8639,1724
24.8667,1709
24.8694,1715
24.8722,1728
24.8750,1782
24.8778,1756
24.8806,1718
24.8833,1704
24.8861,1705
24.8889,1715
24.8917,1739
24.8944,1770
24.8972,1773
24.9000,1747
24.9028,1719
24.9056,1680
24.9083,1666
24.9111,1679
24.9139,1691
24.9167,1703
24.9194,1689
24.9222,1669
24.9250,1670
24.9278,1658
24.9306,1666
24.9333,1682
24.9361,1685
24.9389,1687
24.9417,1674
24.9444,1684
24.9472,1674
24.9500,1669
24.9528,1672
24.9556,1677
24.9583,1677
24.9611,1664
24.9639,1642
24.9667,1634
24.9694,1631
24.9722,1652
24.9750,1701
24.9778,1725
24.9806,1727
24.9833,1711
24.9861,1693
24.9889,1677
24.9917,1680
24.9944,1701
24.9972,1713
25.0000,1709
25.0028,1694
25.0056,1696
25.0083,1694
25.0111,1693
25.0139,1694
25.0167,1695
25.0194,1692
25.0222,1674
25.0250,1672
25.0278,1686
25.0306,1693
25.0333,1700
25.0361,1705
25.0389,1690
25.0417,1667
25.0444,1657
25.0472,1658
25.0500,1679
25.0528,1685
25.0556,1675
25.0583,1668
25.0611,1640
25.0639,1638
25.0667,1635
25.0694,1657
25.0722,1684
25.0750,1716
25.0778,1712
25.0806,1712
25.0833,1702
25.0861,1706
25.0889,1694
25.0917,1674
25.0944,1664
25.0972,1664
25.1000,1648
25.1028,1665
25.1056,1672
25.1083,1676
25.1111,1688
25.1139,1700
25.1167,1711
25.1194,1697
25.1222,1686
25.1250,1677
25.1278,1693
25.1306,1713
25.1333,1704
25.1361,1705
25.1389,1680
25.1417,1667
25.1444,1677
25.1472,1679
25.1500,1681
25.1528,1685
25.1556,1704
25.1583,1729
25.1611,1740
25.1639,1756
25.1667,1777
25.1694,1804
25.1722,1815
25.1750,1812
25.1778,1793
25.1806,1755
25.1833,1767
25.1861,1771
25.1889,1771
25.1917,1764
25.1944,1777
25.1972,1794
25.2000,1809
25.2028,1797
25.2056,1756
25.2083,1701
25.2111,1672
25.2139,1662
25.2167,1667
25.2194,1662
25.2222,1654
25.2250,1668
25.2278,1671
25.2306,1670
25.2333,1662
25.2361,1652
25.2389,1631
25.2417,1633
25.2444,1628
25.2472,1621
25.2500,1619
25.2528,1629
25.2556,1652
25.2583,1652
25.2611,1656
25.2639,1643
25.2667,1637
25.2694,1639
25.2722,1631
25.2750,1645
25.2778,1656
25.2806,1644
25.2833,1642
25.2861,1632
25.2889,1589
25.2917,1540
25.2944,1519
25.2972,1542
25.3000,1585
25.3028,1653
25.3056,1746
25.3083,1875
25.3111,2073
25.3139,2338
25.3167,2594
25.3194,2721
25.3222,2685
25.3250,2474
25.3278,2225
25.3306,2036
25.3333,1926
25.3361,1865
25.3389,1841
25.3417,1815
25.3444,1808
25.3472,1788
25.3500,1749
25.3528,1668
25.3556,1600
25.3583,1556
25.3611,1540
25.3639,1570
25.3667,1610
25.3694,1635
25.3722,1629
25.3750,1613
25.3778,1595
25.3806,1581
25.3833,1584
25.3861,1590
25.3889,1590
25.3917,1581
25.3944,1574
25.3972,1572
25.4000,1561
25.4028,1568
25.4056,1597
25.4083,1617
25.4111,1616
25.4139,1620
25.4167,1614
25.4194,1605
25.4222,1585
25.4250,1588
25.4278,1595
25.4306,1609
25.4333,1610
25.4361,1610
25.4389,1598
25.4417,1601
25.4444,1604
25.4472,1618
25.4500,1619
25.4528,1607
25.4556,1605
25.4583,1604
25.4611,1602
25.4639,1613
25.4667,1628
25.4694,1644
25.4722,1644
25.4750,1646
25.4778,1639
25.4806,1621
25.4833,1614
25.4861,1609
25.4889,1604
25.4917,1603
25.4944,1620
25.4972,1653
25.5000,1646
25.5028,1662
25.5056,1692
25.5083,1641
25.5111,1631
25.5139,1651
25.5167,1636
25.5194,1618
25.5222,1614
25.5250,1612
25.5278,1621
25.5306,1636
25.5333,1611
25.5361,1576
25.5389,1537
25.5417,1518
25.5444,1529
25.5472,1567
25.5500,1596
25.5528,1604
25.5556,1578
25.5583,1545
25.5611,1543
25.5639,1547
25.5667,1552
25.5694,1559
25.5722,1547
25.5750,1555
25.5778,1553
25.5806,1544
25.5833,1553
25.5861,1555
25.5889,1551
25.5917,1544
25.5944,1544
25.5972,1538
25.6000,1532
25.6028,1562
25.6056,1585
25.6083,1610
25.6111,1601
25.6139,1583
25.6167,1558
25.6194,1536
25.6222,1533
25.6250,1548
25.6278,1562
25.6306,1553
25.6333,1554
25.6361,1547
25.6389,1526
25.6417,1513
25.6444,1531
25.6472,1550
25.6500,1556
25.6528,1563
25.6556,1569
25.6583,1549
25.6611,1518
25.6639,1511
25.6667,1493
25.6694,1493
25.6722,1508
25.6750,1504
25.6778,1502
25.6806,1500
25.6833,1512
25.6861,1513
25.6889,1522
25.6917,1522
25.6944,1525
25.6972,1513
25.7000,1502
25.7028,1513
25.7056,1517
25.7083,1512
25.7111,1515
25.7139,1521
25.7167,1511
25.7194,1515
25.7222,1514
25.7250,1524
25.7278,1517
25.7306,1513
25.7333,1518
25.7361,1527
25.7389,1527
25.7417,1532
25.7444,1528
25.7472,1525
25.7500,1507
25.7528,1491
25.7556,1486
25.7583,1488
25.7611,1492
25.7639,1482
25.7667,1483
25.7694,1499
25.7722,1525
25.7750,1543
25.7778,1541
25.7806,1541
25.7833,1536
25.7861,1538
25.7889,1543
25.7917,1560
25.7944,1580
25.7972,1600
25.8000,1623
25.8028,1619
25.8056,1609
25.8083,1604
25.8111,1560
25.8139,1541
25.8167,1570
25.8194,1613
25.8222,1636
25.8250,1650
25.8278,1674
25.8306,1675
25.8333,1652
25.8361,1577
25.8389,1512
25.8417,1498
25.8444,1527
25.8472,1535
25.8500,1530
25.8528,1514
25.8556,1481
25.8583,1443
25.8611,1415
25.8639,1421
25.8667,1457
25.8694,1494
25.8722,1505
25.8750,1495
25.8778,1488
25.8806,1481
25.8833,1474
25.8861,1470
25.8889,1480
25.8917,1476
25.8944,1486
25.8972,1477
25.9000,1465
25.9028,1468
25.9056,1472
25.9083,1478
25.9111,1460
25.9139,1459
25.9167,1431
25.9194,1394
25.9222,1364
25.9250,1376
25.9278,1412
25.9306,1454
25.9333,1494
25.9361,1581
25.9389,1684
25.9417,1896
25.9444,2185
25.9472,2471
25.9500,2699
25.9528,2745
25.9556,2564
25.9583,2238
25.9611,1943
25.9639,1738
25.9667,1640
25.9694,1618
25.9722,1629
25.9750,1657
25.9778,1644
25.9806,1590
25.9833,1549
25.9861,1504
25.9889,1477
25.9917,1455
25.9944,1468
25.9972,1471
26.0000,1452
26.0028,1437
26.0056,1449
26.0083,1449
26.0111,1441
26.0139,1459
26.0167,1486
26.0194,1508
26.0222,1508
26.0250,1495
26.0278,1478
26.0306,1449
26.0333,1459
26.0361,1473
26.0389,1494
26.0417,1524
26.0444,1535
26.0472,1522
26.0500,1503
26.0528,1493
26.0556,1517
26.0583,1531
26.0611,1542
26.0639,1535
26.0667,1523
26.0694,1508
26.0722,1497
26.0750,1521
26.0778,1553
26.0806,1549
26.0833,1567
26.0861,1555
26.0889,1548
26.0917,1553
26.0944,1554
26.0972,1547
26.1000,1531
26.1028,1525
26.1056,1537
26.1083,1533
26.1111,1564
26.1139,1588
26.1167,1610
26.1194,1636
26.1222,1658
26.1250,1659
26.1278,1654
26.1306,1641
26.1333,1644
26.1361,1644
26.1389,1621
26.1417,1688
26.1444,1697
26.1472,1674
26.1500,1635
26.1528,1634
26.1556,1615
26.1583,1614
26.1611,1620
26.1639,1625
26.1667,1626
26.1694,1632
26.1722,1638
26.1750,1641
26.1778,1632
26.1806,1622
26.1833,1611
26.1861,1584
26.1889,1557
26.1917,1544
26.1944,1533
26.1972,1521
26.2000,1538
26.2028,1577
26.2056,1605
26.2083,1626
26.2111,1624
26.2139,1626
26.2167,1624
26.2194,1630
26.2222,1617
26.2250,1610
26.2278,1595
26.2306,1606
26.2333,1615
26.2361,1631
26.2389,1624
26.2417,1629
26.2444,1629
26.2472,1620
26.2500,1609
26.2528,1616
26.2556,1624
26.2583,1618
26.2611,1608
26.2639,1600
26.2667,1580
26.2694,1565
26.2722,1571
26.2750,1604
26.2778,1646
26.2806,1661
26.2833,1665
26.2861,1658
26.2889,1659
26.2917,1660
26.2944,1683
26.2972,1667
26.3000,1652
26.3028,1632
26.3056,1629
26.3083,1638
26.3111,1649
26.3139,1666
26.3167,1673
26.3194,1665
26.3222,1668
26.3250,1659
26.3278,1647
26.3306,1655
26.3333,1676
26.3361,1675
26.3389,1648
26.3417,1634
26.3444,1632
26.3472,1645
26.3500,1639
26.3528,1630
26.3556,1637
26.3583,1643
26.3611,1657
26.3639,1669
26.3667,1664
26.3694,1657
26.3722,1645
26.3750,1658
26.3778,1666
26.3806,1670
26.3833,1672
26.3861,1683
26.3889,1681
26.3917,1675
26.3944,1683
26.3972,1664
26.4000,1653
26.4028,1645
26.4056,1646
