Tiempo(s),Valor_ADC
0.0028,6
0.0056,1687
0.0083,1686
0.0111,1696
0.0139,1700
0.0167,1717
0.0194,1728
0.0222,1734
0.0250,1723
0.0278,1708
0.0306,1708
0.0333,1714
0.0361,1738
0.0389,1748
0.0417,1760
0.0444,1756
0.0472,1749
0.0500,1748
0.0528,1754
0.0556,1766
0.0583,1785
0.0611,1783
0.0639,1782
0.0667,1768
0.0694,1766
0.0722,1774
0.0750,1782
0.0778,1776
0.0806,1788
0.0833,1790
0.0861,1790
0.0889,1779
0.0917,1775
0.0944,1784
0.0972,1798
0.1000,1797
0.1028,1804
0.1056,1798
0.1083,1803
0.1111,1807
0.1139,1808
0.1167,1820
0.1194,1818
0.1222,1822
0.1250,1816
0.1278,1816
0.1306,1827
0.1333,1847
0.1361,1854
0.1389,1873
0.1417,1873
0.1444,1846
0.1472,1851
0.1500,1856
0.1528,1861
0.1556,1855
0.1583,1857
0.1611,1859
0.1639,1851
0.1667,1851
0.1694,1856
0.1722,1765
0.1750,1775
0.1778,1772
0.1806,1762
0.1833,1755
0.1861,1740
0.1889,1729
0.1917,1729
0.1944,1726
0.1972,1740
0.2000,1732
0.2028,1724
0.2056,1713
0.2083,1699
0.2111,1699
0.2139,1709
0.2167,1719
0.2194,1725
0.2222,1720
0.2250,1720
0.2278,1718
0.2306,1728
0.2333,1726
0.2361,1718
0.2389,1732
0.2417,1733
0.2444,1725
0.2472,1725
0.2500,1730
0.2528,1732
0.2556,1731
0.2583,1727
0.2611,1739
0.2639,1740
0.2667,1735
0.2694,1727
0.2722,1723
0.2750,1727
0.2778,1742
0.2806,1732
0.2833,1727
0.2861,1716
0.2889,1714
0.2917,1716
0.2944,1728
0.2972,1728
0.3000,1726
0.3028,1725
0.3056,1720
0.3083,1716
0.3111,1720
0.3139,1716
0.3167,1727
0.3194,1731
0.3222,1723
0.3250,1713
0.3278,1710
0.3306,1722
0.3333,1746
0.3361,1757
0.3389,1759
0.3417,1750
0.3444,1739
0.3472,1730
0.3500,1728
0.3528,1722
0.3556,1737
0.3583,1745
0.3611,1738
0.3639,1734
0.3667,1735
0.3694,1744
0.3722,1755
0.3750,1748
0.3778,1746
0.3806,1745
0.3833,1730
0.3861,1730
0.3889,1739
0.3917,1727
0.3944,1729
0.3972,1752
0.4000,1762
0.4028,1764
0.4056,1764
0.4083,1774
0.4111,1798
0.4139,1829
0.4167,1866
0.4194,1881
0.4222,1867
0.4250,1868
0.4278,1866
0.4306,1889
0.4333,1921
0.4361,1964
0.4389,2012
0.4417,2057
0.4444,2067
0.4472,2063
0.4500,2046
0.4528,2029
0.4556,2028
0.4583,2017
0.4611,2011
0.4639,1996
0.4667,1963
0.4694,1917
0.4722,1879
0.4750,1849
0.4778,1817
0.4806,1802
0.4833,1784
0.4861,1783
0.4889,1777
0.4917,1769
0.4944,1761
0.4972,1764
0.5000,1772
0.5028,1773
0.5056,1760
0.5083,1755
0.5111,1744
0.5139,1746
0.5167,1744
0.5194,1737
0.5222,1735
0.5250,1744
0.5278,1750
0.5306,1762
0.5333,1759
0.5361,1749
0.5389,1729
0.5417,1692
0.5444,1666
0.5472,1653
0.5500,1673
0.5528,1721
0.5556,1798
0.5583,1921
0.5611,2113
0.5639,2373
0.5667,2643
0.5694,2869
0.5722,3011
0.5750,3028
0.5778,2872
0.5806,2555
0.5833,2156
0.5861,1773
0.5889,1512
0.5917,1393
0.5944,1391
0.5972,1454
0.6000,1550
0.6028,1647
0.6056,1726
0.6083,1774
0.6111,1799
0.6139,1805
0.6167,1806
0.6194,1814
0.6222,1820
0.6250,1833
0.6278,1837
0.6306,1832
0.6333,1818
0.6361,1808
0.6389,1802
0.6417,1798
0.6444,1801
0.6472,1814
0.6500,1818
0.6528,1821
0.6556,1820
0.6583,1812
0.6611,1839
0.6639,1852
0.6667,1865
0.6694,1851
0.6722,1861
0.6750,1856
0.6778,1853
0.6806,1854
0.6833,1851
0.6861,1853
0.6889,1865
0.6917,1869
0.6944,1874
0.6972,1881
0.7000,1880
0.7028,1892
0.7056,1889
0.7083,1889
0.7111,1894
0.7139,1887
0.7167,1891
0.7194,1898
0.7222,1909
0.7250,1920
0.7278,1919
0.7306,1914
0.7333,1914
0.7361,1908
0.7389,1909
0.7417,1920
0.7444,1930
0.7472,1933
0.7500,1944
0.7528,1938
0.7556,1942
0.7583,1949
0.7611,1960
0.7639,1964
0.7667,1971
0.7694,1983
0.7722,1980
0.7750,1981
0.7778,1986
0.7806,1911
0.7833,1905
0.7861,1899
0.7889,1898
0.7917,1894
0.7944,1888
0.7972,1882
0.8000,1878
0.8028,1865
0.8056,1854
0.8083,1859
0.8111,1852
0.8139,1847
0.8167,1837
0.8194,1840
0.8222,1839
0.8250,1838
0.8278,1828
0.8306,1829
0.8333,1823
0.8361,1822
0.8389,1837
0.8417,1838
0.8444,1843
0.8472,1845
0.8500,1827
0.8528,1810
0.8556,1816
0.8583,1816
0.8611,1826
0.8639,1828
0.8667,1825
0.8694,1830
0.8722,1818
0.8750,1809
0.8778,1799
0.8806,1796
0.8833,1784
0.8861,1784
0.8889,1778
0.8917,1772
0.8944,1783
0.8972,1782
0.9000,1785
0.9028,1797
0.9056,1800
0.9083,1812
0.9111,1808
0.9139,1805
0.9167,1805
0.9194,1803
0.9222,1809
0.9250,1819
0.9278,1826
0.9306,1822
0.9333,1825
0.9361,1840
0.9389,1837
0.9417,1833
0.9444,1837
0.9472,1842
0.9500,1836
0.9528,1822
0.9556,1804
0.9583,1797
0.9611,1803
0.9639,1801
0.9667,1804
0.9694,1816
0.9722,1830
0.9750,1833
0.9778,1832
0.9806,1842
0.9833,1838
0.9861,1841
0.9889,1829
0.9917,1814
0.9944,1814
0.9972,1822
1.0000,1824
1.0028,1834
1.0056,1838
1.0083,1847
1.0111,1847
1.0139,1850
1.0167,1858
1.0194,1875
1.0222,1904
1.0250,1934
1.0278,1968
1.0306,1983
1.0333,1998
1.0361,1995
1.0389,1991
1.0417,1995
1.0444,2028
1.0472,2079
1.0500,2122
1.0528,2165
1.0556,2197
1.0583,2205
1.0611,2191
1.0639,2175
1.0667,2161
1.0694,2141
1.0722,2136
1.0750,2120
1.0778,2103
1.0806,2070
1.0833,2022
1.0861,1990
1.0889,1959
1.0917,1936
1.0944,1912
1.0972,1874
1.1000,1857
1.1028,1834
1.1056,1828
1.1083,1823
1.1111,1809
1.1139,1797
1.1167,1794
1.1194,1798
1.1222,1785
1.1250,1775
1.1278,1786
1.1306,1776
1.1333,1781
1.1361,1773
1.1389,1784
1.1417,1797
1.1444,1801
1.1472,1799
1.1500,1783
1.1528,1760
1.1556,1727
1.1583,1701
1.1611,1704
1.1639,1713
1.1667,1753
1.1694,1812
1.1722,1919
1.1750,2079
1.1778,2303
1.1806,2565
1.1833,2766
1.1861,2903
1.1889,2949
1.1917,2848
1.1944,2595
1.1972,2239
1.2000,1862
1.2028,1585
1.2056,1440
1.2083,1420
1.2111,1454
1.2139,1508
1.2167,1553
1.2194,1619
1.2222,1672
1.2250,1699
1.2278,1709
1.2306,1713
1.2333,1726
1.2361,1752
1.2389,1768
1.2417,1777
1.2444,1767
1.2472,1748
1.2500,1744
1.2528,1733
1.2556,1734
1.2583,1748
1.2611,1761
1.2639,1763
1.2667,1752
1.2694,1754
1.2722,1754
1.2750,1767
1.2778,1781
1.2806,1804
1.2833,1805
1.2861,1806
1.2889,1792
1.2917,1764
1.2944,1765
1.2972,1767
1.3000,1785
1.3028,1804
1.3056,1815
1.3083,1816
1.3111,1817
1.3139,1837
1.3167,1875
1.3194,1901
1.3222,1933
1.3250,2005
1.3278,2100
1.3306,2178
1.3333,2190
1.3361,2143
1.3389,2050
1.3417,1936
1.3444,1910
1.3472,1952
1.3500,1967
1.3528,1915
1.3556,1791
1.3583,1684
1.3611,1584
1.3639,1552
1.3667,1570
1.3694,1613
1.3722,1652
1.3750,1693
1.3778,1714
1.3806,1725
1.3833,1697
1.3861,1664
1.3889,1650
1.3917,1688
1.3944,1556
1.3972,1573
1.4000,1585
1.4028,1593
1.4056,1586
1.4083,1559
1.4111,1530
1.4139,1638
1.4167,1866
1.4194,2123
1.4222,2249
1.4250,2142
1.4278,1876
1.4306,1546
1.4333,1330
1.4361,1226
1.4389,1261
1.4417,1335
1.4444,1408
1.4472,1418
1.4500,1424
1.4528,1412
1.4556,1395
1.4583,1356
1.4611,1346
1.4639,1352
1.4667,1376
1.4694,1396
1.4722,1422
1.4750,1456
1.4778,1463
1.4806,1449
1.4833,1441
1.4861,1442
1.4889,1484
1.4917,1511
1.4944,1509
1.4972,1480
1.5000,1415
1.5028,1375
1.5056,1370
1.5083,1381
1.5111,1403
1.5139,1429
1.5167,1431
1.5194,1430
1.5222,1439
1.5250,1467
1.5278,1466
1.5306,1467
1.5333,1493
1.5361,1491
1.5389,1450
1.5417,1368
1.5444,1287
1.5472,1252
1.5500,1244
1.5528,1265
1.5556,1273
1.5583,1292
1.5611,1301
1.5639,1303
1.5667,1319
1.5694,1311
1.5722,1308
1.5750,1297
1.5778,1297
1.5806,1293
1.5833,1294
1.5861,1300
1.5889,1311
1.5917,1305
1.5944,1304
1.5972,1304
1.6000,1300
1.6028,1287
1.6056,1276
1.6083,1281
1.6111,1285
1.6139,1300
1.6167,1318
1.6194,1329
1.6222,1342
1.6250,1363
1.6278,1368
1.6306,1350
1.6333,1356
1.6361,1376
1.6389,1404
1.6417,1408
1.6444,1394
1.6472,1414
1.6500,1487
1.6528,1555
1.6556,1584
1.6583,1591
1.6611,1550
1.6639,1518
1.6667,1513
1.6694,1586
1.6722,1673
1.6750,1735
1.6778,1769
1.6806,1762
1.6833,1735
1.6861,1711
1.6889,1724
1.6917,1767
1.6944,1829
1.6972,1889
1.7000,1958
1.7028,1990
1.7056,2031
1.7083,2030
1.7111,2005
1.7139,1950
1.7167,1895
1.7194,1878
1.7222,1862
1.7250,1866
1.7278,1836
1.7306,1754
1.7333,1626
1.7361,1503
1.7389,1380
1.7417,1304
1.7444,1291
1.7472,1320
1.7500,1367
1.7528,1409
1.7556,1450
1.7583,1473
1.7611,1472
1.7639,1467
1.7667,1400
1.7694,1349
1.7722,1331
1.7750,1281
1.7778,1212
1.7806,1126
1.7833,1000
1.7861,882
1.7889,824
1.7917,874
1.7944,1021
1.7972,1190
1.8000,1367
1.8028,1539
1.8056,1706
1.8083,1845
1.8111,1938
1.8139,1996
1.8167,1971
1.8194,1810
1.8222,1552
1.8250,1228
1.8278,934
1.8306,719
1.8333,614
1.8361,610
1.8389,673
1.8417,791
1.8444,916
1.8472,1008
1.8500,1064
1.8528,1116
1.8556,1198
1.8583,1282
1.8611,1364
1.8639,1434
1.8667,1480
1.8694,1468
1.8722,1448
1.8750,1423
1.8778,1388
1.8806,1370
1.8833,1374
1.8861,1418
1.8889,1454
1.8917,1458
1.8944,1469
1.8972,1472
1.9000,1468
1.9028,1462
1.9056,1459
1.9083,1427
1.9111,1377
1.9139,1336
1.9167,1298
1.9194,1268
1.9222,1269
1.9250,1260
1.9278,1259
1.9306,1294
1.9333,1316
1.9361,1317
1.9389,1339
1.9417,1374
1.9444,1429
1.9472,1474
1.9500,1490
1.9528,1436
1.9556,1352
1.9583,1272
1.9611,1270
1.9639,1333
1.9667,1419
1.9694,1456
1.9722,1457
1.9750,1425
1.9778,1376
1.9806,1404
1.9833,1440
1.9861,1486
1.9889,1520
1.9917,1527
1.9944,1501
1.9972,1472
2.0000,1417
2.0028,1356
2.0056,1307
2.0083,1292
2.0111,1320
2.0139,1378
2.0167,1448
2.0194,1510
2.0222,1566
2.0250,1575
2.0278,1600
2.0306,1586
2.0333,1555
2.0361,1507
2.0389,1476
2.0417,1488
2.0444,1514
2.0472,1527
2.0500,1529
2.0528,1521
2.0556,1518
2.0583,1511
2.0611,1503
2.0639,1495
2.0667,1519
2.0694,1590
2.0722,1657
2.0750,1705
2.0778,1695
2.0806,1659
2.0833,1617
2.0861,1588
2.0889,1586
2.0917,1593
2.0944,1612
2.0972,1623
2.1000,1656
2.1028,1673
2.1056,1690
2.1083,1696
2.1111,1701
2.1139,1701
2.1167,1709
2.1194,1725
2.1222,1760
2.1250,1767
2.1278,1768
2.1306,1771
2.1333,1784
2.1361,1780
2.1389,1794
2.1417,1777
2.1444,1763
2.1472,1749
2.1500,1733
2.1528,1730
2.1556,1727
2.1583,1735
2.1611,1744
2.1639,1764
2.1667,1780
2.1694,1798
2.1722,1805
2.1750,1815
2.1778,1819
2.1806,1825
2.1833,1814
2.1861,1800
2.1889,1803
2.1917,1805
2.1944,1817
2.1972,1824
2.2000,1835
2.2028,1834
2.2056,1840
2.2083,1843
2.2111,1851
2.2139,1849
2.2167,1851
2.2194,1869
2.2222,1872
2.2250,1857
2.2278,1856
2.2306,1849
2.2333,1848
2.2361,1852
2.2389,1857
2.2417,1856
2.2444,1849
2.2472,1844
2.2500,1832
2.2528,1847
2.2556,1861
2.2583,1866
2.2611,1863
2.2639,1854
2.2667,1851
2.2694,1851
2.2722,1841
2.2750,1841
2.2778,1838
2.2806,1839
2.2833,1833
2.2861,1831
2.2889,1809
2.2917,1809
2.2944,1811
2.2972,1823
2.3000,1817
2.3028,1823
2.3056,1825
2.3083,1831
2.3111,1829
2.3139,1842
2.3167,1864
2.3194,1893
2.3222,1917
2.3250,1939
2.3278,1934
2.3306,1930
2.3333,1918
2.3361,1931
2.3389,1935
2.3417,1940
2.3444,1959
2.3472,1988
2.3500,2022
2.3528,2032
2.3556,2023
2.3583,2021
2.3611,2007
2.3639,1993
2.3667,1970
2.3694,1949
2.3722,1914
2.3750,1896
2.3778,1878
2.3806,1853
2.3833,1828
2.3861,1777
2.3889,1742
2.3917,1713
2.3944,1693
2.3972,1698
2.4000,1699
2.4028,1704
2.4056,1712
2.4083,1718
2.4111,1713
2.4139,1712
2.4167,1705
2.4194,1699
2.4222,1720
2.4250,1725
2.4278,1728
2.4306,1729
2.4333,1733
2.4361,1719
2.4389,1710
2.4417,1698
2.4444,1679
2.4472,1658
2.4500,1638
2.4528,1651
2.4556,1693
2.4583,1746
2.4611,1834
2.4639,1975
2.4667,2195
2.4694,2448
2.4722,2696
2.4750,2867
2.4778,2960
2.4806,2907
2.4833,2680
2.4861,2315
2.4889,1885
2.4917,1529
2.4944,1316
2.4972,1268
2.5000,1321
2.5028,1425
2.5056,1555
2.5083,1661
2.5111,1729
2.5139,1762
2.5167,1781
2.5194,1779
2.5222,1781
2.5250,1776
2.5278,1776
2.5306,1786
2.5333,1786
2.5361,1778
2.5389,1775
2.5417,1782
2.5444,1776
2.5472,1790
2.5500,1802
2.5528,1805
2.5556,1803
2.5583,1800
2.5611,1791
2.5639,1795
2.5667,1815
2.5694,1825
2.5722,1823
2.5750,1827
2.5778,1830
2.5806,1831
2.5833,1842
2.5861,1841
2.5889,1850
2.5917,1838
2.5944,1853
2.5972,1838
2.6000,1845
2.6028,1855
2.6056,1868
2.6083,1878
2.6111,1882
2.6139,1884
2.6167,1893
2.6194,1898
2.6222,1889
2.6250,1897
2.6278,1907
2.6306,1931
2.6333,1949
2.6361,1959
2.6389,1958
2.6417,1954
2.6444,1956
2.6472,1961
2.6500,1983
2.6528,2000
2.6556,2009
2.6583,2013
2.6611,2017
2.6639,2015
2.6667,2018
2.6694,2017
2.6722,2031
2.6750,2037
2.6778,2033
2.6806,2022
2.6833,2027
2.6861,2034
2.6889,2042
2.6917,2018
2.6944,2023
2.6972,2018
2.7000,2007
2.7028,2012
2.7056,2015
2.7083,2009
2.7111,2005
2.7139,1999
2.7167,1997
2.7194,1996
2.7222,2013
2.7250,2012
2.7278,2010
2.7306,2002
2.7333,2008
2.7361,2003
2.7389,2018
2.7417,2015
2.7444,2015
2.7472,2017
2.7500,2024
2.7528,2016
2.7556,2019
2.7583,2016
2.7611,2024
2.7639,2030
2.7667,2047
2.7694,2050
2.7722,2049
2.7750,2054
2.7778,2058
2.7806,2057
2.7833,2063
2.7861,2063
2.7889,2071
2.7917,2075
2.7944,2075
2.7972,2069
2.8000,2066
2.8028,2069
2.8056,2071
2.8083,2075
2.8111,2074
2.8139,2069
2.8167,2067
2.8194,2060
2.8222,2052
2.8250,2059
2.8278,2060
2.8306,2057
2.8333,2049
2.8361,2053
2.8389,2055
2.8417,2048
2.8444,2040
2.8472,2049
2.8500,2052
2.8528,2053
2.8556,2041
2.8583,2025
2.8611,2011
2.8639,2014
2.8667,2012
2.8694,2008
2.8722,2013
2.8750,2006
2.8778,2005
2.8806,1991
2.8833,1979
2.8861,1979
2.8889,1983
2.8917,1968
2.8944,1954
2.8972,1938
2.9000,1935
2.9028,1938
2.9056,1941
2.9083,1945
2.9111,1939
2.9139,1947
2.9167,1938
2.9194,1937
2.9222,1920
2.9250,1898
2.9278,1898
2.9306,1905
2.9333,1898
2.9361,1894
2.9389,1897
2.9417,1901
2.9444,1899
2.9472,1892
2.9500,1894
2.9528,1884
2.9556,1885
2.9583,1881
2.9611,1880
2.9639,1871
2.9667,1888
2.9694,1899
2.9722,1897
2.9750,1883
2.9778,1869
2.9806,1857
2.9833,1856
2.9861,1874
2.9889,1888
2.9917,1911
2.9944,1929
2.9972,1931
3.0000,1950
3.0028,1940
3.0056,1936
3.0083,1939
3.0111,1959
3.0139,1992
3.0167,2031
3.0194,2057
3.0222,2068
3.0250,2071
3.0278,2050
3.0306,2039
3.0333,2031
3.0361,2029
3.0389,2019
3.0417,2004
3.0444,1989
3.0472,1951
3.0500,1917
3.0528,1887
3.0556,1847
3.0583,1828
3.0611,1803
3.0639,1781
3.0667,1763
3.0694,1770
3.0722,1773
3.0750,1765
3.0778,1762
3.0806,1758
3.0833,1758
3.0861,1751
3.0889,1752
3.0917,1744
3.0944,1741
3.0972,1738
3.1000,1732
3.1028,1741
3.1056,1747
3.1083,1744
3.1111,1749
3.1139,1719
3.1167,1685
3.1194,1657
3.1222,1657
3.1250,1681
3.1278,1728
3.1306,1817
3.1333,1944
3.1361,2149
3.1389,2417
3.1417,2672
3.1444,2866
3.1472,2976
3.1500,2952
3.1528,2749
3.1556,2414
3.1583,2008
3.1611,1635
3.1639,1403
3.1667,1329
3.1694,1364
3.1722,1442
3.1750,1562
3.1778,1664
3.1806,1745
3.1833,1774
3.1861,1786
3.1889,1782
3.1917,1774
3.1944,1771
3.1972,1777
3.2000,1783
3.2028,1797
3.2056,1802
3.2083,1796
3.2111,1779
3.2139,1775
3.2167,1779
3.2194,1787
3.2222,1790
3.2250,1795
3.2278,1795
3.2306,1801
3.2333,1818
3.2361,1830
3.2389,1831
3.2417,1827
3.2444,1816
3.2472,1811
3.2500,1827
3.2528,1816
3.2556,1829
3.2583,1830
3.2611,1842
3.2639,1834
3.2667,1834
3.2694,1822
3.2722,1819
3.2750,1831
3.2778,1831
3.2806,1831
3.2833,1841
3.2861,1852
3.2889,1839
3.2917,1815
3.2944,1770
3.2972,1726
3.3000,1695
3.3028,1677
3.3056,1696
3.3083,1723
3.3111,1735
3.3139,1760
3.3167,1785
3.3194,1792
3.3222,1782
3.3250,1779
3.3278,1784
3.3306,1787
3.3333,1821
3.3361,1852
3.3389,1903
3.3417,1954
3.3444,2017
3.3472,2080
3.3500,2121
3.3528,2128
3.3556,1878
3.3583,1884
3.3611,1887
3.3639,1868
3.3667,1852
3.3694,1838
3.3722,1812
3.3750,1807
3.3778,1796
3.3806,1786
3.3833,1767
3.3861,1747
3.3889,1736
3.3917,1735
3.3944,1723
3.3972,1722
3.4000,1731
3.4028,1728
3.4056,1711
3.4083,1689
3.4111,1684
3.4139,1690
3.4167,1699
3.4194,1695
3.4222,1689
3.4250,1667
3.4278,1667
3.4306,1663
3.4333,1677
3.4361,1687
3.4389,1685
3.4417,1686
3.4444,1681
3.4472,1679
3.4500,1672
3.4528,1677
3.4556,1677
3.4583,1691
3.4611,1696
3.4639,1683
3.4667,1679
3.4694,1671
3.4722,1667
3.4750,1675
3.4778,1691
3.4806,1697
3.4833,1692
3.4861,1680
3.4889,1679
3.4917,1676
3.4944,1686
3.4972,1699
3.5000,1699
3.5028,1687
3.5056,1667
3.5083,1653
3.5111,1655
3.5139,1666
3.5167,1675
3.5194,1681
3.5222,1680
3.5250,1678
3.5278,1668
3.5306,1665
3.5333,1659
3.5361,1661
3.5389,1671
3.5417,1666
3.5444,1660
3.5472,1644
3.5500,1638
3.5528,1629
3.5556,1627
3.5583,1633
3.5611,1630
3.5639,1636
3.5667,1634
3.5694,1625
3.5722,1622
3.5750,1628
3.5778,1632
3.5806,1636
3.5833,1635
3.5861,1622
3.5889,1617
3.5917,1610
3.5944,1603
3.5972,1609
3.6000,1618
3.6028,1614
3.6056,1623
3.6083,1612
3.6111,1609
3.6139,1616
3.6167,1613
3.6194,1615
3.6222,1608
3.6250,1602
3.6278,1601
3.6306,1596
3.6333,1592
3.6361,1590
3.6389,1601
3.6417,1619
3.6444,1617
3.6472,1616
3.6500,1610
3.6528,1610
3.6556,1617
3.6583,1641
3.6611,1678
3.6639,1718
3.6667,1725
3.6694,1724
3.6722,1717
3.6750,1720
3.6778,1735
3.6806,1747
3.6833,1773
3.6861,1816
3.6889,1846
3.6917,1854
3.6944,1849
3.6972,1853
3.7000,1830
3.7028,1815
3.7056,1800
3.7083,1785
3.7111,1749
3.7139,1715
3.7167,1692
3.7194,1674
3.7222,1651
3.7250,1606
3.7278,1577
3.7306,1545
3.7333,1517
3.7361,1495
3.7389,1482
3.7417,1472
3.7444,1452
3.7472,1421
3.7500,1385
3.7528,1369
3.7556,1373
3.7583,1387
3.7611,1397
3.7639,1391
3.7667,1399
3.7694,1406
3.7722,1435
3.7750,1447
3.7778,1451
3.7806,1439
3.7833,1412
3.7861,1383
3.7889,1377
3.7917,1372
3.7944,1424
3.7972,1507
3.8000,1636
3.8028,1819
3.8056,2090
3.8083,2394
3.8111,2684
3.8139,2883
3.8167,2993
3.8194,2976
3.8222,2799
3.8250,2469
3.8278,2047
3.8306,1639
3.8333,1369
3.8361,1264
3.8389,1274
3.8417,1343
3.8444,1460
3.8472,1568
3.8500,1639
3.8528,1666
3.8556,1680
3.8583,1674
3.8611,1664
3.8639,1645
3.8667,1642
3.8694,1646
3.8722,1637
3.8750,1645
3.8778,1641
3.8806,1636
3.8833,1619
3.8861,1629
3.8889,1633
3.8917,1649
3.8944,1646
3.8972,1638
3.9000,1620
3.9028,1618
3.9056,1625
3.9083,1636
3.9111,1641
3.9139,1639
3.9167,1641
3.9194,1645
3.9222,1629
3.9250,1627
3.9278,1626
3.9306,1638
3.9333,1657
3.9361,1647
3.9389,1642
3.9417,1639
3.9444,1631
3.9472,1627
3.9500,1637
3.9528,1652
3.9556,1646
3.9583,1638
3.9611,1634
3.9639,1628
3.9667,1634
3.9694,1633
3.9722,1639
3.9750,1653
3.9778,1653
3.9806,1663
3.9833,1661
3.9861,1666
3.9889,1672
3.9917,1678
3.9944,1690
3.9972,1678
4.0000,1678
4.0028,1675
4.0056,1684
4.0083,1695
4.0111,1712
4.0139,1728
4.0167,1738
4.0194,1726
4.0222,1717
4.0250,1643
4.0278,1654
4.0306,1663
4.0333,1660
4.0361,1651
4.0389,1633
4.0417,1625
4.0444,1616
4.0472,1616
4.0500,1605
4.0528,1602
4.0556,1595
4.0583,1584
4.0611,1576
4.0639,1572
4.0667,1568
4.0694,1560
4.0722,1573
4.0750,1582
4.0778,1586
4.0806,1585
4.0833,1580
4.0861,1570
4.0889,1569
4.0917,1574
4.0944,1581
4.0972,1574
4.1000,1573
4.1028,1580
4.1056,1585
4.1083,1589
4.1111,1601
4.1139,1607
4.1167,1598
4.1194,1587
4.1222,1583
4.1250,1595
4.1278,1604
4.1306,1602
4.1333,1609
4.1361,1613
4.1389,1610
4.1417,1620
4.1444,1612
4.1472,1624
4.1500,1624
4.1528,1624
4.1556,1616
4.1583,1612
4.1611,1605
4.1639,1610
4.1667,1612
4.1694,1617
4.1722,1633
4.1750,1624
4.1778,1625
4.1806,1619
4.1833,1612
4.1861,1616
4.1889,1615
4.1917,1605
4.1944,1560
4.1972,1493
4.2000,1429
4.2028,1389
4.2056,1377
4.2083,1392
4.2111,1398
4.2139,1423
4.2167,1444
4.2194,1444
4.2222,1450
4.2250,1448
4.2278,1466
4.2306,1480
4.2333,1498
4.2361,1528
4.2389,1559
4.2417,1598
4.2444,1655
4.2472,1712
4.2500,1799
4.2528,1851
4.2556,1864
4.2583,1861
4.2611,1859
4.2639,1859
4.2667,1857
4.2694,1846
4.2722,1837
4.2750,1824
4.2778,1817
4.2806,1820
4.2833,1819
4.2861,1809
4.2889,1811
4.2917,1808
4.2944,1802
4.2972,1789
4.3000,1786
4.3028,1781
4.3056,1778
4.3083,1786
4.3111,1785
4.3139,1776
4.3167,1780
4.3194,1793
4.3222,1792
4.3250,1789
4.3278,1778
4.3306,1791
4.3333,1790
4.3361,1796
4.3389,1802
4.3417,1815
4.3444,1825
4.3472,1843
4.3500,1873
4.3528,1905
4.3556,1908
4.3583,1907
4.3611,1899
4.3639,1908
4.3667,1920
4.3694,1923
4.3722,1947
4.3750,1986
4.3778,2020
4.3806,2026
4.3833,2036
4.3861,2013
4.3889,1998
4.3917,1986
4.3944,1960
4.3972,1945
4.4000,1905
4.4028,1876
4.4056,1852
4.4083,1832
4.4111,1804
4.4139,1772
4.4167,1747
4.4194,1724
4.4222,1700
4.4250,1689
4.4278,1669
4.4306,1667
4.4333,1664
4.4361,1669
4.4389,1667
4.4417,1659
4.4444,1664
4.4472,1673
4.4500,1664
4.4528,1664
4.4556,1657
4.4583,1654
4.4611,1660
4.4639,1658
4.4667,1657
4.4694,1622
4.4722,1596
4.4750,1576
4.4778,1561
4.4806,1597
4.4833,1649
4.4861,1734
4.4889,1860
4.4917,2061
4.4944,2323
4.4972,2592
4.5000,2773
4.5028,2881
4.5056,2884
4.5083,2716
4.5111,2382
4.5139,1957
4.5167,1562
4.5194,1293
4.5222,1198
4.5250,1221
4.5278,1321
4.5306,1427
4.5333,1537
4.5361,1631
4.5389,1688
4.5417,1703
4.5444,1696
4.5472,1680
4.5500,1675
4.5528,1684
4.5556,1688
4.5583,1695
4.5611,1690
4.5639,1687
4.5667,1677
4.5694,1666
4.5722,1682
4.5750,1679
4.5778,1690
4.5806,1685
4.5833,1704
4.5861,1702
4.5889,1692
4.5917,1689
4.5944,1709
4.5972,1715
4.6000,1708
4.6028,1714
4.6056,1711
4.6083,1707
4.6111,1718
4.6139,1726
4.6167,1743
4.6194,1740
4.6222,1741
4.6250,1738
4.6278,1733
4.6306,1738
4.6333,1746
4.6361,1756
4.6389,1760
4.6417,1750
4.6444,1751
4.6472,1750
4.6500,1756
4.6528,1766
4.6556,1784
4.6583,1783
4.6611,1788
4.6639,1796
4.6667,1800
4.6694,1804
4.6722,1811
4.6750,1824
4.6778,1829
4.6806,1834
4.6833,1835
4.6861,1838
4.6889,1840
4.6917,1848
4.6944,1851
4.6972,1852
4.7000,1840
4.7028,1841
4.7056,1851
4.7083,1854
4.7111,1585
4.7139,1592
4.7167,1605
4.7194,1605
4.7222,1590
4.7250,1595
4.7278,1598
4.7306,1599
4.7333,1619
4.7361,1630
4.7389,1630
4.7417,1644
4.7444,1652
4.7472,1703
4.7500,1778
4.7528,1851
4.7556,1900
4.7583,1907
4.7611,1902
4.7639,1896
4.7667,1888
4.7694,1878
4.7722,1873
4.7750,1871
4.7778,1872
4.7806,1850
4.7833,1844
4.7861,1843
4.7889,1856
4.7917,1854
4.7944,1859
4.7972,1856
4.8000,1855
4.8028,1845
4.8056,1832
4.8083,1832
4.8111,1827
4.8139,1835
4.8167,1843
4.8194,1831
4.8222,1823
4.8250,1811
4.8278,1812
4.8306,1812
4.8333,1811
4.8361,1823
4.8389,1797
4.8417,1799
4.8444,1787
4.8472,1785
4.8500,1776
4.8528,1782
4.8556,1776
4.8583,1776
4.8611,1782
4.8639,1775
4.8667,1780
4.8694,1772
4.8722,1757
4.8750,1764
4.8778,1754
4.8806,1755
4.8833,1750
4.8861,1755
4.8889,1749
4.8917,1745
4.8944,1742
4.8972,1754
4.9000,1757
4.9028,1752
4.9056,1741
4.9083,1745
4.9111,1746
4.9139,1744
4.9167,1737
4.9194,1735
4.9222,1723
4.9250,1714
4.9278,1710
4.9306,1712
4.9333,1717
4.9361,1718
4.9389,1700
4.9417,1695
4.9444,1701
4.9472,1700
4.9500,1698
4.9528,1702
4.9556,1697
4.9583,1700
4.9611,1695
4.9639,1685
4.9667,1691
4.9694,1689
4.9722,1689
4.9750,1695
4.9778,1698
4.9806,1699
4.9833,1695
4.9861,1696
4.9889,1699
4.9917,1702
4.9944,1692
4.9972,1690
5.0000,1696
5.0028,1693
5.0056,1689
5.0083,1690
5.0111,1685
5.0139,1683
5.0167,1684
5.0194,1687
5.0222,1699
5.0250,1693
5.0278,1698
5.0306,1703
5.0333,1722
5.0361,1746
5.0389,1764
5.0417,1782
5.0444,1809
5.0472,1833
5.0500,1833
5.0528,1816
5.0556,1810
5.0583,1824
5.0611,1842
5.0639,1879
5.0667,1916
5.0694,1957
5.0722,1967
5.0750,1988
5.0778,1983
5.0806,1969
5.0833,1962
5.0861,1939
5.0889,1916
5.0917,1894
5.0944,1865
5.0972,1831
5.1000,1816
5.1028,1796
5.1056,1756
5.1083,1732
5.1111,1713
5.1139,1691
5.1167,1678
5.1194,1675
5.1222,1677
5.1250,1678
5.1278,1679
5.1306,1678
5.1333,1684
5.1361,1692
5.1389,1693
5.1417,1682
5.1444,1687
5.1472,1684
5.1500,1698
5.1528,1705
5.1556,1707
5.1583,1700
5.1611,1681
5.1639,1658
5.1667,1640
5.1694,1628
5.1722,1639
5.1750,1687
5.1778,1751
5.1806,1848
5.1833,2022
5.1861,2258
5.1889,2528
5.1917,2761
5.1944,2923
5.1972,2997
5.2000,2921
5.2028,2647
5.2056,2257
5.2083,1826
5.2111,1483
5.2139,1309
5.2167,1268
5.2194,1323
5.2222,1421
5.2250,1545
5.2278,1652
5.2306,1703
5.2333,1724
5.2361,1732
5.2389,1726
5.2417,1718
5.2444,1714
5.2472,1722
5.2500,1724
5.2528,1723
5.2556,1719
5.2583,1702
5.2611,1701
5.2639,1699
5.2667,1689
5.2694,1686
5.2722,1654
5.2750,1591
5.2778,1524
5.2806,1485
5.2833,1477
5.2861,1493
5.2889,1520
5.2917,1548
5.2944,1556
5.2972,1566
5.3000,1580
5.3028,1591
5.3056,1631
5.3083,1685
5.3111,1775
5.3139,1875
5.3167,1954
5.3194,2016
5.3222,2034
5.3250,2025
5.3278,2017
5.3306,2004
5.3333,1997
5.3361,1996
5.3389,1983
5.3417,1973
5.3444,1963
5.3472,1950
5.3500,1947
5.3528,1950
5.3556,1952
5.3583,1945
5.3611,1949
5.3639,1954
5.3667,1962
5.3694,1970
5.3722,1964
5.3750,1962
5.3778,1953
5.3806,1949
5.3833,1945
5.3861,1938
5.3889,1930
5.3917,1943
5.3944,1936
5.3972,1929
5.4000,1927
5.4028,1766
5.4056,1781
5.4083,1769
5.4111,1749
5.4139,1733
5.4167,1718
5.4194,1721
5.4222,1716
5.4250,1708
5.4278,1707
5.4306,1707
5.4333,1689
5.4361,1667
5.4389,1656
5.4417,1666
5.4444,1670
5.4472,1678
5.4500,1676
5.4528,1673
5.4556,1680
5.4583,1679
5.4611,1673
5.4639,1684
5.4667,1688
5.4694,1685
5.4722,1692
5.4750,1691
5.4778,1683
5.4806,1673
5.4833,1664
5.4861,1666
5.4889,1685
5.4917,1699
5.4944,1706
5.4972,1697
5.5000,1692
5.5028,1690
5.5056,1688
5.5083,1687
5.5111,1678
5.5139,1663
5.5167,1654
5.5194,1664
5.5222,1677
5.5250,1683
5.5278,1693
5.5306,1692
5.5333,1676
5.5361,1670
5.5389,1666
5.5417,1658
5.5444,1651
5.5472,1644
5.5500,1646
5.5528,1647
5.5556,1657
5.5583,1659
5.5611,1662
5.5639,1653
5.5667,1646
5.5694,1646
5.5722,1645
5.5750,1640
5.5778,1634
5.5806,1642
5.5833,1642
5.5861,1655
5.5889,1663
5.5917,1665
5.5944,1675
5.5972,1659
5.6000,1657
5.6028,1649
5.6056,1646
5.6083,1636
5.6111,1625
5.6139,1623
5.6167,1632
5.6194,1643
5.6222,1651
5.6250,1658
5.6278,1656
5.6306,1645
5.6333,1642
5.6361,1639
5.6389,1643
5.6417,1643
5.6444,1652
5.6472,1654
5.6500,1650
5.6528,1651
5.6556,1648
5.6583,1648
5.6611,1647
5.6639,1653
5.6667,1666
5.6694,1674
5.6722,1678
5.6750,1670
5.6778,1671
5.6806,1676
5.6833,1670
5.6861,1681
5.6889,1688
5.6917,1697
5.6944,1704
5.6972,1700
5.7000,1699
5.7028,1698
5.7056,1695
5.7083,1702
5.7111,1707
5.7139,1711
5.7167,1713
5.7194,1709
5.7222,1718
5.7250,1740
5.7278,1758
5.7306,1786
5.7333,1814
5.7361,1825
5.7389,1826
5.7417,1822
5.7444,1833
5.7472,1853
5.7500,1868
5.7528,1910
5.7556,1947
5.7583,1968
5.7611,1982
5.7639,1978
5.7667,1969
5.7694,1955
5.7722,1953
5.7750,1949
5.7778,1915
5.7806,1884
5.7833,1858
5.7861,1827
5.7889,1802
5.7917,1763
5.7944,1720
5.7972,1702
5.8000,1680
5.8028,1669
5.8056,1660
5.8083,1650
5.8111,1644
5.8139,1643
5.8167,1641
5.8194,1641
5.8222,1646
5.8250,1636
5.8278,1621
5.8306,1611
5.8333,1619
5.8361,1605
5.8389,1607
5.8417,1621
5.8444,1623
5.8472,1604
5.8500,1566
5.8528,1527
5.8556,1507
5.8583,1512
5.8611,1553
5.8639,1626
5.8667,1731
5.8694,1890
5.8722,2101
5.8750,2364
5.8778,2593
5.8806,2746
5.8833,2827
5.8861,2781
5.8889,2552
5.8917,2179
5.8944,1760
5.8972,1397
5.9000,1198
5.9028,1143
5.9056,1195
5.9083,1305
5.9111,1430
5.9139,1527
5.9167,1587
5.9194,1619
5.9222,1632
5.9250,1630
5.9278,1624
5.9306,1620
5.9333,1632
5.9361,1634
5.9389,1630
5.9417,1629
5.9444,1614
5.9472,1615
5.9500,1617
5.9528,1645
5.9556,1662
5.9583,1668
5.9611,1666
5.9639,1651
5.9667,1656
5.9694,1651
5.9722,1661
5.9750,1668
5.9778,1682
5.9806,1692
5.9833,1698
5.9861,1695
5.9889,1695
5.9917,1694
5.9944,1714
5.9972,1714
6.0000,1707
6.0028,1704
6.0056,1697
6.0083,1695
6.0111,1710
6.0139,1718
6.0167,1726
6.0194,1737
6.0222,1732
6.0250,1742
6.0278,1755
6.0306,1760
6.0333,1769
6.0361,1778
6.0389,1783
6.0417,1784
6.0444,1769
6.0472,1782
6.0500,1789
6.0528,1801
6.0556,1812
6.0583,1821
6.0611,1824
6.0639,1834
6.0667,1853
6.0694,1850
6.0722,1858
6.0750,1869
6.0778,1885
6.0806,1873
6.0833,1880
6.0861,1883
6.0889,1932
6.0917,1926
6.0944,1924
6.0972,1914
6.1000,1897
6.1028,1885
6.1056,1882
6.1083,1877
6.1111,1878
6.1139,1878
6.1167,1879
6.1194,1873
6.1222,1869
6.1250,1872
6.1278,1863
6.1306,1861
6.1333,1863
6.1361,1858
6.1389,1861
6.1417,1853
6.1444,1859
6.1472,1857
6.1500,1857
6.1528,1846
6.1556,1845
6.1583,1838
6.1611,1847
6.1639,1847
6.1667,1838
6.1694,1841
6.1722,1845
6.1750,1853
6.1778,1853
6.1806,1841
6.1833,1836
6.1861,1846
6.1889,1850
6.1917,1839
6.1944,1826
6.1972,1820
6.2000,1817
6.2028,1818
6.2056,1817
6.2083,1821
6.2111,1804
6.2139,1795
6.2167,1782
6.2194,1778
6.2222,1773
6.2250,1771
6.2278,1786
6.2306,1781
6.2333,1780
6.2361,1771
6.2389,1779
6.2417,1773
6.2444,1777
6.2472,1785
6.2500,1782
6.2528,1782
6.2556,1784
6.2583,1776
6.2611,1770
6.2639,1768
6.2667,1770
6.2694,1766
6.2722,1755
6.2750,1765
6.2778,1760
6.2806,1753
6.2833,1759
6.2861,1754
6.2889,1751
6.2917,1750
6.2944,1758
6.2972,1775
6.3000,1768
6.3028,1763
6.3056,1757
6.3083,1761
6.3111,1764
6.3139,1769
6.3167,1770
6.3194,1771
6.3222,1768
6.3250,1769
6.3278,1777
6.3306,1773
6.3333,1777
6.3361,1780
6.3389,1783
6.3417,1786
6.3444,1775
6.3472,1774
6.3500,1766
6.3528,1751
6.3556,1758
6.3583,1763
6.3611,1768
6.3639,1771
6.3667,1774
6.3694,1779
6.3722,1778
6.3750,1776
6.3778,1769
6.3806,1770
6.3833,1781
6.3861,1770
6.3889,1777
6.3917,1814
6.3944,1838
6.3972,1856
6.4000,1860
6.4028,1856
6.4056,1859
6.4083,1869
6.4111,1904
6.4139,1934
6.4167,1979
6.4194,2022
6.4222,2019
6.4250,2027
6.4278,2014
6.4306,2002
6.4333,2005
6.4361,1999
6.4389,1995
6.4417,1973
6.4444,1938
6.4472,1902
6.4500,1866
6.4528,1842
6.4556,1812
6.4583,1795
6.4611,1770
6.4639,1748
6.4667,1727
6.4694,1714
6.4722,1722
6.4750,1727
6.4778,1737
6.4806,1740
6.4833,1733
6.4861,1717
6.4889,1727
6.4917,1716
6.4944,1722
6.4972,1721
6.5000,1722
6.5028,1708
6.5056,1720
6.5083,1718
6.5111,1706
6.5139,1686
6.5167,1653
6.5194,1627
6.5222,1650
6.5250,1722
6.5278,1814
6.5306,1944
6.5333,2126
6.5361,2362
6.5389,2615
6.5417,2809
6.5444,2912
6.5472,2928
6.5500,2786
6.5528,2496
6.5556,2117
6.5583,1758
6.5611,1503
6.5639,1386
6.5667,1384
6.5694,1434
6.5722,1504
6.5750,1574
6.5778,1654
6.5806,1710
6.5833,1743
6.5861,1750
6.5889,1750
6.5917,1760
6.5944,1770
6.5972,1782
6.6000,1796
6.6028,1790
6.6056,1790
6.6083,1788
6.6111,1801
6.6139,1817
6.6167,1830
6.6194,1818
6.6222,1819
6.6250,1803
6.6278,1809
6.6306,1804
6.6333,1812
6.6361,1820
6.6389,1825
6.6417,1841
6.6444,1839
6.6472,1840
6.6500,1848
6.6528,1829
6.6556,1827
6.6583,1825
6.6611,1842
6.6639,1846
6.6667,1841
6.6694,1836
6.6722,1853
6.6750,1873
6.6778,1878
6.6806,1882
6.6833,1881
6.6861,1882
6.6889,1872
6.6917,1885
6.6944,1877
6.6972,1874
6.7000,1882
6.7028,1883
6.7056,1886
6.7083,1898
6.7111,1900
6.7139,1906
6.7167,1915
6.7194,1914
6.7222,1918
6.7250,1905
6.7278,1915
6.7306,1914
6.7333,1928
6.7361,1940
6.7389,1946
6.7417,1951
6.7444,1953
6.7472,1950
6.7500,1949
6.7528,1924
6.7556,1925
6.7583,1905
6.7611,1896
6.7639,1897
6.7667,1889
6.7694,1897
6.7722,1889
6.7750,1891
6.7778,1889
6.7806,1883
6.7833,1880
6.7861,1881
6.7889,1872
6.7917,1853
6.7944,1850
6.7972,1845
6.8000,1851
6.8028,1852
6.8056,1863
6.8083,1862
6.8111,1870
6.8139,1870
6.8167,1890
6.8194,1904
6.8222,1899
6.8250,1895
6.8278,1892
6.8306,1884
6.8333,1908
6.8361,1924
6.8389,1932
6.8417,1938
6.8444,1949
6.8472,1949
6.8500,1949
6.8528,1949
6.8556,1940
6.8583,1934
6.8611,1922
6.8639,1933
6.8667,1936
6.8694,1937
6.8722,1939
6.8750,1937
6.8778,1935
6.8806,1922
6.8833,1914
6.8861,1916
6.8889,1921
6.8917,1926
6.8944,1927
6.8972,1920
6.9000,1905
6.9028,1908
6.9056,1891
6.9083,1887
6.9111,1869
6.9139,1866
6.9167,1885
6.9194,1881
6.9222,1874
6.9250,1872
6.9278,1856
6.9306,1841
6.9333,1830
6.9361,1827
6.9389,1823
6.9417,1826
6.9444,1828
6.9472,1822
6.9500,1822
6.9528,1820
6.9556,1803
6.9583,1798
6.9611,1813
6.9639,1819
6.9667,1819
6.9694,1794
6.9722,1791
6.9750,1802
6.9778,1802
6.9806,1819
6.9833,1824
6.9861,1826
6.9889,1840
6.9917,1836
6.9944,1823
6.9972,1814
7.0000,1822
7.0028,1822
7.0056,1841
7.0083,1878
7.0111,1908
7.0139,1928
7.0167,1942
7.0194,1941
7.0222,1934
7.0250,1908
7.0278,1891
7.0306,1884
7.0333,1872
7.0361,1840
7.0389,1793
7.0417,1751
7.0444,1717
7.0472,1700
7.0500,1668
7.0528,1646
7.0556,1629
7.0583,1609
7.0611,1594
7.0639,1597
7.0667,1585
7.0694,1585
7.0722,1594
7.0750,1592
7.0778,1606
7.0806,1613
7.0833,1604
7.0861,1599
7.0889,1586
7.0917,1580
7.0944,1581
7.0972,1589
7.1000,1596
7.1028,1611
7.1056,1608
7.1083,1581
7.1111,1559
7.1139,1529
7.1167,1514
7.1194,1543
7.1222,1601
7.1250,1704
7.1278,1855
7.1306,2065
7.1333,2319
7.1361,2546
7.1389,2718
7.1417,2791
7.1444,2765
7.1472,2590
7.1500,2281
7.1528,1929
7.1556,1610
7.1583,1404
7.1611,1308
7.1639,1316
7.1667,1339
7.1694,1385
7.1722,1442
7.1750,1505
7.1778,1563
7.1806,1598
7.1833,1619
7.1861,1638
7.1889,1644
7.1917,1652
7.1944,1655
7.1972,1645
7.2000,1643
7.2028,1645
7.2056,1643
7.2083,1648
7.2111,1653
7.2139,1661
7.2167,1669
7.2194,1661
7.2222,1648
7.2250,1640
7.2278,1651
7.2306,1666
7.2333,1682
7.2361,1691
7.2389,1704
7.2417,1700
7.2444,1689
7.2472,1696
7.2500,1700
7.2528,1695
7.2556,1682
7.2583,1681
7.2611,1683
7.2639,1691
7.2667,1712
7.2694,1703
7.2722,1711
7.2750,1719
7.2778,1719
7.2806,1716
7.2833,1707
7.2861,1707
7.2889,1721
7.2917,1740
7.2944,1764
7.2972,1770
7.3000,1753
7.3028,1737
7.3056,1723
7.3083,1709
7.3111,1708
7.3139,1722
7.3167,1722
7.3194,1718
7.3222,1712
7.3250,1721
7.3278,1733
7.3306,1741
7.3333,1741
7.3361,1745
7.3389,1750
7.3417,1731
7.3444,1730
7.3472,1741
7.3500,1701
7.3528,1697
7.3556,1691
7.3583,1674
7.3611,1663
7.3639,1649
7.3667,1648
7.3694,1646
7.3722,1636
7.3750,1638
7.3778,1657
7.3806,1647
7.3833,1633
7.3861,1624
7.3889,1615
7.3917,1619
7.3944,1618
7.3972,1620
7.4000,1616
7.4028,1619
7.4056,1623
7.4083,1634
7.4111,1644
7.4139,1644
7.4167,1641
7.4194,1636
7.4222,1622
7.4250,1632
7.4278,1628
7.4306,1629
7.4333,1635
7.4361,1636
7.4389,1632
7.4417,1634
7.4444,1631
7.4472,1621
7.4500,1619
7.4528,1620
7.4556,1615
7.4583,1606
7.4611,1608
7.4639,1607
7.4667,1609
7.4694,1608
7.4722,1612
7.4750,1620
7.4778,1615
7.4806,1624
7.4833,1627
7.4861,1636
7.4889,1633
7.4917,1647
7.4944,1654
7.4972,1654
7.5000,1656
7.5028,1648
7.5056,1650
7.5083,1640
7.5111,1637
7.5139,1633
7.5167,1617
7.5194,1613
7.5222,1594
7.5250,1581
7.5278,1570
7.5306,1573
7.5333,1578
7.5361,1581
7.5389,1594
7.5417,1598
7.5444,1606
7.5472,1608
7.5500,1613
7.5528,1616
7.5556,1613
7.5583,1611
7.5611,1602
7.5639,1626
7.5667,1650
7.5694,1690
7.5722,1706
7.5750,1729
7.5778,1737
7.5806,1735
7.5833,1719
7.5861,1706
7.5889,1685
7.5917,1674
7.5944,1676
7.5972,1651
7.6000,1617
7.6028,1583
7.6056,1531
7.6083,1518
7.6111,1484
7.6139,1455
7.6167,1437
7.6194,1408
7.6222,1393
7.6250,1375
7.6278,1386
7.6306,1389
7.6333,1386
7.6361,1389
7.6389,1391
7.6417,1385
7.6444,1378
7.6472,1365
7.6500,1361
7.6528,1365
7.6556,1387
7.6583,1391
7.6611,1410
7.6639,1411
7.6667,1411
7.6694,1411
7.6722,1379
7.6750,1355
7.6778,1331
7.6806,1334
7.6833,1375
7.6861,1428
7.6889,1507
7.6917,1640
7.6944,1827
7.6972,2080
7.7000,2354
7.7028,2587
7.7056,2727
7.7083,2754
7.7111,2603
7.7139,2300
7.7167,1907
7.7194,1518
7.7222,1252
7.7250,1142
7.7278,1153
7.7306,1217
7.7333,1307
7.7361,1410
7.7389,1501
7.7417,1553
7.7444,1566
7.7472,1565
7.7500,1569
7.7528,1590
7.7556,1596
7.7583,1598
7.7611,1602
7.7639,1609
7.7667,1595
7.7694,1590
7.7722,1605
7.7750,1594
7.7778,1609
7.7806,1610
7.7833,1600
7.7861,1582
7.7889,1569
7.7917,1583
7.7944,1598
7.7972,1614
7.8000,1632
7.8028,1623
7.8056,1623
7.8083,1611
7.8111,1607
7.8139,1607
7.8167,1596
7.8194,1606
7.8222,1591
7.8250,1592
7.8278,1581
7.8306,1575
7.8333,1591
7.8361,1605
7.8389,1618
7.8417,1604
7.8444,1601
7.8472,1592
7.8500,1582
7.8528,1576
7.8556,1582
7.8583,1591
7.8611,1584
7.8639,1574
7.8667,1568
7.8694,1576
7.8722,1586
7.8750,1601
7.8778,1614
7.8806,1614
7.8833,1616
7.8861,1611
7.8889,1601
7.8917,1602
7.8944,1600
7.8972,1602
7.9000,1599
7.9028,1601
7.9056,1612
7.9083,1602
7.9111,1608
7.9139,1451
7.9167,1451
7.9194,1452
7.9222,1433
7.9250,1424
7.9278,1412
7.9306,1399
7.9333,1400
7.9361,1390
7.9389,1372
7.9417,1385
7.9444,1373
7.9472,1357
7.9500,1337
7.9528,1313
7.9556,1303
7.9583,1298
7.9611,1298
7.9639,1297
7.9667,1306
7.9694,1307
7.9722,1312
7.9750,1326
7.9778,1333
7.9806,1328
7.9833,1326
7.9861,1327
7.9889,1326
7.9917,1326
7.9944,1332
7.9972,1344
8.0000,1350
8.0028,1364
8.0056,1372
8.0083,1359
8.0111,1365
8.0139,1373
8.0167,1374
8.0194,1393
8.0222,1402
8.0250,1413
8.0278,1409
8.0306,1410
8.0333,1403
8.0361,1421
8.0389,1432
8.0417,1435
8.0444,1424
8.0472,1420
8.0500,1434
8.0528,1431
8.0556,1431
8.0583,1445
8.0611,1455
8.0639,1465
8.0667,1468
8.0694,1475
8.0722,1484
8.0750,1492
8.0778,1492
8.0806,1487
8.0833,1491
8.0861,1482
8.0889,1486
8.0917,1495
8.0944,1506
8.0972,1511
8.1000,1505
8.1028,1507
8.1056,1506
8.1083,1504
8.1111,1511
8.1139,1524
8.1167,1524
8.1194,1520
8.1222,1528
8.1250,1546
8.1278,1562
8.1306,1597
8.1333,1633
8.1361,1663
8.1389,1661
8.1417,1650
8.1444,1658
8.1472,1683
8.1500,1712
8.1528,1755
8.1556,1799
8.1583,1831
8.1611,1836
8.1639,1826
8.1667,1816
8.1694,1793
8.1722,1773
8.1750,1765
8.1778,1753
8.1806,1737
8.1833,1725
8.1861,1687
8.1889,1653
8.1917,1612
8.1944,1573
8.1972,1547
8.2000,1518
8.2028,1509
8.2056,1504
8.2083,1503
8.2111,1500
8.2139,1499
8.2167,1493
8.2194,1498
8.2222,1496
8.2250,1500
8.2278,1509
8.2306,1521
8.2333,1519
8.2361,1513
8.2389,1517
8.2417,1526
8.2444,1529
8.2472,1531
8.2500,1534
8.2528,1525
8.2556,1492
8.2583,1471
8.2611,1449
8.2639,1440
8.2667,1470
8.2694,1526
8.2722,1605
8.2750,1734
8.2778,1951
8.2806,2256
8.2833,2543
8.2861,2767
8.2889,2896
8.2917,2892
8.2944,2713
8.2972,2370
8.3000,1940
8.3028,1524
8.3056,1260
8.3083,1162
8.3111,1190
8.3139,1289
8.3167,1421
8.3194,1543
8.3222,1618
8.3250,1644
8.3278,1652
8.3306,1646
8.3333,1651
8.3361,1655
8.3389,1667
8.3417,1678
8.3444,1692
8.3472,1678
8.3500,1674
8.3528,1685
8.3556,1693
8.3583,1698
8.3611,1695
8.3639,1711
8.3667,1718
8.3694,1724
8.3722,1717
8.3750,1729
8.3778,1732
8.3806,1752
8.3833,1754
8.3861,1766
8.3889,1766
8.3917,1765
8.3944,1772
8.3972,1779
8.4000,1788
8.4028,1790
8.4056,1788
8.4083,1799
8.4111,1803
8.4139,1808
8.4167,1817
8.4194,1829
8.4222,1832
8.4250,1822
8.4278,1815
8.4306,1826
8.4333,1830
8.4361,1831
8.4389,1844
8.4417,1867
8.4444,1873
8.4472,1873
8.4500,1876
8.4528,1878
8.4556,1876
8.4583,1892
8.4611,1912
8.4639,1928
8.4667,1941
8.4694,1941
8.4722,1943
8.4750,1958
8.4778,1971
8.4806,1987
8.4833,2010
8.4861,2024
8.4889,2031
8.4917,2027
8.4944,2041
8.4972,1967
8.5000,1982
8.5028,1987
8.5056,1982
8.5083,1963
8.5111,1956
8.5139,1947
8.5167,1944
8.5194,1943
8.5222,1941
8.5250,1941
8.5278,1932
8.5306,1924
8.5333,1914
8.5361,1906
8.5389,1910
8.5417,1912
8.5444,1913
8.5472,1909
8.5500,1901
8.5528,1898
8.5556,1918
8.5583,1922
8.5611,1940
8.5639,1942
8.5667,1943
8.5694,1934
8.5722,1933
8.5750,1933
8.5778,1940
8.5806,1956
8.5833,1957
8.5861,1956
8.5889,1949
8.5917,1936
8.5944,1945
8.5972,1932
8.6000,1931
8.6028,1921
8.6056,1921
8.6083,1903
8.6111,1890
8.6139,1879
8.6167,1869
8.6194,1881
8.6222,1881
8.6250,1894
8.6278,1898
8.6306,1890
8.6333,1878
8.6361,1870
8.6389,1861
8.6417,1850
8.6444,1845
8.6472,1828
8.6500,1824
8.6528,1816
8.6556,1822
8.6583,1830
8.6611,1827
8.6639,1822
8.6667,1814
8.6694,1804
8.6722,1809
8.6750,1807
8.6778,1808
8.6806,1820
8.6833,1818
8.6861,1809
8.6889,1797
8.6917,1795
8.6944,1791
8.6972,1794
8.7000,1791
8.7028,1783
8.7056,1771
8.7083,1748
8.7111,1738
8.7139,1736
8.7167,1743
8.7194,1754
8.7222,1747
8.7250,1748
8.7278,1755
8.7306,1753
8.7333,1758
8.7361,1749
8.7389,1746
8.7417,1747
8.7444,1742
8.7472,1734
8.7500,1733
8.7528,1733
8.7556,1735
8.7583,1740
8.7611,1745
8.7639,1727
8.7667,1721
8.7694,1740
8.7722,1767
8.7750,1798
8.7778,1821
8.7806,1828
8.7833,1814
8.7861,1809
8.7889,1818
8.7917,1831
8.7944,1845
8.7972,1866
8.8000,1894
8.8028,1918
8.8056,1934
8.8083,1936
8.8111,1925
8.8139,1901
8.8167,1885
8.8194,1878
8.8222,1875
8.8250,1846
8.8278,1817
8.8306,1775
8.8333,1742
8.8361,1722
8.8389,1687
8.8417,1650
8.8444,1633
8.8472,1614
8.8500,1612
8.8528,1606
8.8556,1605
8.8583,1606
8.8611,1605
8.8639,1596
8.8667,1579
8.8694,1579
8.8722,1582
8.8750,1571
8.8778,1575
8.8806,1582
8.8833,1585
8.8861,1598
8.8889,1598
8.8917,1603
8.8944,1596
8.8972,1588
8.9000,1567
8.9028,1517
8.9056,1501
8.9083,1500
8.9111,1561
8.9139,1622
8.9167,1707
8.9194,1847
8.9222,2068
8.9250,2343
8.9278,2610
8.9306,2817
8.9333,2929
8.9361,2925
8.9389,2730
8.9417,2388
8.9444,1961
8.9472,1556
8.9500,1295
8.9528,1198
8.9556,1235
8.9583,1334
8.9611,1481
8.9639,1598
8.9667,1660
8.9694,1690
8.9722,1694
8.9750,1681
8.9778,1682
8.9806,1675
8.9833,1676
8.9861,1694
8.9889,1705
8.9917,1698
8.9944,1693
8.9972,1685
9.0000,1685
9.0028,1683
9.0056,1703
9.0083,1711
9.0111,1713
9.0139,1702
9.0167,1718
9.0194,1724
9.0222,1736
9.0250,1741
9.0278,1749
9.0306,1740
9.0333,1732
9.0361,1731
9.0389,1741
9.0417,1757
9.0444,1759
9.0472,1768
9.0500,1772
9.0528,1766
9.0556,1765
9.0583,1756
9.0611,1769
9.0639,1787
9.0667,1790
9.0694,1792
9.0722,1794
9.0750,1788
9.0778,1794
9.0806,1797
9.0833,1811
9.0861,1823
9.0889,1821
9.0917,1812
9.0944,1813
9.0972,1814
9.1000,1829
9.1028,1841
9.1056,1855
9.1083,1857
9.1111,1849
9.1139,1847
9.1167,1839
9.1194,1847
9.1222,1853
9.1250,1865
9.1278,1881
9.1306,1887
9.1333,1878
9.1361,1870
9.1389,1873
9.1417,1849
9.1444,1850
9.1472,1842
9.1500,1851
9.1528,1844
9.1556,1826
9.1583,1830
9.1611,1817
9.1639,1826
9.1667,1820
9.1694,1818
9.1722,1806
9.1750,1812
9.1778,1809
9.1806,1801
9.1833,1804
9.1861,1804
9.1889,1798
9.1917,1792
9.1944,1797
9.1972,1807
9.2000,1803
9.2028,1801
9.2056,1803
9.2083,1812
9.2111,1812
9.2139,1804
9.2167,1794
9.2194,1780
9.2222,1789
9.2250,1803
9.2278,1807
9.2306,1798
9.2333,1805
9.2361,1795
9.2389,1803
9.2417,1795
9.2444,1803
9.2472,1799
9.2500,1797
9.2528,1791
9.2556,1780
9.2583,1777
9.2611,1767
9.2639,1770
9.2667,1764
9.2694,1775
9.2722,1788
9.2750,1793
9.2778,1794
9.2806,1807
9.2833,1807
9.2861,1803
9.2889,1800
9.2917,1796
9.2944,1781
9.2972,1772
9.3000,1772
9.3028,1762
9.3056,1779
9.3083,1770
9.3111,1766
9.3139,1754
9.3167,1735
9.3194,1725
9.3222,1723
9.3250,1735
9.3278,1742
9.3306,1743
9.3333,1738
9.3361,1735
9.3389,1721
9.3417,1718
9.3444,1718
9.3472,1705
9.3500,1705
9.3528,1696
9.3556,1703
9.3583,1702
9.3611,1707
9.3639,1697
9.3667,1699
9.3694,1685
9.3722,1689
9.3750,1686
9.3778,1678
9.3806,1675
9.3833,1658
9.3861,1657
9.3889,1660
9.3917,1670
9.3944,1666
9.3972,1673
9.4000,1679
9.4028,1686
9.4056,1677
9.4083,1661
9.4111,1657
9.4139,1654
9.4167,1648
9.4194,1649
9.4222,1657
9.4250,1661
9.4278,1662
9.4306,1649
9.4333,1650
9.4361,1668
9.4389,1674
9.4417,1676
9.4444,1676
9.4472,1665
9.4500,1665
9.4528,1646
9.4556,1637
9.4583,1624
9.4611,1629
9.4639,1624
9.4667,1622
9.4694,1630
9.4722,1614
9.4750,1609
9.4778,1592
9.4806,1574
9.4833,1574
9.4861,1573
9.4889,1595
9.4917,1599
9.4944,1594
9.4972,1607
9.5000,1616
9.5028,1650
9.5056,1678
9.5083,1702
9.5111,1719
9.5139,1707
9.5167,1698
9.5194,1702
9.5222,1723
9.5250,1758
9.5278,1796
9.5306,1821
9.5333,1838
9.5361,1852
9.5389,1841
9.5417,1821
9.5444,1800
9.5472,1795
9.5500,1787
9.5528,1763
9.5556,1727
9.5583,1706
9.5611,1681
9.5639,1662
9.5667,1643
9.5694,1620
9.5722,1597
9.5750,1575
9.5778,1556
9.5806,1552
9.5833,1543
9.5861,1540
9.5889,1529
9.5917,1519
9.5944,1520
9.5972,1534
9.6000,1532
9.6028,1535
9.6056,1531
9.6083,1526
9.6111,1523
9.6139,1526
9.6167,1521
9.6194,1529
9.6222,1531
9.6250,1513
9.6278,1494
9.6306,1456
9.6333,1438
9.6361,1434
9.6389,1456
9.6417,1505
9.6444,1570
9.6472,1686
9.6500,1858
9.6528,2126
9.6556,2392
9.6583,2605
9.6611,2756
9.6639,2795
9.6667,2690
9.6694,2404
9.6722,1997
9.6750,1566
9.6778,1257
9.6806,1117
9.6833,1115
9.6861,1187
9.6889,1316
9.6917,1456
9.6944,1555
9.6972,1604
9.7000,1612
9.7028,1603
9.7056,1588
9.7083,1581
9.7111,1597
9.7139,1622
9.7167,1637
9.7194,1638
9.7222,1634
9.7250,1623
9.7278,1625
9.7306,1634
9.7333,1643
9.7361,1647
9.7389,1657
9.7417,1650
9.7444,1659
9.7472,1667
9.7500,1670
9.7528,1682
9.7556,1677
9.7583,1673
9.7611,1676
9.7639,1671
9.7667,1683
9.7694,1711
9.7722,1717
9.7750,1726
9.7778,1729
9.7806,1719
9.7833,1717
9.7861,1716
9.7889,1716
9.7917,1720
9.7944,1725
9.7972,1729
9.8000,1743
9.8028,1737
9.8056,1743
9.8083,1758
9.8111,1762
9.8139,1772
9.8167,1778
9.8194,1799
9.8222,1822
9.8250,1831
9.8278,1829
9.8306,1866
9.8333,1894
9.8361,1909
9.8389,1913
9.8417,1921
9.8444,1942
9.8472,1964
9.8500,1972
9.8528,1978
9.8556,1978
9.8583,1985
9.8611,1994
9.8639,1991
9.8667,1977
9.8694,1937
9.8722,1935
9.8750,1929
9.8778,1915
9.8806,1896
9.8833,1884
9.8861,1875
9.8889,1882
9.8917,1873
9.8944,1873
9.8972,1860
9.9000,1855
9.9028,1842
9.9056,1837
9.9083,1829
9.9111,1813
9.9139,1813
9.9167,1822
9.9194,1822
9.9222,1819
9.9250,1818
9.9278,1819
9.9306,1819
9.9333,1817
9.9361,1813
9.9389,1820
9.9417,1824
9.9444,1820
9.9472,1818
9.9500,1815
9.9528,1820
9.9556,1826
9.9583,1830
9.9611,1825
9.9639,1814
9.9667,1818
9.9694,1816
9.9722,1813
9.9750,1805
9.9778,1807
9.9806,1801
9.9833,1807
9.9861,1796
9.9889,1803
9.9917,1804
9.9944,1813
9.9972,1805
10.0000,1822
10.0028,1814
10.0056,1809
10.0083,1795
10.0111,1783
10.0139,1786
10.0167,1786
10.0194,1801
10.0222,1795
10.0250,1791
10.0278,1780
10.0306,1779
10.0333,1783
10.0361,1761
10.0389,1773
10.0417,1774
10.0444,1770
10.0472,1771
10.0500,1762
10.0528,1746
10.0556,1747
10.0583,1740
10.0611,1739
10.0639,1749
10.0667,1738
10.0694,1725
10.0722,1725
10.0750,1719
10.0778,1714
10.0806,1719
10.0833,1711
10.0861,1711
10.0889,1716
10.0917,1713
10.0944,1721
10.0972,1721
10.1000,1725
10.1028,1715
10.1056,1707
10.1083,1693
10.1111,1698
10.1139,1704
10.1167,1713
10.1194,1712
10.1222,1703
10.1250,1698
10.1278,1704
10.1306,1700
10.1333,1698
10.1361,1704
10.1389,1708
10.1417,1697
10.1444,1697
10.1472,1704
10.1500,1711
10.1528,1716
10.1556,1718
10.1583,1717
10.1611,1708
10.1639,1702
10.1667,1716
10.1694,1727
10.1722,1738
10.1750,1739
10.1778,1752
10.1806,1766
10.1833,1754
10.1861,1756
10.1889,1760
10.1917,1783
10.1944,1785
10.1972,1790
10.2000,1787
10.2028,1794
10.2056,1807
10.2083,1823
10.2111,1833
10.2139,1835
10.2167,1831
10.2194,1841
10.2222,1843
10.2250,1850
10.2278,1859
10.2306,1860
10.2333,1870
10.2361,1888
10.2389,1927
10.2417,1951
10.2444,1977
10.2472,1990
10.2500,2008
10.2528,1999
10.2556,1988
10.2583,1987
10.2611,2016
10.2639,2036
10.2667,2058
10.2694,2084
10.2722,2110
10.2750,2129
10.2778,2135
10.2806,2107
10.2833,2090
10.2861,2072
10.2889,2047
10.2917,2026
10.2944,2002
10.2972,1963
10.3000,1909
10.3028,1876
10.3056,1849
10.3083,1807
10.3111,1770
10.3139,1742
10.3167,1724
10.3194,1703
10.3222,1692
10.3250,1689
10.3278,1689
10.3306,1687
10.3333,1680
10.3361,1675
10.3389,1663
10.3417,1656
10.3444,1651
10.3472,1649
10.3500,1631
10.3528,1625
10.3556,1626
10.3583,1635
10.3611,1636
10.3639,1617
10.3667,1594
10.3694,1564
10.3722,1533
10.3750,1510
10.3778,1535
10.3806,1589
10.3833,1665
10.3861,1779
10.3889,1967
10.3917,2222
10.3944,2475
10.3972,2666
10.4000,2799
10.4028,2814
10.4056,2645
10.4083,2333
10.4111,1916
10.4139,1519
10.4167,1236
10.4194,1105
10.4222,1115
10.4250,1189
10.4278,1298
10.4306,1391
10.4333,1474
10.4361,1509
10.4389,1501
10.4417,1495
10.4444,1464
10.4472,1451
10.4500,1441
10.4528,1429
10.4556,1409
10.4583,1392
10.4611,1381
10.4639,1387
10.4667,1412
10.4694,1446
10.4722,1472
10.4750,1490
10.4778,1502
10.4806,1515
10.4833,1511
10.4861,1521
10.4889,1534
10.4917,1553
10.4944,1577
10.4972,1587
10.5000,1598
10.5028,1598
10.5056,1614
10.5083,1626
10.5111,1625
10.5139,1642
10.5167,1651
10.5194,1655
10.5222,1655
10.5250,1664
10.5278,1669
10.5306,1672
10.5333,1681
10.5361,1677
10.5389,1681
10.5417,1693
10.5444,1710
10.5472,1707
10.5500,1713
10.5528,1713
10.5556,1718
10.5583,1735
10.5611,1740
10.5639,1737
10.5667,1737
10.5694,1746
10.5722,1759
10.5750,1756
10.5778,1765
10.5806,1757
10.5833,1769
10.5861,1783
10.5889,1779
10.5917,1793
10.5944,1807
10.5972,1824
10.6000,1832
10.6028,1840
10.6056,1844
10.6083,1856
10.6111,1859
10.6139,1865
10.6167,1860
10.6194,1838
10.6222,1815
10.6250,1809
10.6278,1796
10.6306,1789
10.6333,1781
10.6361,1766
10.6389,1756
10.6417,1734
10.6444,1720
10.6472,1727
10.6500,1724
10.6528,1718
10.6556,1719
10.6583,1719
10.6611,1717
10.6639,1720
10.6667,1715
10.6694,1720
10.6722,1717
10.6750,1734
10.6778,1721
10.6806,1724
10.6833,1720
10.6861,1717
10.6889,1720
10.6917,1730
10.6944,1740
10.6972,1743
10.7000,1733
10.7028,1733
10.7056,1728
10.7083,1738
10.7111,1750
10.7139,1760
10.7167,1769
10.7194,1773
10.7222,1783
10.7250,1789
10.7278,1803
10.7306,1813
10.7333,1803
10.7361,1820
10.7389,1828
10.7417,1826
10.7444,1833
10.7472,1835
10.7500,1833
10.7528,1843
10.7556,1850
10.7583,1860
10.7611,1858
10.7639,1865
10.7667,1878
10.7694,1888
10.7722,1897
10.7750,1895
10.7778,1913
10.7806,1925
10.7833,1934
10.7861,1928
10.7889,1913
10.7917,1916
10.7944,1934
10.7972,1946
10.8000,1945
10.8028,1943
10.8056,1944
10.8083,1942
10.8111,1943
10.8139,1941
10.8167,1943
10.8194,1933
10.8222,1922
10.8250,1910
10.8278,1917
10.8306,1918
10.8333,1921
10.8361,1923
10.8389,1917
10.8417,1914
10.8444,1901
10.8472,1893
10.8500,1888
10.8528,1886
10.8556,1899
10.8583,1892
10.8611,1897
10.8639,1902
10.8667,1898
10.8694,1902
10.8722,1901
10.8750,1906
10.8778,1900
10.8806,1902
10.8833,1897
10.8861,1885
10.8889,1872
10.8917,1873
10.8944,1872
10.8972,1872
10.9000,1864
10.9028,1859
10.9056,1873
10.9083,1881
10.9111,1885
10.9139,1878
10.9167,1856
10.9194,1844
10.9222,1833
10.9250,1826
10.9278,1830
10.9306,1825
10.9333,1850
10.9361,1850
10.9389,1855
10.9417,1847
10.9444,1862
10.9472,1874
10.9500,1894
10.9528,1909
10.9556,1928
10.9583,1926
10.9611,1916
10.9639,1917
10.9667,1919
10.9694,1950
10.9722,1971
10.9750,1999
10.9778,2031
10.9806,2043
10.9833,2049
10.9861,2036
10.9889,2002
10.9917,1972
10.9944,1964
10.9972,1957
11.0000,1931
11.0028,1885
11.0056,1845
11.0083,1809
11.0111,1768
11.0139,1724
11.0167,1686
11.0194,1647
11.0222,1619
11.0250,1601
11.0278,1595
11.0306,1605
11.0333,1622
11.0361,1619
11.0389,1629
11.0417,1636
11.0444,1650
11.0472,1664
11.0500,1663
11.0528,1660
11.0556,1659
11.0583,1662
11.0611,1675
11.0639,1681
11.0667,1691
11.0694,1701
11.0722,1684
11.0750,1674
11.0778,1656
11.0806,1630
11.0833,1636
11.0861,1685
11.0889,1754
11.0917,1868
11.0944,2019
11.0972,2242
11.1000,2490
11.1028,2703
11.1056,2842
11.1083,2897
11.1111,2826
11.1139,2595
11.1167,2269
11.1194,1923
11.1222,1643
11.1250,1485
11.1278,1441
11.1306,1464
11.1333,1496
11.1361,1548
11.1389,1596
11.1417,1655
11.1444,1679
11.1472,1707
11.1500,1717
11.1528,1739
11.1556,1759
11.1583,1786
11.1611,1785
11.1639,1791
11.1667,1784
11.1694,1780
11.1722,1789
11.1750,1786
11.1778,1809
11.1806,1812
11.1833,1813
11.1861,1810
11.1889,1798
11.1917,1804
11.1944,1818
11.1972,1833
11.2000,1844
11.2028,1843
11.2056,1842
11.2083,1834
11.2111,1840
11.2139,1861
11.2167,1878
11.2194,1898
11.2222,1902
11.2250,1896
11.2278,1884
11.2306,1877
11.2333,1889
11.2361,1904
11.2389,1917
11.2417,1934
11.2444,1945
11.2472,1960
11.2500,1959
11.2528,1957
11.2556,1960
11.2583,1962
11.2611,1961
11.2639,1957
11.2667,1964
11.2694,1976
11.2722,1975
11.2750,1969
11.2778,1972
11.2806,1967
11.2833,1986
11.2861,1992
11.2889,2013
11.2917,2014
11.2944,2029
11.2972,2024
11.3000,2029
11.3028,2014
11.3056,2012
11.3083,1999
11.3111,1989
11.3139,1774
11.3167,1787
11.3194,1773
11.3222,1751
11.3250,1726
11.3278,1709
11.3306,1701
11.3333,1683
11.3361,1670
11.3389,1659
11.3417,1652
11.3444,1651
11.3472,1626
11.3500,1621
11.3528,1597
11.3556,1590
11.3583,1581
11.3611,1575
11.3639,1567
11.3667,1551
11.3694,1540
11.3722,1525
11.3750,1528
11.3778,1529
11.3806,1523
11.3833,1505
11.3861,1485
11.3889,1473
11.3917,1496
11.3944,1521
11.3972,1536
11.4000,1550
11.4028,1535
11.4056,1526
11.4083,1513
11.4111,1504
11.4139,1497
11.4167,1495
11.4194,1503
11.4222,1524
11.4250,1532
11.4278,1544
11.4306,1533
11.4333,1528
11.4361,1535
11.4389,1544
11.4417,1557
11.4444,1567
11.4472,1572
11.4500,1574
11.4528,1591
11.4556,1601
11.4583,1598
11.4611,1587
11.4639,1590
11.4667,1594
11.4694,1599
11.4722,1602
11.4750,1594
11.4778,1597
11.4806,1583
11.4833,1575
11.4861,1566
11.4889,1577
11.4917,1585
11.4944,1587
11.4972,1603
11.5000,1614
11.5028,1626
11.5056,1636
11.5083,1631
11.5111,1624
11.5139,1625
11.5167,1626
11.5194,1640
11.5222,1652
11.5250,1657
11.5278,1668
11.5306,1671
11.5333,1677
11.5361,1677
11.5389,1677
11.5417,1674
11.5444,1686
11.5472,1685
11.5500,1711
11.5528,1734
11.5556,1755
11.5583,1777
11.5611,1793
11.5639,1801
11.5667,1796
11.5694,1784
11.5722,1801
11.5750,1832
11.5778,1875
11.5806,1926
11.5833,1958
11.5861,1976
11.5889,1980
11.5917,1967
11.5944,1938
11.5972,1924
11.6000,1914
11.6028,1916
11.6056,1909
11.6083,1887
11.6111,1855
11.6139,1813
11.6167,1785
11.6194,1744
11.6222,1718
11.6250,1689
11.6278,1669
11.6306,1653
11.6333,1654
11.6361,1671
11.6389,1668
11.6417,1658
11.6444,1655
11.6472,1647
11.6500,1650
11.6528,1642
11.6556,1654
11.6583,1655
11.6611,1647
11.6639,1641
11.6667,1639
11.6694,1641
11.6722,1636
11.6750,1652
11.6778,1645
11.6806,1651
11.6833,1625
11.6861,1599
11.6889,1568
11.6917,1573
11.6944,1609
11.6972,1683
11.7000,1786
11.7028,1931
11.7056,2140
11.7083,2376
11.7111,2616
11.7139,2773
11.7167,2846
11.7194,2795
11.7222,2580
11.7250,2246
11.7278,1867
11.7306,1555
11.7333,1370
11.7361,1310
11.7389,1325
11.7417,1359
11.7444,1412
11.7472,1476
11.7500,1541
11.7528,1591
11.7556,1628
11.7583,1630
11.7611,1650
11.7639,1658
11.7667,1669
11.7694,1669
11.7722,1658
11.7750,1651
11.7778,1655
11.7806,1658
11.7833,1680
11.7861,1679
11.7889,1688
11.7917,1683
11.7944,1679
11.7972,1691
11.8000,1695
11.8028,1696
11.8056,1714
11.8083,1715
11.8111,1715
11.8139,1714
11.8167,1706
11.8194,1706
11.8222,1712
11.8250,1719
11.8278,1726
11.8306,1730
11.8333,1732
11.8361,1724
11.8389,1716
11.8417,1707
11.8444,1717
11.8472,1730
11.8500,1730
11.8528,1744
11.8556,1748
11.8583,1738
11.8611,1727
11.8639,1721
11.8667,1723
11.8694,1736
11.8722,1740
11.8750,1747
11.8778,1742
11.8806,1749
11.8833,1760
11.8861,1763
11.8889,1774
11.8917,1780
11.8944,1779
11.8972,1774
11.9000,1772
11.9028,1769
11.9056,1777
11.9083,1785
11.9111,1790
11.9139,1809
11.9167,1811
11.9194,1814
11.9222,1839
11.9250,1835
11.9278,1837
11.9306,1823
11.9333,1819
11.9361,1804
11.9389,1793
11.9417,1798
11.9444,1787
11.9472,1788
11.9500,1772
11.9528,1754
11.9556,1750
11.9583,1744
11.9611,1742
11.9639,1730
11.9667,1732
11.9694,1723
11.9722,1714
11.9750,1712
11.9778,1706
11.9806,1697
11.9833,1695
11.9861,1696
11.9889,1706
11.9917,1714
11.9944,1712
11.9972,1704
12.0000,1698
12.0028,1698
12.0056,1698
12.0083,1703
12.0111,1703
12.0139,1700
12.0167,1698
12.0194,1703
12.0222,1700
12.0250,1703
12.0278,1702
12.0306,1701
12.0333,1686
12.0361,1686
12.0389,1671
12.0417,1682
12.0444,1691
12.0472,1707
12.0500,1716
12.0528,1716
12.0556,1718
12.0583,1707
12.0611,1696
12.0639,1696
12.0667,1686
12.0694,1667
12.0722,1661
12.0750,1664
12.0778,1652
12.0806,1653
12.0833,1649
12.0861,1649
12.0889,1655
12.0917,1649
12.0944,1636
12.0972,1632
12.1000,1628
12.1028,1622
12.1056,1607
12.1083,1606
12.1111,1606
12.1139,1608
12.1167,1612
12.1194,1616
12.1222,1622
12.1250,1615
12.1278,1608
12.1306,1614
12.1333,1624
12.1361,1646
12.1389,1651
12.1417,1668
12.1444,1674
12.1472,1669
12.1500,1671
12.1528,1681
12.1556,1685
12.1583,1721
12.1611,1747
12.1639,1789
12.1667,1828
12.1694,1851
12.1722,1841
12.1750,1821
12.1778,1807
12.1806,1797
12.1833,1778
12.1861,1764
12.1889,1749
12.1917,1711
12.1944,1676
12.1972,1630
12.2000,1595
12.2028,1560
12.2056,1518
12.2083,1488
12.2111,1476
12.2139,1460
12.2167,1449
12.2194,1443
12.2222,1446
12.2250,1431
12.2278,1419
12.2306,1412
12.2333,1404
12.2361,1394
12.2389,1389
12.2417,1386
12.2444,1386
12.2472,1389
12.2500,1377
12.2528,1371
12.2556,1355
12.2583,1362
12.2611,1358
12.2639,1349
12.2667,1324
12.2694,1307
12.2722,1305
12.2750,1328
12.2778,1366
12.2806,1434
12.2833,1530
12.2861,1701
12.2889,1941
12.2917,2216
12.2944,2445
12.2972,2585
12.3000,2641
12.3028,2549
12.3056,2281
12.3083,1918
12.3111,1507
12.3139,1175
12.3167,1010
12.3194,972
12.3222,1032
12.3250,1119
12.3278,1224
12.3306,1306
12.3333,1372
12.3361,1395
12.3389,1399
12.3417,1404
12.3444,1402
12.3472,1417
12.3500,1438
12.3528,1438
12.3556,1453
12.3583,1452
12.3611,1444
12.3639,1436
12.3667,1435
12.3694,1443
12.3722,1449
12.3750,1468
12.3778,1468
12.3806,1460
12.3833,1460
12.3861,1474
12.3889,1473
12.3917,1476
12.3944,1489
12.3972,1494
12.4000,1485
12.4028,1490
12.4056,1492
12.4083,1500
12.4111,1511
12.4139,1507
12.4167,1503
12.4194,1504
12.4222,1511
12.4250,1517
12.4278,1523
12.4306,1520
12.4333,1524
12.4361,1524
12.4389,1523
12.4417,1537
12.4444,1543
12.4472,1550
12.4500,1568
12.4528,1571
12.4556,1585
12.4583,1579
12.4611,1578
12.4639,1593
12.4667,1600
12.4694,1616
12.4722,1642
12.4750,1654
12.4778,1653
12.4806,1641
12.4833,1647
12.4861,1652
12.4889,1659
12.4917,1673
12.4944,1682
12.4972,1686
12.5000,1687
12.5028,1699
12.5056,1642
12.5083,1640
12.5111,1641
12.5139,1643
12.5167,1638
12.5194,1621
12.5222,1617
12.5250,1610
12.5278,1612
12.5306,1598
12.5333,1591
12.5361,1592
12.5389,1583
12.5417,1578
12.5444,1570
12.5472,1572
12.5500,1580
12.5528,1578
12.5556,1576
12.5583,1577
12.5611,1581
12.5639,1607
12.5667,1604
12.5694,1610
12.5722,1619
12.5750,1631
12.5778,1630
12.5806,1620
12.5833,1611
12.5861,1622
12.5889,1640
12.5917,1656
12.5944,1673
12.5972,1680
12.6000,1682
12.6028,1687
12.6056,1693
12.6083,1692
12.6111,1701
12.6139,1701
12.6167,1698
12.6194,1707
12.6222,1717
12.6250,1718
12.6278,1710
12.6306,1722
12.6333,1721
12.6361,1723
12.6389,1720
12.6417,1728
12.6444,1734
12.6472,1737
12.6500,1740
12.6528,1737
12.6556,1734
12.6583,1714
12.6611,1709
12.6639,1711
12.6667,1724
12.6694,1731
12.6722,1733
12.6750,1742
12.6778,1729
12.6806,1723
12.6833,1722
12.6861,1733
12.6889,1725
12.6917,1723
12.6944,1722
12.6972,1724
12.7000,1723
12.7028,1723
12.7056,1723
12.7083,1717
12.7111,1721
12.7139,1722
12.7167,1718
12.7194,1707
12.7222,1711
12.7250,1711
12.7278,1713
12.7306,1728
12.7333,1727
12.7361,1737
12.7389,1748
12.7417,1751
12.7444,1763
12.7472,1774
12.7500,1799
12.7528,1818
12.7556,1834
12.7583,1817
12.7611,1811
12.7639,1825
12.7667,1858
12.7694,1880
12.7722,1911
12.7750,1937
12.7778,1950
12.7806,1950
12.7833,1934
12.7861,1908
12.7889,1892
12.7917,1881
12.7944,1883
12.7972,1863
12.8000,1827
12.8028,1781
12.8056,1749
12.8083,1716
12.8111,1698
12.8139,1661
12.8167,1631
12.8194,1606
12.8222,1588
12.8250,1578
12.8278,1586
12.8306,1584
12.8333,1575
12.8361,1565
12.8389,1559
12.8417,1557
12.8444,1565
12.8472,1549
12.8500,1547
12.8528,1532
12.8556,1533
12.8583,1529
12.8611,1530
12.8639,1538
12.8667,1533
12.8694,1517
12.8722,1496
12.8750,1456
12.8778,1420
12.8806,1395
12.8833,1397
12.8861,1443
12.8889,1494
12.8917,1590
12.8944,1736
12.8972,1990
12.9000,2270
12.9028,2533
12.9056,2731
12.9083,2816
12.9111,2770
12.9139,2544
12.9167,2172
12.9194,1724
12.9222,1334
12.9250,1108
12.9278,1035
12.9306,1081
12.9333,1205
12.9361,1339
12.9389,1445
12.9417,1500
12.9444,1514
12.9472,1506
12.9500,1515
12.9528,1512
12.9556,1526
12.9583,1526
12.9611,1524
12.9639,1537
12.9667,1541
12.9694,1534
12.9722,1535
12.9750,1533
12.9778,1537
12.9806,1542
12.9833,1542
12.9861,1551
12.9889,1552
12.9917,1542
12.9944,1547
12.9972,1548
13.0000,1558
13.0028,1575
13.0056,1578
13.0083,1568
13.0111,1557
13.0139,1547
13.0167,1551
13.0194,1555
13.0222,1568
13.0250,1572
13.0278,1570
13.0306,1572
13.0333,1577
13.0361,1574
13.0389,1587
13.0417,1588
13.0444,1594
13.0472,1587
13.0500,1596
13.0528,1610
13.0556,1619
13.0583,1624
13.0611,1624
13.0639,1627
13.0667,1642
13.0694,1649
13.0722,1649
13.0750,1656
13.0778,1671
13.0806,1685
13.0833,1698
13.0861,1727
13.0889,1731
13.0917,1754
13.0944,1759
13.0972,1778
13.1000,1787
13.1028,1796
13.1056,1801
13.1083,1799
13.1111,1798
13.1139,1763
13.1167,1768
13.1194,1764
13.1222,1752
13.1250,1736
13.1278,1707
13.1306,1687
13.1333,1690
13.1361,1691
13.1389,1697
13.1417,1701
13.1444,1693
13.1472,1685
13.1500,1685
13.1528,1674
13.1556,1668
13.1583,1657
13.1611,1653
13.1639,1656
13.1667,1650
13.1694,1644
13.1722,1637
13.1750,1634
13.1778,1636
13.1806,1643
13.1833,1643
13.1861,1647
13.1889,1639
13.1917,1638
13.1944,1634
13.1972,1634
13.2000,1643
13.2028,1632
13.2056,1625
13.2083,1615
13.2111,1606
13.2139,1601
13.2167,1600
13.2194,1616
13.2222,1622
13.2250,1618
13.2278,1623
13.2306,1629
13.2333,1644
13.2361,1659
13.2389,1671
13.2417,1682
13.2444,1680
13.2472,1690
13.2500,1685
13.2528,1690
13.2556,1701
13.2583,1705
13.2611,1717
13.2639,1727
13.2667,1733
13.2694,1739
13.2722,1742
13.2750,1739
13.2778,1727
13.2806,1734
13.2833,1743
13.2861,1753
13.2889,1764
13.2917,1761
13.2944,1768
13.2972,1760
13.3000,1756
13.3028,1753
13.3056,1759
13.3083,1758
13.3111,1749
13.3139,1747
13.3167,1740
13.3194,1754
13.3222,1762
13.3250,1765
13.3278,1763
13.3306,1764
13.3333,1758
13.3361,1764
13.3389,1761
13.3417,1766
13.3444,1770
13.3472,1773
13.3500,1771
13.3528,1766
13.3556,1780
13.3583,1784
13.3611,1785
13.3639,1791
13.3667,1781
13.3694,1778
13.3722,1781
13.3750,1796
13.3778,1813
13.3806,1841
13.3833,1865
13.3861,1885
13.3889,1902
13.3917,1899
13.3944,1885
13.3972,1886
13.4000,1901
13.4028,1930
13.4056,1958
13.4083,1991
13.4111,2015
13.4139,2032
13.4167,2043
13.4194,2047
13.4222,2018
13.4250,1991
13.4278,1983
13.4306,1970
13.4333,1953
13.4361,1922
13.4389,1885
13.4417,1841
13.4444,1813
13.4472,1783
13.4500,1752
13.4528,1722
13.4556,1692
13.4583,1681
13.4611,1667
13.4639,1651
13.4667,1654
13.4694,1648
13.4722,1647
13.4750,1651
13.4778,1643
13.4806,1646
13.4833,1639
13.4861,1634
13.4889,1627
13.4917,1611
13.4944,1609
13.4972,1613
13.5000,1627
13.5028,1612
13.5056,1596
13.5083,1576
13.5111,1545
13.5139,1522
13.5167,1497
13.5194,1505
13.5222,1539
13.5250,1600
13.5278,1706
13.5306,1895
13.5333,2171
13.5361,2471
13.5389,2724
13.5417,2870
13.5444,2912
13.5472,2785
13.5500,2489
13.5528,2082
13.5556,1645
13.5583,1322
13.5611,1147
13.5639,1136
13.5667,1213
13.5694,1338
13.5722,1479
13.5750,1584
13.5778,1631
13.5806,1626
13.5833,1621
13.5861,1603
13.5889,1601
13.5917,1612
13.5944,1623
13.5972,1630
13.6000,1636
13.6028,1630
13.6056,1624
13.6083,1622
13.6111,1626
13.6139,1630
13.6167,1636
13.6194,1646
13.6222,1646
13.6250,1651
13.6278,1637
13.6306,1633
13.6333,1649
13.6361,1656
13.6389,1653
13.6417,1659
13.6444,1657
13.6472,1657
13.6500,1655
13.6528,1652
13.6556,1646
13.6583,1660
13.6611,1659
13.6639,1660
13.6667,1668
13.6694,1662
13.6722,1669
13.6750,1679
13.6778,1696
13.6806,1712
13.6833,1709
13.6861,1711
13.6889,1693
13.6917,1681
13.6944,1693
13.6972,1710
13.7000,1718
13.7028,1722
13.7056,1728
13.7083,1731
13.7111,1735
13.7139,1744
13.7167,1750
13.7194,1763
13.7222,1771
13.7250,1783
13.7278,1776
13.7306,1792
13.7333,1794
13.7361,1798
13.7389,1798
13.7417,1817
13.7444,1823
13.7472,1831
13.7500,1767
13.7528,1774
13.7556,1773
13.7583,1767
13.7611,1759
13.7639,1747
13.7667,1730
13.7694,1728
13.7722,1722
13.7750,1734
13.7778,1733
13.7806,1725
13.7833,1719
13.7861,1710
13.7889,1698
13.7917,1689
13.7944,1685
13.7972,1700
13.8000,1704
13.8028,1707
13.8056,1717
13.8083,1714
13.8111,1720
13.8139,1728
13.8167,1725
13.8194,1732
13.8222,1720
13.8250,1718
13.8278,1723
13.8306,1733
13.8333,1733
13.8361,1735
13.8389,1737
13.8417,1733
13.8444,1730
13.8472,1727
13.8500,1743
13.8528,1748
13.8556,1757
13.8583,1758
13.8611,1759
13.8639,1762
13.8667,1741
13.8694,1742
13.8722,1754
13.8750,1765
13.8778,1789
13.8806,1788
13.8833,1783
13.8861,1777
13.8889,1764
13.8917,1773
13.8944,1784
13.8972,1777
13.9000,1789
13.9028,1783
13.9056,1787
13.9083,1783
13.9111,1799
13.9139,1809
13.9167,1820
13.9194,1819
13.9222,1809
13.9250,1799
13.9278,1795
13.9306,1788
13.9333,1792
13.9361,1798
13.9389,1810
13.9417,1804
13.9444,1811
13.9472,1808
13.9500,1813
13.9528,1809
13.9556,1787
13.9583,1780
13.9611,1770
13.9639,1767
13.9667,1766
13.9694,1785
13.9722,1810
13.9750,1819
13.9778,1817
13.9806,1815
13.9833,1797
13.9861,1786
13.9889,1782
13.9917,1794
13.9944,1796
13.9972,1798
14.0000,1802
14.0028,1801
14.0056,1805
14.0083,1805
14.0111,1796
14.0139,1800
14.0167,1790
14.0194,1799
14.0222,1794
14.0250,1789
14.0278,1780
14.0306,1770
14.0333,1768
14.0361,1766
14.0389,1764
14.0417,1775
14.0444,1778
14.0472,1775
14.0500,1769
14.0528,1764
14.0556,1755
14.0583,1767
14.0611,1789
14.0639,1805
14.0667,1815
14.0694,1843
14.0722,1850
14.0750,1857
14.0778,1848
14.0806,1853
14.0833,1869
14.0861,1885
14.0889,1917
14.0917,1941
14.0944,1948
14.0972,1951
14.1000,1967
14.1028,1954
14.1056,1942
14.1083,1928
14.1111,1928
14.1139,1914
14.1167,1886
14.1194,1853
14.1222,1811
14.1250,1768
14.1278,1733
14.1306,1700
14.1333,1669
14.1361,1637
14.1389,1616
14.1417,1609
14.1444,1596
14.1472,1589
14.1500,1588
14.1528,1594
14.1556,1593
14.1583,1590
14.1611,1578
14.1639,1558
14.1667,1550
14.1694,1558
14.1722,1556
14.1750,1558
14.1778,1561
14.1806,1565
14.1833,1562
14.1861,1556
14.1889,1529
14.1917,1509
14.1944,1471
14.1972,1451
14.2000,1477
14.2028,1522
14.2056,1598
14.2083,1712
14.2111,1901
14.2139,2158
14.2167,2430
14.2194,2646
14.2222,2786
14.2250,2810
14.2278,2687
14.2306,2377
14.2333,1981
14.2361,1553
14.2389,1248
14.2417,1104
14.2444,1122
14.2472,1204
14.2500,1329
14.2528,1454
14.2556,1523
14.2583,1564
14.2611,1572
14.2639,1568
14.2667,1557
14.2694,1554
14.2722,1563
14.2750,1581
14.2778,1602
14.2806,1597
14.2833,1586
14.2861,1581
14.2889,1574
14.2917,1579
14.2944,1585
14.2972,1596
14.3000,1601
14.3028,1607
14.3056,1604
14.3083,1614
14.3111,1622
14.3139,1628
14.3167,1632
14.3194,1640
14.3222,1643
14.3250,1633
14.3278,1638
14.3306,1636
14.3333,1642
14.3361,1647
14.3389,1661
14.3417,1669
14.3444,1660
14.3472,1652
14.3500,1652
14.3528,1668
14.3556,1678
14.3583,1680
14.3611,1681
14.3639,1672
14.3667,1674
14.3694,1685
14.3722,1694
14.3750,1698
14.3778,1707
14.3806,1715
14.3833,1717
14.3861,1706
14.3889,1721
14.3917,1726
14.3944,1728
14.3972,1720
14.4000,1735
14.4028,1729
14.4056,1733
14.4083,1732
14.4111,1744
14.4139,1751
14.4167,1771
14.4194,1764
14.4222,1767
14.4250,1763
14.4278,1775
14.4306,1780
14.4333,1785
14.4361,1796
14.4389,1804
14.4417,1792
14.4444,1772
14.4472,1761
14.4500,1751
14.4528,1741
14.4556,1744
14.4583,1751
14.4611,1762
14.4639,1763
14.4667,1758
14.4694,1738
14.4722,1743
14.4750,1742
14.4778,1741
14.4806,1744
14.4833,1739
14.4861,1745
14.4889,1749
14.4917,1764
14.4944,1762
14.4972,1766
14.5000,1764
14.5028,1767
14.5056,1760
14.5083,1766
14.5111,1773
14.5139,1781
14.5167,1787
14.5194,1796
14.5222,1791
14.5250,1792
14.5278,1794
14.5306,1802
14.5333,1811
14.5361,1821
14.5389,1826
14.5417,1822
14.5444,1821
14.5472,1820
14.5500,1830
14.5528,1821
14.5556,1831
14.5583,1831
14.5611,1834
14.5639,1834
14.5667,1837
14.5694,1845
14.5722,1846
14.5750,1848
14.5778,1852
14.5806,1844
14.5833,1839
14.5861,1832
14.5889,1824
14.5917,1819
14.5944,1828
14.5972,1844
14.6000,1848
14.6028,1848
14.6056,1833
14.6083,1827
14.6111,1811
14.6139,1801
14.6167,1806
14.6194,1802
14.6222,1803
14.6250,1811
14.6278,1803
14.6306,1807
14.6333,1800
14.6361,1785
14.6389,1783
14.6417,1790
14.6444,1782
14.6472,1772
14.6500,1769
14.6528,1769
14.6556,1773
14.6583,1778
14.6611,1773
14.6639,1779
14.6667,1769
14.6694,1774
14.6722,1763
14.6750,1757
14.6778,1758
14.6806,1754
14.6833,1765
14.6861,1765
14.6889,1771
14.6917,1764
14.6944,1760
14.6972,1766
14.7000,1756
14.7028,1754
14.7056,1737
14.7083,1732
14.7111,1728
14.7139,1732
14.7167,1742
14.7194,1737
14.7222,1728
14.7250,1724
14.7278,1720
14.7306,1729
14.7333,1736
14.7361,1743
14.7389,1742
14.7417,1751
14.7444,1740
14.7472,1725
14.7500,1724
14.7528,1722
14.7556,1724
14.7583,1747
14.7611,1769
14.7639,1792
14.7667,1807
14.7694,1821
14.7722,1827
14.7750,1818
14.7778,1823
14.7806,1836
14.7833,1861
14.7861,1896
14.7889,1937
14.7917,1953
14.7944,1965
14.7972,1963
14.8000,1955
14.8028,1943
14.8056,1929
14.8083,1915
14.8111,1894
14.8139,1871
14.8167,1842
14.8194,1810
14.8222,1781
14.8250,1747
14.8278,1707
14.8306,1686
14.8333,1667
14.8361,1652
14.8389,1634
14.8417,1630
14.8444,1624
14.8472,1614
14.8500,1605
14.8528,1613
14.8556,1612
14.8583,1619
14.8611,1602
14.8639,1606
14.8667,1596
14.8694,1590
14.8722,1577
14.8750,1588
14.8778,1610
14.8806,1605
14.8833,1592
14.8861,1568
14.8889,1530
14.8917,1501
14.8944,1491
14.8972,1511
14.9000,1565
14.9028,1642
14.9056,1767
14.9083,1977
14.9111,2242
14.9139,2510
14.9167,2712
14.9194,2846
14.9222,2869
14.9250,2707
14.9278,2382
14.9306,1971
14.9333,1562
14.9361,1290
14.9389,1178
14.9417,1197
14.9444,1275
14.9472,1401
14.9500,1525
14.9528,1615
14.9556,1655
14.9583,1646
14.9611,1640
14.9639,1635
14.9667,1638
14.9694,1638
14.9722,1646
14.9750,1666
14.9778,1668
14.9806,1649
14.9833,1645
14.9861,1651
14.9889,1646
14.9917,1653
14.9944,1649
14.9972,1658
15.0000,1662
15.0028,1662
15.0056,1662
15.0083,1660
15.0111,1657
15.0139,1662
15.0167,1666
15.0194,1657
15.0222,1658
15.0250,1644
15.0278,1638
15.0306,1649
15.0333,1661
15.0361,1650
15.0389,1638
15.0417,1639
15.0444,1639
15.0472,1637
15.0500,1638
15.0528,1657
15.0556,1656
15.0583,1656
15.0611,1655
15.0639,1652
15.0667,1660
15.0694,1671
15.0722,1687
15.0750,1693
15.0778,1685
15.0806,1692
15.0833,1690
15.0861,1693
15.0889,1692
15.0917,1703
15.0944,1711
15.0972,1721
15.1000,1722
15.1028,1723
15.1056,1737
15.1083,1745
15.1111,1756
15.1139,1765
15.1167,1769
15.1194,1766
15.1222,1771
15.1250,1785
15.1278,1815
15.1306,1825
15.1333,1817
15.1361,1820
15.1389,1825
15.1417,1830
15.1444,1825
15.1472,1812
15.1500,1806
15.1528,1817
15.1556,1826
15.1583,1829
15.1611,1828
15.1639,1823
15.1667,1829
15.1694,1831
15.1722,1838
15.1750,1842
15.1778,1845
15.1806,1836
15.1833,1845
15.1861,1848
15.1889,1852
15.1917,1850
15.1944,1857
15.1972,1867
15.2000,1863
15.2028,1864
15.2056,1860
15.2083,1873
15.2111,1884
15.2139,1895
15.2167,1921
15.2194,1926
15.2222,1918
15.2250,1911
15.2278,1905
15.2306,1909
15.2333,1919
15.2361,1930
15.2389,1923
15.2417,1927
15.2444,1933
15.2472,1928
15.2500,1933
15.2528,1943
15.2556,1923
15.2583,1929
15.2611,1922
15.2639,1919
15.2667,1906
15.2694,1904
15.2722,1902
15.2750,1906
15.2778,1911
15.2806,1894
15.2833,1881
15.2861,1874
15.2889,1865
15.2917,1869
15.2944,1867
15.2972,1856
15.3000,1845
15.3028,1834
15.3056,1827
15.3083,1821
15.3111,1826
15.3139,1827
15.3167,1832
15.3194,1821
15.3222,1815
15.3250,1803
15.3278,1809
15.3306,1808
15.3333,1807
15.3361,1799
15.3389,1784
15.3417,1780
15.3444,1769
15.3472,1764
15.3500,1770
15.3528,1760
15.3556,1755
15.3583,1745
15.3611,1734
15.3639,1728
15.3667,1709
15.3694,1696
15.3722,1702
15.3750,1698
15.3778,1697
15.3806,1689
15.3833,1693
15.3861,1685
15.3889,1683
15.3917,1696
15.3944,1699
15.3972,1685
15.4000,1678
15.4028,1681
15.4056,1690
15.4083,1694
15.4111,1701
15.4139,1689
15.4167,1687
15.4194,1695
15.4222,1702
15.4250,1700
15.4278,1707
15.4306,1710
15.4333,1709
15.4361,1715
15.4389,1710
15.4417,1703
15.4444,1697
15.4472,1692
15.4500,1704
15.4528,1715
15.4556,1716
15.4583,1712
15.4611,1712
15.4639,1719
15.4667,1733
15.4694,1749
15.4722,1769
15.4750,1789
15.4778,1786
15.4806,1777
15.4833,1787
15.4861,1803
15.4889,1822
15.4917,1857
15.4944,1895
15.4972,1923
15.5000,1939
15.5028,1934
15.5056,1927
15.5083,1908
15.5111,1900
15.5139,1895
15.5167,1880
15.5194,1869
15.5222,1847
15.5250,1813
15.5278,1776
15.5306,1746
15.5333,1729
15.5361,1706
15.5389,1673
15.5417,1663
15.5444,1650
15.5472,1651
15.5500,1640
15.5528,1639
15.5556,1646
15.5583,1645
15.5611,1627
15.5639,1631
15.5667,1623
15.5694,1631
15.5722,1635
15.5750,1644
15.5778,1656
15.5806,1656
15.5833,1667
15.5861,1660
15.5889,1658
15.5917,1624
15.5944,1583
15.5972,1544
15.6000,1534
15.6028,1554
15.6056,1620
15.6083,1713
15.6111,1857
15.6139,2074
15.6167,2329
15.6194,2576
15.6222,2747
15.6250,2856
15.6278,2846
15.6306,2667
15.6333,2334
15.6361,1928
15.6389,1567
15.6417,1337
15.6444,1260
15.6472,1275
15.6500,1352
15.6528,1442
15.6556,1533
15.6583,1610
15.6611,1655
15.6639,1663
15.6667,1662
15.6694,1656
15.6722,1665
15.6750,1679
15.6778,1695
15.6806,1699
15.6833,1708
15.6861,1706
15.6889,1718
15.6917,1722
15.6944,1730
15.6972,1727
15.7000,1732
15.7028,1739
15.7056,1737
15.7083,1742
15.7111,1756
15.7139,1760
15.7167,1766
15.7194,1773
15.7222,1770
15.7250,1767
15.7278,1774
15.7306,1781
15.7333,1785
15.7361,1788
15.7389,1784
15.7417,1783
15.7444,1778
15.7472,1783
15.7500,1785
15.7528,1791
15.7556,1793
15.7583,1805
15.7611,1806
15.7639,1823
15.7667,1822
15.7694,1818
15.7722,1823
15.7750,1830
15.7778,1846
15.7806,1867
15.7833,1875
15.7861,1869
15.7889,1873
15.7917,1886
15.7944,1898
15.7972,1916
15.8000,1918
15.8028,1913
15.8056,1907
15.8083,1918
15.8111,1907
15.8139,1919
15.8167,1932
15.8194,1935
15.8222,1936
15.8250,1934
15.8278,1926
15.8306,1930
15.8333,1944
15.8361,1934
15.8389,1948
15.8417,1957
15.8444,1937
15.8472,1915
15.8500,1889
15.8528,1890
15.8556,1886
15.8583,1883
15.8611,1879
15.8639,1865
15.8667,1850
15.8694,1845
15.8722,1840
15.8750,1835
15.8778,1827
15.8806,1823
15.8833,1807
15.8861,1806
15.8889,1809
15.8917,1810
15.8944,1817
15.8972,1814
15.9000,1811
15.9028,1814
15.9056,1808
15.9083,1794
15.9111,1796
15.9139,1791
15.9167,1779
15.9194,1768
15.9222,1764
15.9250,1774
15.9278,1772
15.9306,1774
15.9333,1780
15.9361,1775
15.9389,1770
15.9417,1753
15.9444,1752
15.9472,1739
15.9500,1733
15.9528,1732
15.9556,1739
15.9583,1746
15.9611,1743
15.9639,1733
15.9667,1720
15.9694,1723
15.9722,1729
15.9750,1736
15.9778,1730
15.9806,1728
15.9833,1732
15.9861,1728
15.9889,1722
15.9917,1720
15.9944,1718
15.9972,1706
16.0000,1691
16.0028,1694
16.0056,1695
16.0083,1701
16.0111,1704
16.0139,1705
16.0167,1697
16.0194,1698
16.0222,1690
16.0250,1682
16.0278,1676
16.0306,1679
16.0333,1674
16.0361,1672
16.0389,1677
16.0417,1686
16.0444,1687
16.0472,1680
16.0500,1667
16.0528,1675
16.0556,1674
16.0583,1673
16.0611,1678
16.0639,1681
16.0667,1658
16.0694,1663
16.0722,1648
16.0750,1658
16.0778,1652
16.0806,1655
16.0833,1664
16.0861,1681
16.0889,1693
16.0917,1727
16.0944,1729
16.0972,1707
16.1000,1690
16.1028,1699
16.1056,1717
16.1083,1758
16.1111,1805
16.1139,1850
16.1167,1872
16.1194,1880
16.1222,1887
16.1250,1871
16.1278,1858
16.1306,1841
16.1333,1832
16.1361,1820
16.1389,1791
16.1417,1761
16.1444,1721
16.1472,1687
16.1500,1669
16.1528,1656
16.1556,1653
16.1583,1649
16.1611,1631
16.1639,1616
16.1667,1594
16.1694,1584
16.1722,1594
16.1750,1605
16.1778,1611
16.1806,1610
16.1833,1609
16.1861,1594
16.1889,1590
16.1917,1581
16.1944,1586
16.1972,1601
16.2000,1599
16.2028,1601
16.2056,1599
16.2083,1581
16.2111,1565
16.2139,1536
16.2167,1505
16.2194,1506
16.2222,1534
16.2250,1582
16.2278,1660
16.2306,1781
16.2333,1969
16.2361,2212
16.2389,2456
16.2417,2665
16.2444,2781
16.2472,2817
16.2500,2702
16.2528,2440
16.2556,2071
16.2583,1698
16.2611,1422
16.2639,1300
16.2667,1267
16.2694,1292
16.2722,1340
16.2750,1409
16.2778,1474
16.2806,1544
16.2833,1585
16.2861,1594
16.2889,1598
16.2917,1606
16.2944,1612
16.2972,1632
16.3000,1635
16.3028,1633
16.3056,1628
16.3083,1613
16.3111,1600
16.3139,1606
16.3167,1638
16.3194,1661
16.3222,1672
16.3250,1669
16.3278,1668
16.3306,1676
16.3333,1687
16.3361,1697
16.3389,1698
16.3417,1695
16.3444,1706
16.3472,1694
16.3500,1683
16.3528,1694
16.3556,1696
16.3583,1697
16.3611,1690
16.3639,1681
16.3667,1675
16.3694,1679
16.3722,1684
16.3750,1702
16.3778,1704
16.3806,1709
16.3833,1710
16.3861,1713
16.3889,1717
16.3917,1715
16.3944,1715
16.3972,1714
16.4000,1734
16.4028,1741
16.4056,1748
16.4083,1748
16.4111,1754
16.4139,1754
16.4167,1758
16.4194,1754
16.4222,1758
16.4250,1753
16.4278,1754
16.4306,1752
16.4333,1748
16.4361,1750
16.4389,1773
16.4417,1768
16.4444,1765
16.4472,1767
16.4500,1767
16.4528,1706
16.4556,1711
16.4583,1698
16.4611,1685
16.4639,1661
16.4667,1644
16.4694,1643
16.4722,1644
16.4750,1653
16.4778,1658
16.4806,1659
16.4833,1645
16.4861,1628
16.4889,1622
16.4917,1613
16.4944,1604
16.4972,1607
16.5000,1602
16.5028,1609
16.5056,1624
16.5083,1628
16.5111,1640
16.5139,1637
16.5167,1639
16.5194,1633
16.5222,1631
16.5250,1619
16.5278,1621
16.5306,1631
16.5333,1637
16.5361,1639
16.5389,1649
16.5417,1646
16.5444,1646
16.5472,1640
16.5500,1637
16.5528,1638
16.5556,1628
16.5583,1633
16.5611,1637
16.5639,1639
16.5667,1635
16.5694,1630
16.5722,1633
16.5750,1634
16.5778,1636
16.5806,1647
16.5833,1647
16.5861,1636
16.5889,1643
16.5917,1633
16.5944,1631
16.5972,1637
16.6000,1645
16.6028,1636
16.6056,1644
16.6083,1644
16.6111,1661
16.6139,1660
16.6167,1654
16.6194,1642
16.6222,1637
16.6250,1655
16.6278,1661
16.6306,1658
16.6333,1657
16.6361,1657
16.6389,1659
16.6417,1653
16.6444,1648
16.6472,1649
16.6500,1646
16.6528,1648
16.6556,1664
16.6583,1676
16.6611,1687
16.6639,1692
16.6667,1696
16.6694,1694
16.6722,1709
16.6750,1706
16.6778,1700
16.6806,1710
16.6833,1722
16.6861,1741
16.6889,1763
16.6917,1809
16.6944,1864
16.6972,1888
16.7000,1875
16.7028,1856
16.7056,1829
16.7083,1813
16.7111,1799
16.7139,1790
16.7167,1777
16.7194,1747
16.7222,1713
16.7250,1672
16.7278,1633
16.7306,1603
16.7333,1576
16.7361,1571
16.7389,1574
16.7417,1565
16.7444,1551
16.7472,1536
16.7500,1544
16.7528,1547
16.7556,1533
16.7583,1531
16.7611,1522
16.7639,1517
16.7667,1512
16.7694,1513
16.7722,1523
16.7750,1539
16.7778,1545
16.7806,1551
16.7833,1551
16.7861,1545
16.7889,1539
16.7917,1517
16.7944,1483
16.7972,1446
16.8000,1427
16.8028,1436
16.8056,1475
16.8083,1549
16.8111,1664
16.8139,1833
16.8167,2079
16.8194,2356
16.8222,2588
16.8250,2727
16.8278,2786
16.8306,2692
16.8333,2423
16.8361,2055
16.8389,1653
16.8417,1335
16.8444,1172
16.8472,1145
16.8500,1182
16.8528,1256
16.8556,1344
16.8583,1437
16.8611,1485
16.8639,1500
16.8667,1500
16.8694,1510
16.8722,1510
16.8750,1523
16.8778,1541
16.8806,1553
16.8833,1555
16.8861,1542
16.8889,1533
16.8917,1529
16.8944,1535
16.8972,1544
16.9000,1560
16.9028,1562
16.9056,1579
16.9083,1588
16.9111,1598
16.9139,1602
16.9167,1594
16.9194,1608
16.9222,1618
16.9250,1621
16.9278,1626
16.9306,1618
16.9333,1621
16.9361,1628
16.9389,1628
16.9417,1635
16.9444,1636
16.9472,1633
16.9500,1636
16.9528,1644
16.9556,1643
16.9583,1645
16.9611,1643
16.9639,1642
16.9667,1632
16.9694,1626
16.9722,1621
16.9750,1639
16.9778,1656
16.9806,1656
16.9833,1667
16.9861,1658
16.9889,1658
16.9917,1653
16.9944,1665
16.9972,1673
17.0000,1672
17.0028,1678
17.0056,1671
17.0083,1668
17.0111,1659
17.0139,1667
17.0167,1677
17.0194,1697
17.0222,1705
17.0250,1712
17.0278,1720
17.0306,1730
17.0333,1707
17.0361,1706
17.0389,1709
17.0417,1710
17.0444,1694
17.0472,1687
17.0500,1679
17.0528,1676
17.0556,1674
17.0583,1680
17.0611,1679
17.0639,1672
17.0667,1657
17.0694,1647
17.0722,1641
17.0750,1631
17.0778,1639
17.0806,1642
17.0833,1658
17.0861,1667
17.0889,1670
17.0917,1657
17.0944,1667
17.0972,1677
17.1000,1672
17.1028,1679
17.1056,1671
17.1083,1676
17.1111,1680
17.1139,1696
17.1167,1706
17.1194,1720
17.1222,1721
17.1250,1730
17.1278,1728
17.1306,1720
17.1333,1730
17.1361,1727
17.1389,1743
17.1417,1742
17.1444,1747
17.1472,1751
17.1500,1743
17.1528,1741
17.1556,1746
17.1583,1757
17.1611,1768
17.1639,1759
17.1667,1759
17.1694,1755
17.1722,1756
17.1750,1775
17.1778,1777
17.1806,1777
17.1833,1768
17.1861,1761
17.1889,1752
17.1917,1745
17.1944,1746
17.1972,1743
17.2000,1742
17.2028,1731
17.2056,1720
17.2083,1726
17.2111,1726
17.2139,1729
17.2167,1728
17.2194,1725
17.2222,1725
17.2250,1725
17.2278,1716
17.2306,1709
17.2333,1706
17.2361,1699
17.2389,1711
17.2417,1708
17.2444,1714
17.2472,1726
17.2500,1754
17.2528,1771
17.2556,1788
17.2583,1802
17.2611,1802
17.2639,1797
17.2667,1808
17.2694,1824
17.2722,1852
17.2750,1892
17.2778,1924
17.2806,1956
17.2833,1960
17.2861,1945
17.2889,1923
17.2917,1906
17.2944,1900
17.2972,1878
17.3000,1864
17.3028,1831
17.3056,1794
17.3083,1750
17.3111,1719
17.3139,1680
17.3167,1646
17.3194,1625
17.3222,1612
17.3250,1606
17.3278,1585
17.3306,1579
17.3333,1571
17.3361,1554
17.3389,1543
17.3417,1533
17.3444,1519
17.3472,1505
17.3500,1522
17.3528,1520
17.3556,1520
17.3583,1527
17.3611,1535
17.3639,1527
17.3667,1522
17.3694,1512
17.3722,1516
17.3750,1500
17.3778,1485
17.3806,1445
17.3833,1408
17.3861,1390
17.3889,1408
17.3917,1454
17.3944,1522
17.3972,1631
17.4000,1829
17.4028,2097
17.4056,2377
17.4083,2613
17.4111,2782
17.4139,2823
17.4167,2700
17.4194,2399
17.4222,1984
17.4250,1552
17.4278,1230
17.4306,1076
17.4333,1068
17.4361,1144
17.4389,1250
17.4417,1363
17.4444,1448
17.4472,1495
17.4500,1497
17.4528,1511
17.4556,1502
17.4583,1497
17.4611,1505
17.4639,1520
17.4667,1531
17.4694,1528
17.4722,1518
17.4750,1503
17.4778,1494
17.4806,1481
17.4833,1495
17.4861,1513
17.4889,1532
17.4917,1537
17.4944,1534
17.4972,1532
17.5000,1541
17.5028,1567
17.5056,1562
17.5083,1551
17.5111,1544
17.5139,1534
17.5167,1542
17.5194,1552
17.5222,1563
17.5250,1571
17.5278,1585
17.5306,1598
17.5333,1589
17.5361,1583
17.5389,1591
17.5417,1594
17.5444,1608
17.5472,1625
17.5500,1627
17.5528,1631
17.5556,1633
17.5583,1648
17.5611,1669
17.5639,1679
17.5667,1688
17.5694,1691
17.5722,1696
17.5750,1687
17.5778,1689
17.5806,1698
17.5833,1705
17.5861,1721
17.5889,1730
17.5917,1732
17.5944,1739
17.5972,1747
17.6000,1751
17.6028,1768
17.6056,1765
17.6083,1774
17.6111,1779
17.6139,1783
17.6167,1779
17.6194,1737
17.6222,1734
17.6250,1739
17.6278,1734
17.6306,1730
17.6333,1723
17.6361,1718
17.6389,1718
17.6417,1707
17.6444,1707
17.6472,1705
17.6500,1692
17.6528,1694
17.6556,1685
17.6583,1688
17.6611,1696
17.6639,1692
17.6667,1698
17.6694,1692
17.6722,1688
17.6750,1692
17.6778,1711
17.6806,1723
17.6833,1728
17.6861,1741
17.6889,1740
17.6917,1735
17.6944,1731
17.6972,1726
17.7000,1713
17.7028,1725
17.7056,1737
17.7083,1747
17.7111,1747
17.7139,1756
17.7167,1746
17.7194,1745
17.7222,1752
17.7250,1754
17.7278,1753
17.7306,1747
17.7333,1750
17.7361,1753
17.7389,1760
17.7417,1771
17.7444,1773
17.7472,1779
17.7500,1774
17.7528,1763
17.7556,1772
17.7583,1773
17.7611,1776
17.7639,1771
17.7667,1763
17.7694,1759
17.7722,1741
17.7750,1747
17.7778,1754
17.7806,1751
17.7833,1755
17.7861,1760
17.7889,1758
17.7917,1755
17.7944,1745
17.7972,1740
17.8000,1735
17.8028,1735
17.8056,1736
17.8083,1739
17.8111,1734
17.8139,1737
17.8167,1729
17.8194,1731
17.8222,1733
17.8250,1727
17.8278,1729
17.8306,1724
17.8333,1719
17.8361,1723
17.8389,1705
17.8417,1702
17.8444,1688
17.8472,1676
17.8500,1692
17.8528,1697
17.8556,1724
17.8583,1750
17.8611,1775
17.8639,1800
17.8667,1808
17.8694,1805
17.8722,1794
17.8750,1800
17.8778,1807
17.8806,1836
17.8833,1874
17.8861,1916
17.8889,1940
17.8917,1943
17.8944,1918
17.8972,1883
17.9000,1874
17.9028,1865
17.9056,1855
17.9083,1835
17.9111,1791
17.9139,1765
17.9167,1732
17.9194,1704
17.9222,1675
17.9250,1664
17.9278,1629
17.9306,1606
17.9333,1593
17.9361,1580
17.9389,1570
17.9417,1575
17.9444,1580
17.9472,1583
17.9500,1577
17.9528,1563
17.9556,1581
17.9583,1587
17.9611,1587
17.9639,1581
17.9667,1566
17.9694,1578
17.9722,1585
17.9750,1587
17.9778,1590
17.9806,1572
17.9833,1556
17.9861,1530
17.9889,1493
17.9917,1467
17.9944,1462
17.9972,1492
18.0000,1546
18.0028,1625
18.0056,1776
18.0083,2005
18.0111,2308
18.0139,2587
18.0167,2796
18.0194,2908
18.0222,2863
18.0250,2633
18.0278,2259
18.0306,1815
18.0333,1412
18.0361,1170
18.0389,1094
18.0417,1127
18.0444,1251
18.0472,1388
18.0500,1500
18.0528,1569
18.0556,1589
18.0583,1593
18.0611,1576
18.0639,1566
18.0667,1571
18.0694,1581
18.0722,1598
18.0750,1599
18.0778,1596
18.0806,1593
18.0833,1605
18.0861,1604
18.0889,1611
18.0917,1614
18.0944,1622
18.0972,1625
18.1000,1628
18.1028,1622
18.1056,1619
18.1083,1625
18.1111,1629
18.1139,1643
18.1167,1659
18.1194,1649
18.1222,1659
18.1250,1653
18.1278,1660
18.1306,1665
18.1333,1680
18.1361,1679
18.1389,1667
18.1417,1668
18.1444,1673
18.1472,1683
18.1500,1700
18.1528,1698
18.1556,1699
18.1583,1700
18.1611,1692
18.1639,1689
18.1667,1709
18.1694,1712
18.1722,1727
18.1750,1724
18.1778,1719
18.1806,1718
18.1833,1724
18.1861,1733
18.1889,1736
18.1917,1736
18.1944,1730
18.1972,1729
18.2000,1730
18.2028,1737
18.2056,1747
18.2083,1752
18.2111,1770
18.2139,1775
18.2167,1788
18.2194,1788
18.2222,1780
18.2250,1783
18.2278,1729
18.2306,1736
18.2333,1735
18.2361,1735
18.2389,1722
18.2417,1706
18.2444,1693
18.2472,1694
18.2500,1698
18.2528,1712
18.2556,1699
18.2583,1698
18.2611,1693
18.2639,1700
18.2667,1694
18.2694,1689
18.2722,1694
18.2750,1698
18.2778,1712
18.2806,1711
18.2833,1717
18.2861,1715
18.2889,1715
18.2917,1717
18.2944,1734
18.2972,1735
18.3000,1730
18.3028,1724
18.3056,1731
18.3083,1738
18.3111,1746
18.3139,1733
18.3167,1736
18.3194,1747
18.3222,1747
18.3250,1762
18.3278,1752
18.3306,1754
18.3333,1766
18.3361,1776
18.3389,1781
18.3417,1785
18.3444,1779
18.3472,1777
18.3500,1782
18.3528,1804
18.3556,1810
18.3583,1805
18.3611,1803
18.3639,1791
18.3667,1792
18.3694,1783
18.3722,1795
18.3750,1803
18.3778,1814
18.3806,1820
18.3833,1815
18.3861,1817
18.3889,1824
18.3917,1825
18.3944,1832
18.3972,1829
18.4000,1825
18.4028,1819
18.4056,1820
18.4083,1812
18.4111,1816
18.4139,1813
18.4167,1821
18.4194,1826
18.4222,1819
18.4250,1813
18.4278,1804
18.4306,1804
18.4333,1796
18.4361,1794
18.4389,1780
18.4417,1779
18.4444,1783
18.4472,1789
18.4500,1796
18.4528,1799
18.4556,1791
18.4583,1778
18.4611,1772
18.4639,1771
18.4667,1767
18.4694,1766
18.4722,1772
18.4750,1761
18.4778,1750
18.4806,1753
18.4833,1754
18.4861,1753
18.4889,1751
18.4917,1753
18.4944,1765
18.4972,1772
18.5000,1769
18.5028,1778
18.5056,1802
18.5083,1832
18.5111,1863
18.5139,1870
18.5167,1852
18.5194,1848
18.5222,1855
18.5250,1875
18.5278,1899
18.5306,1931
18.5333,1956
18.5361,1985
18.5389,1986
18.5417,1990
18.5444,1986
18.5472,1971
18.5500,1959
18.5528,1933
18.5556,1924
18.5583,1899
18.5611,1854
18.5639,1823
18.5667,1798
18.5694,1764
18.5722,1727
18.5750,1712
18.5778,1691
18.5806,1671
18.5833,1659
18.5861,1650
18.5889,1648
18.5917,1645
18.5944,1649
18.5972,1650
18.6000,1662
18.6028,1663
18.6056,1653
18.6083,1642
18.6111,1631
18.6139,1626
18.6167,1630
18.6194,1625
18.6222,1630
18.6250,1633
18.6278,1635
18.6306,1619
18.6333,1591
18.6361,1551
18.6389,1522
18.6417,1519
18.6444,1552
18.6472,1605
18.6500,1705
18.6528,1851
18.6556,2095
18.6583,2386
18.6611,2657
18.6639,2849
18.6667,2951
18.6694,2901
18.6722,2659
18.6750,2280
18.6778,1835
18.6806,1446
18.6833,1219
18.6861,1161
18.6889,1212
18.6917,1329
18.6944,1462
18.6972,1575
18.7000,1638
18.7028,1653
18.7056,1646
18.7083,1652
18.7111,1652
18.7139,1650
18.7167,1660
18.7194,1654
18.7222,1658
18.7250,1662
18.7278,1668
18.7306,1663
18.7333,1650
18.7361,1657
18.7389,1664
18.7417,1666
18.7444,1666
18.7472,1672
18.7500,1680
18.7528,1684
18.7556,1690
18.7583,1705
18.7611,1706
18.7639,1710
18.7667,1707
18.7694,1691
18.7722,1684
18.7750,1685
18.7778,1692
18.7806,1688
18.7833,1690
18.7861,1688
18.7889,1697
18.7917,1712
18.7944,1720
18.7972,1725
18.8000,1728
18.8028,1729
18.8056,1726
18.8083,1710
18.8111,1703
18.8139,1701
18.8167,1717
18.8194,1732
18.8222,1737
18.8250,1737
18.8278,1743
18.8306,1757
18.8333,1778
18.8361,1776
18.8389,1789
18.8417,1784
18.8444,1789
18.8472,1785
18.8500,1783
18.8528,1786
18.8556,1800
18.8583,1814
18.8611,1815
18.8639,1822
18.8667,1816
18.8694,1819
18.8722,1781
18.8750,1788
18.8778,1776
18.8806,1763
18.8833,1762
18.8861,1753
18.8889,1752
18.8917,1737
18.8944,1735
18.8972,1730
18.9000,1711
18.9028,1717
18.9056,1726
18.9083,1724
18.9111,1728
18.9139,1714
18.9167,1720
18.9194,1717
18.9222,1714
18.9250,1697
18.9278,1710
18.9306,1727
18.9333,1730
18.9361,1738
18.9389,1742
18.9417,1733
18.9444,1732
18.9472,1733
18.9500,1725
18.9528,1729
18.9556,1735
18.9583,1733
18.9611,1736
18.9639,1740
18.9667,1749
18.9694,1751
18.9722,1754
18.9750,1744
18.9778,1742
18.9806,1745
18.9833,1755
18.9861,1763
18.9889,1763
18.9917,1758
18.9944,1757
18.9972,1765
19.0000,1766
19.0028,1757
19.0056,1770
19.0083,1768
19.0111,1758
19.0139,1764
19.0167,1761
19.0194,1754
19.0222,1759
19.0250,1776
19.0278,1779
19.0306,1790
19.0333,1771
19.0361,1775
19.0389,1778
19.0417,1774
19.0444,1780
19.0472,1775
19.0500,1787
19.0528,1796
19.0556,1788
19.0583,1790
19.0611,1793
19.0639,1778
19.0667,1775
19.0694,1767
19.0722,1758
19.0750,1744
19.0778,1747
19.0806,1741
19.0833,1742
19.0861,1728
19.0889,1726
19.0917,1717
19.0944,1724
19.0972,1734
19.1000,1727
19.1028,1724
19.1056,1723
19.1083,1717
19.1111,1722
19.1139,1713
19.1167,1708
19.1194,1707
19.1222,1696
19.1250,1704
19.1278,1698
19.1306,1701
19.1333,1705
19.1361,1710
19.1389,1716
19.1417,1705
19.1444,1699
19.1472,1685
19.1500,1681
19.1528,1674
19.1556,1686
19.1583,1679
19.1611,1689
19.1639,1680
19.1667,1679
19.1694,1680
19.1722,1669
19.1750,1662
19.1778,1661
19.1806,1670
19.1833,1673
19.1861,1669
19.1889,1684
19.1917,1707
19.1944,1740
19.1972,1775
19.2000,1790
19.2028,1803
19.2056,1789
19.2083,1781
19.2111,1791
19.2139,1817
19.2167,1835
19.2194,1864
19.2222,1900
19.2250,1912
19.2278,1925
19.2306,1928
19.2333,1914
19.2361,1898
19.2389,1887
19.2417,1867
19.2444,1840
19.2472,1811
19.2500,1778
19.2528,1740
19.2556,1712
19.2583,1710
19.2611,1674
19.2639,1659
19.2667,1642
19.2694,1621
19.2722,1614
19.2750,1614
19.2778,1610
19.2806,1609
19.2833,1608
19.2861,1606
19.2889,1608
19.2917,1617
19.2944,1617
19.2972,1624
19.3000,1615
19.3028,1625
19.3056,1634
19.3083,1629
19.3111,1644
19.3139,1633
19.3167,1620
19.3194,1582
19.3222,1556
19.3250,1542
19.3278,1539
19.3306,1561
19.3333,1612
19.3361,1686
19.3389,1805
19.3417,1986
19.3444,2237
19.3472,2523
19.3500,2750
19.3528,2895
19.3556,2943
19.3583,2825
19.3611,2529
19.3639,2114
19.3667,1695
19.3694,1365
19.3722,1228
19.3750,1229
19.3778,1290
19.3806,1411
19.3833,1537
19.3861,1631
19.3889,1680
19.3917,1701
19.3944,1710
19.3972,1696
19.4000,1701
19.4028,1701
19.4056,1707
19.4083,1712
19.4111,1725
19.4139,1728
19.4167,1741
19.4194,1753
19.4222,1757
19.4250,1762
19.4278,1767
19.4306,1775
19.4333,1767
19.4361,1762
19.4389,1763
19.4417,1771
19.4444,1766
19.4472,1777
19.4500,1783
19.4528,1787
19.4556,1778
19.4583,1782
19.4611,1786
19.4639,1797
19.4667,1808
19.4694,1816
19.4722,1815
19.4750,1801
19.4778,1796
19.4806,1796
19.4833,1794
19.4861,1803
19.4889,1809
19.4917,1817
19.4944,1815
19.4972,1819
19.5000,1812
19.5028,1807
19.5056,1815
19.5083,1821
19.5111,1819
19.5139,1829
19.5167,1826
19.5194,1829
19.5222,1828
19.5250,1838
19.5278,1849
19.5306,1852
19.5333,1854
19.5361,1863
19.5389,1872
19.5417,1873
19.5444,1869
19.5472,1870
19.5500,1871
19.5528,1866
19.5556,1859
19.5583,1861
19.5611,1803
19.5639,1810
19.5667,1796
19.5694,1797
19.5722,1788
19.5750,1785
19.5778,1774
19.5806,1766
19.5833,1765
19.5861,1773
19.5889,1772
19.5917,1764
19.5944,1764
19.5972,1754
19.6000,1740
19.6028,1746
19.6056,1744
19.6083,1753
19.6111,1757
19.6139,1753
19.6167,1745
19.6194,1749
19.6222,1760
19.6250,1754
19.6278,1768
19.6306,1772
19.6333,1767
19.6361,1766
19.6389,1762
19.6417,1766
19.6444,1773
19.6472,1785
19.6500,1795
19.6528,1792
19.6556,1798
19.6583,1798
19.6611,1807
19.6639,1803
19.6667,1801
19.6694,1806
19.6722,1815
19.6750,1828
19.6778,1836
19.6806,1836
19.6833,1841
19.6861,1847
19.6889,1848
19.6917,1835
19.6944,1839
19.6972,1852
19.7000,1855
19.7028,1862
19.7056,1869
19.7083,1866
19.7111,1859
19.7139,1862
19.7167,1858
19.7194,1844
19.7222,1850
19.7250,1855
19.7278,1870
19.7306,1861
19.7333,1854
19.7361,1856
19.7389,1856
19.7417,1855
19.7444,1852
19.7472,1855
19.7500,1861
19.7528,1850
19.7556,1843
19.7583,1844
19.7611,1830
19.7639,1826
19.7667,1811
19.7694,1817
19.7722,1809
19.7750,1809
19.7778,1810
19.7806,1804
19.7833,1794
19.7861,1800
19.7889,1800
19.7917,1800
19.7944,1794
19.7972,1774
19.8000,1779
19.8028,1785
19.8056,1799
19.8083,1800
19.8111,1788
19.8139,1781
19.8167,1780
19.8194,1788
19.8222,1793
19.8250,1800
19.8278,1805
19.8306,1798
19.8333,1790
19.8361,1782
19.8389,1786
19.8417,1780
19.8444,1788
19.8472,1785
19.8500,1788
19.8528,1779
19.8556,1768
19.8583,1771
19.8611,1772
19.8639,1783
19.8667,1781
19.8694,1784
19.8722,1779
19.8750,1777
19.8778,1773
19.8806,1782
19.8833,1778
19.8861,1779
19.8889,1783
19.8917,1792
19.8944,1808
19.8972,1834
19.9000,1866
19.9028,1875
19.9056,1867
19.9083,1857
19.9111,1865
19.9139,1881
19.9167,1911
19.9194,1936
19.9222,1972
19.9250,1986
19.9278,1990
19.9306,1985
19.9333,1976
19.9361,1967
19.9389,1945
19.9417,1938
19.9444,1918
19.9472,1896
19.9500,1877
19.9528,1855
19.9556,1828
19.9583,1799
19.9611,1778
19.9639,1759
19.9667,1733
19.9694,1712
19.9722,1705
19.9750,1703
19.9778,1704
19.9806,1714
19.9833,1715
19.9861,1728
19.9889,1717
19.9917,1705
19.9944,1698
19.9972,1691
20.0000,1682
20.0028,1682
20.0056,1691
20.0083,1690
20.0111,1705
20.0139,1691
20.0167,1685
20.0194,1644
20.0222,1614
20.0250,1599
20.0278,1601
20.0306,1632
20.0333,1701
20.0361,1781
20.0389,1902
20.0417,2078
20.0444,2318
20.0472,2575
20.0500,2765
20.0528,2876
20.0556,2895
20.0583,2779
20.0611,2487
20.0639,2127
20.0667,1764
20.0694,1508
20.0722,1376
20.0750,1354
20.0778,1401
20.0806,1464
20.0833,1545
20.0861,1614
20.0889,1657
20.0917,1672
20.0944,1683
20.0972,1689
20.1000,1702
20.1028,1709
20.1056,1733
20.1083,1732
20.1111,1720
20.1139,1709
20.1167,1715
20.1194,1717
20.1222,1722
20.1250,1734
20.1278,1743
20.1306,1737
20.1333,1737
20.1361,1717
20.1389,1718
20.1417,1738
20.1444,1757
20.1472,1765
20.1500,1760
20.1528,1758
20.1556,1760
20.1583,1772
20.1611,1770
20.1639,1755
20.1667,1759
20.1694,1764
20.1722,1767
20.1750,1759
20.1778,1763
20.1806,1764
20.1833,1771
20.1861,1783
20.1889,1794
20.1917,1793
20.1944,1795
20.1972,1793
20.2000,1784
20.2028,1788
20.2056,1806
20.2083,1808
20.2111,1818
20.2139,1815
20.2167,1804
20.2194,1801
20.2222,1808
20.2250,1821
20.2278,1826
20.2306,1815
20.2333,1808
20.2361,1809
20.2389,1818
20.2417,1829
20.2444,1829
20.2472,1840
20.2500,1851
20.2528,1850
20.2556,1853
20.2583,1863
20.2611,1839
20.2639,1840
20.2667,1824
20.2694,1816
20.2722,1810
20.2750,1801
20.2778,1799
20.2806,1788
20.2833,1799
20.2861,1803
20.2889,1794
20.2917,1784
20.2944,1774
20.2972,1767
20.3000,1781
20.3028,1788
20.3056,1785
20.3083,1783
20.3111,1780
20.3139,1768
20.3167,1775
20.3194,1785
20.3222,1799
20.3250,1805
20.3278,1806
20.3306,1812
20.3333,1803
20.3361,1792
20.3389,1797
20.3417,1803
20.3444,1810
20.3472,1814
20.3500,1826
20.3528,1839
20.3556,1840
20.3583,1843
20.3611,1840
20.3639,1844
20.3667,1848
20.3694,1837
20.3722,1833
20.3750,1831
20.3778,1827
20.3806,1824
20.3833,1832
20.3861,1832
20.3889,1843
20.3917,1840
20.3944,1832
20.3972,1823
20.4000,1816
20.4028,1820
20.4056,1821
20.4083,1827
20.4111,1842
20.4139,1851
20.4167,1861
20.4194,1866
20.4222,1868
20.4250,1878
20.4278,1869
20.4306,1848
20.4333,1846
20.4361,1853
20.4389,1843
20.4417,1835
20.4444,1825
20.4472,1832
20.4500,1838
20.4528,1846
20.4556,1846
20.4583,1845
20.4611,1834
20.4639,1825
20.4667,1821
20.4694,1815
20.4722,1810
20.4750,1796
20.4778,1793
20.4806,1796
20.4833,1801
20.4861,1809
20.4889,1804
20.4917,1790
20.4944,1790
20.4972,1773
20.5000,1768
20.5028,1767
20.5056,1766
20.5083,1770
20.5111,1773
20.5139,1766
20.5167,1750
20.5194,1742
20.5222,1738
20.5250,1748
20.5278,1739
20.5306,1719
20.5333,1700
20.5361,1698
20.5389,1709
20.5417,1730
20.5444,1762
20.5472,1782
20.5500,1797
20.5528,1810
20.5556,1796
20.5583,1788
20.5611,1793
20.5639,1802
20.5667,1806
20.5694,1826
20.5722,1849
20.5750,1884
20.5778,1919
20.5806,1935
20.5833,1924
20.5861,1908
20.5889,1881
20.5917,1858
20.5944,1836
20.5972,1834
20.6000,1808
20.6028,1790
20.6056,1770
20.6083,1742
20.6111,1733
20.6139,1705
20.6167,1681
20.6194,1657
20.6222,1639
20.6250,1632
20.6278,1623
20.6306,1632
20.6333,1646
20.6361,1630
20.6389,1616
20.6417,1618
20.6444,1618
20.6472,1618
20.6500,1634
20.6528,1632
20.6556,1640
20.6583,1632
20.6611,1612
20.6639,1607
20.6667,1617
20.6694,1621
20.6722,1611
20.6750,1591
20.6778,1568
20.6806,1555
20.6833,1574
20.6861,1629
20.6889,1696
20.6917,1806
20.6944,1971
20.6972,2179
20.7000,2409
20.7028,2622
20.7056,2747
20.7083,2780
20.7111,2682
20.7139,2431
20.7167,2095
20.7194,1738
20.7222,1477
20.7250,1352
20.7278,1324
20.7306,1347
20.7333,1368
20.7361,1401
20.7389,1458
20.7417,1511
20.7444,1558
20.7472,1589
20.7500,1605
20.7528,1616
20.7556,1634
20.7583,1638
20.7611,1635
20.7639,1636
20.7667,1632
20.7694,1641
20.7722,1663
20.7750,1675
20.7778,1672
20.7806,1663
20.7833,1647
20.7861,1631
20.7889,1619
20.7917,1632
20.7944,1657
20.7972,1678
20.8000,1697
20.8028,1693
20.8056,1683
20.8083,1669
20.8111,1672
20.8139,1668
20.8167,1665
20.8194,1685
20.8222,1683
20.8250,1689
20.8278,1682
20.8306,1673
20.8333,1673
20.8361,1669
20.8389,1677
20.8417,1685
20.8444,1690
20.8472,1692
20.8500,1690
20.8528,1688
20.8556,1701
20.8583,1709
20.8611,1729
20.8639,1732
20.8667,1732
20.8694,1738
20.8722,1735
20.8750,1744
20.8778,1754
20.8806,1756
20.8833,1748
20.8861,1746
20.8889,1754
20.8917,1751
20.8944,1751
20.8972,1758
20.9000,1763
20.9028,1765
20.9056,1765
20.9083,1758
20.9111,1771
20.9139,1780
20.9167,1782
20.9194,1767
20.9222,1762
20.9250,1750
20.9278,1738
20.9306,1729
20.9333,1734
20.9361,1733
20.9389,1724
20.9417,1710
20.9444,1687
20.9472,1668
20.9500,1657
20.9528,1654
20.9556,1659
20.9583,1662
20.9611,1677
20.9639,1678
20.9667,1677
20.9694,1670
20.9722,1671
20.9750,1673
20.9778,1668
20.9806,1668
20.9833,1664
20.9861,1665
20.9889,1656
20.9917,1661
20.9944,1659
20.9972,1666
21.0000,1680
21.0028,1688
21.0056,1702
21.0083,1693
21.0111,1694
21.0139,1687
21.0167,1683
21.0194,1677
21.0222,1671
21.0250,1670
21.0278,1666
21.0306,1674
21.0333,1669
21.0361,1683
21.0389,1685
21.0417,1683
21.0444,1684
21.0472,1678
21.0500,1673
21.0528,1671
21.0556,1679
21.0583,1682
21.0611,1685
21.0639,1690
21.0667,1688
21.0694,1690
21.0722,1679
21.0750,1673
21.0778,1668
21.0806,1679
21.0833,1683
21.0861,1692
21.0889,1680
21.0917,1667
21.0944,1653
21.0972,1650
21.1000,1657
21.1028,1657
21.1056,1663
21.1083,1663
21.1111,1683
21.1139,1682
21.1167,1675
21.1194,1664
21.1222,1656
21.1250,1651
21.1278,1651
21.1306,1647
21.1333,1656
21.1361,1682
21.1389,1693
21.1417,1705
21.1444,1720
21.1472,1738
21.1500,1741
21.1528,1725
21.1556,1723
21.1583,1737
21.1611,1754
21.1639,1783
21.1667,1814
21.1694,1851
21.1722,1889
21.1750,1888
21.1778,1880
21.1806,1867
21.1833,1856
21.1861,1851
21.1889,1845
21.1917,1836
21.1944,1817
21.1972,1789
21.2000,1755
21.2028,1731
21.2056,1718
21.2083,1689
21.2111,1653
21.2139,1627
21.2167,1611
21.2194,1606
21.2222,1610
21.2250,1615
21.2278,1605
21.2306,1610
21.2333,1615
21.2361,1619
21.2389,1621
21.2417,1626
21.2444,1621
21.2472,1617
21.2500,1611
21.2528,1607
21.2556,1611
21.2583,1616
21.2611,1616
21.2639,1624
21.2667,1619
21.2694,1596
21.2722,1572
21.2750,1548
21.2778,1526
21.2806,1533
21.2833,1579
21.2861,1634
21.2889,1737
21.2917,1874
21.2944,2084
21.2972,2350
21.3000,2580
21.3028,2743
21.3056,2810
21.3083,2748
21.3111,2517
21.3139,2168
21.3167,1775
21.3194,1449
21.3222,1248
21.3250,1198
21.3278,1226
21.3306,1300
21.3333,1374
21.3361,1456
21.3389,1504
21.3417,1525
21.3444,1518
21.3472,1521
21.3500,1540
21.3528,1556
21.3556,1569
21.3583,1578
21.3611,1565
21.3639,1542
21.3667,1543
21.3694,1541
21.3722,1539
21.3750,1540
21.3778,1556
21.3806,1562
21.3833,1549
21.3861,1540
21.3889,1520
21.3917,1510
21.3944,1517
21.3972,1547
21.4000,1554
21.4028,1556
21.4056,1557
21.4083,1542
21.4111,1544
21.4139,1541
21.4167,1561
21.4194,1564
21.4222,1557
21.4250,1551
21.4278,1549
21.4306,1550
21.4333,1555
21.4361,1556
21.4389,1568
21.4417,1559
21.4444,1555
21.4472,1553
21.4500,1542
21.4528,1541
21.4556,1545
21.4583,1555
21.4611,1569
21.4639,1563
21.4667,1558
21.4694,1572
21.4722,1589
21.4750,1595
21.4778,1605
21.4806,1612
21.4833,1617
21.4861,1610
21.4889,1597
21.4917,1605
21.4944,1618
21.4972,1635
21.5000,1653
21.5028,1660
21.5056,1658
21.5083,1656
21.5111,1607
21.5139,1610
21.5167,1607
21.5194,1596
21.5222,1590
21.5250,1573
21.5278,1572
21.5306,1567
21.5333,1558
21.5361,1556
21.5389,1554
21.5417,1548
21.5444,1532
21.5472,1532
21.5500,1539
21.5528,1541
21.5556,1538
21.5583,1539
21.5611,1527
21.5639,1535
21.5667,1537
21.5694,1539
21.5722,1540
21.5750,1544
21.5778,1547
21.5806,1540
21.5833,1538
21.5861,1545
21.5889,1538
21.5917,1542
21.5944,1548
21.5972,1553
21.6000,1560
21.6028,1569
21.6056,1561
21.6083,1558
21.6111,1565
21.6139,1573
21.6167,1577
21.6194,1587
21.6222,1588
21.6250,1582
21.6278,1572
21.6306,1571
21.6333,1576
21.6361,1587
21.6389,1593
21.6417,1591
21.6444,1598
21.6472,1592
21.6500,1586
21.6528,1580
21.6556,1577
21.6583,1577
21.6611,1580
21.6639,1586
21.6667,1595
21.6694,1595
21.6722,1605
21.6750,1606
21.6778,1597
21.6806,1591
21.6833,1595
21.6861,1612
21.6889,1619
21.6917,1609
21.6944,1605
21.6972,1602
21.7000,1610
21.7028,1597
21.7056,1592
21.7083,1588
21.7111,1594
21.7139,1604
21.7167,1608
21.7194,1605
21.7222,1599
21.7250,1598
21.7278,1594
21.7306,1607
21.7333,1618
21.7361,1615
21.7389,1616
21.7417,1623
21.7444,1614
21.7472,1618
21.7500,1627
21.7528,1631
21.7556,1643
21.7583,1646
21.7611,1648
21.7639,1663
21.7667,1687
21.7694,1711
21.7722,1724
21.7750,1728
21.7778,1724
21.7806,1731
21.7833,1742
21.7861,1775
21.7889,1801
21.7917,1820
21.7944,1843
21.7972,1857
21.8000,1863
21.8028,1857
21.8056,1847
21.8083,1838
21.8111,1817
21.8139,1806
21.8167,1791
21.8194,1755
21.8222,1730
21.8250,1695
21.8278,1674
21.8306,1647
21.8333,1622
21.8361,1592
21.8389,1568
21.8417,1549
21.8444,1537
21.8472,1523
21.8500,1521
21.8528,1520
21.8556,1525
21.8583,1528
21.8611,1525
21.8639,1524
21.8667,1522
21.8694,1523
21.8722,1522
21.8750,1521
21.8778,1531
21.8806,1524
21.8833,1524
21.8861,1518
21.8889,1516
21.8917,1494
21.8944,1466
21.8972,1448
21.9000,1428
21.9028,1446
21.9056,1470
21.9083,1543
21.9111,1645
21.9139,1803
21.9167,2049
21.9194,2343
21.9222,2593
21.9250,2771
21.9278,2841
21.9306,2798
21.9333,2545
21.9361,2173
21.9389,1742
21.9417,1373
21.9444,1147
21.9472,1089
21.9500,1126
21.9528,1225
21.9556,1340
21.9583,1452
21.9611,1507
21.9639,1528
21.9667,1523
21.9694,1517
21.9722,1517
21.9750,1517
21.9778,1534
21.9806,1536
21.9833,1538
21.9861,1534
21.9889,1536
21.9917,1528
21.9944,1525
21.9972,1524
22.0000,1537
22.0028,1546
22.0056,1549
22.0083,1546
22.0111,1539
22.0139,1540
22.0167,1540
22.0194,1548
22.0222,1559
22.0250,1566
22.0278,1552
22.0306,1566
22.0333,1576
22.0361,1586
22.0389,1584
22.0417,1592
22.0444,1576
22.0472,1584
22.0500,1585
22.0528,1587
22.0556,1606
22.0583,1611
22.0611,1614
22.0639,1604
22.0667,1602
22.0694,1608
22.0722,1611
22.0750,1625
22.0778,1635
22.0806,1645
22.0833,1631
22.0861,1619
22.0889,1620
22.0917,1631
22.0944,1642
22.0972,1649
22.1000,1654
22.1028,1654
22.1056,1667
22.1083,1678
22.1111,1675
22.1139,1673
22.1167,1676
22.1194,1691
22.1222,1698
22.1250,1704
22.1278,1707
22.1306,1710
22.1333,1673
22.1361,1674
22.1389,1673
22.1417,1665
22.1444,1661
22.1472,1642
22.1500,1632
22.1528,1618
22.1556,1611
22.1583,1608
22.1611,1608
22.1639,1602
22.1667,1600
22.1694,1594
22.1722,1588
22.1750,1576
22.1778,1568
22.1806,1569
22.1833,1585
22.1861,1587
22.1889,1600
22.1917,1594
22.1944,1594
22.1972,1587
22.2000,1597
22.2028,1605
22.2056,1604
22.2083,1610
22.2111,1600
22.2139,1602
22.2167,1614
22.2194,1632
22.2222,1645
22.2250,1641
22.2278,1645
22.2306,1638
22.2333,1641
22.2361,1652
22.2389,1654
22.2417,1663
22.2444,1662
22.2472,1666
22.2500,1676
22.2528,1678
22.2556,1675
22.2583,1678
22.2611,1688
22.2639,1695
22.2667,1698
22.2694,1695
22.2722,1697
22.2750,1701
22.2778,1710
22.2806,1714
22.2833,1710
22.2861,1714
22.2889,1719
22.2917,1725
22.2944,1724
22.2972,1729
22.3000,1738
22.3028,1738
22.3056,1731
22.3083,1721
22.3111,1718
22.3139,1728
22.3167,1738
22.3194,1747
22.3222,1747
22.3250,1755
22.3278,1743
22.3306,1735
22.3333,1744
22.3361,1753
22.3389,1754
22.3417,1743
22.3444,1733
22.3472,1734
22.3500,1748
22.3528,1761
22.3556,1774
22.3583,1781
22.3611,1778
22.3639,1770
22.3667,1760
22.3694,1765
22.3722,1759
22.3750,1773
22.3778,1766
22.3806,1777
22.3833,1767
22.3861,1768
22.3889,1763
22.3917,1759
22.3944,1763
22.3972,1759
22.4000,1761
22.4028,1756
22.4056,1757
22.4083,1759
22.4111,1749
22.4139,1742
22.4167,1748
22.4194,1770
22.4222,1786
22.4250,1801
22.4278,1823
22.4306,1844
22.4333,1853
22.4361,1849
22.4389,1841
22.4417,1839
22.4444,1854
22.4472,1871
22.4500,1904
22.4528,1934
22.4556,1957
22.4583,1968
22.4611,1962
22.4639,1957
22.4667,1933
22.4694,1927
22.4722,1911
22.4750,1896
22.4778,1881
22.4806,1864
22.4833,1841
22.4861,1815
22.4889,1776
22.4917,1741
22.4944,1702
22.4972,1679
22.5000,1665
22.5028,1657
22.5056,1655
22.5083,1662
22.5111,1651
22.5139,1644
22.5167,1641
22.5194,1634
22.5222,1635
22.5250,1639
22.5278,1632
22.5306,1633
22.5333,1634
22.5361,1632
22.5389,1633
22.5417,1631
22.5444,1624
22.5472,1608
22.5500,1589
22.5528,1558
22.5556,1526
22.5583,1522
22.5611,1535
22.5639,1576
22.5667,1623
22.5694,1695
22.5722,1841
22.5750,2069
22.5778,2366
22.5806,2639
22.5833,2832
22.5861,2944
22.5889,2923
22.5917,2702
22.5944,2337
22.5972,1887
22.6000,1475
22.6028,1220
22.6056,1145
22.6083,1187
22.6111,1291
22.6139,1426
22.6167,1545
22.6194,1616
22.6222,1635
22.6250,1636
22.6278,1625
22.6306,1626
22.6333,1644
22.6361,1639
22.6389,1646
22.6417,1638
22.6444,1640
22.6472,1646
22.6500,1634
22.6528,1645
22.6556,1643
22.6583,1659
22.6611,1676
22.6639,1677
22.6667,1669
22.6694,1665
22.6722,1667
22.6750,1681
22.6778,1683
22.6806,1690
22.6833,1687
22.6861,1684
22.6889,1683
22.6917,1685
22.6944,1709
22.6972,1702
22.7000,1713
22.7028,1719
22.7056,1730
22.7083,1736
22.7111,1733
22.7139,1742
22.7167,1745
22.7194,1761
22.7222,1758
22.7250,1751
22.7278,1753
22.7306,1752
22.7333,1760
22.7361,1774
22.7389,1784
22.7417,1804
22.7444,1798
22.7472,1796
22.7500,1793
22.7528,1795
22.7556,1802
22.7583,1816
22.7611,1821
22.7639,1817
22.7667,1808
22.7694,1816
22.7722,1824
22.7750,1841
22.7778,1852
22.7806,1871
22.7833,1874
22.7861,1867
22.7889,1866
22.7917,1870
22.7944,1799
22.7972,1811
22.8000,1810
22.8028,1793
22.8056,1781
22.8083,1763
22.8111,1752
22.8139,1746
22.8167,1752
22.8194,1747
22.8222,1753
22.8250,1746
22.8278,1734
22.8306,1725
22.8333,1726
22.8361,1720
22.8389,1729
22.8417,1726
22.8444,1722
22.8472,1713
22.8500,1720
22.8528,1734
22.8556,1746
22.8583,1749
22.8611,1744
22.8639,1746
22.8667,1738
22.8694,1738
22.8722,1742
22.8750,1751
22.8778,1761
22.8806,1753
22.8833,1752
22.8861,1757
22.8889,1757
22.8917,1738
22.8944,1736
22.8972,1750
22.9000,1769
22.9028,1783
22.9056,1786
22.9083,1791
22.9111,1781
22.9139,1787
22.9167,1794
22.9194,1792
22.9222,1800
22.9250,1807
22.9278,1803
22.9306,1812
22.9333,1814
22.9361,1824
22.9389,1832
22.9417,1833
22.9444,1838
22.9472,1831
22.9500,1838
22.9528,1829
22.9556,1832
22.9583,1824
22.9611,1847
22.9639,1832
22.9667,1836
22.9694,1831
22.9722,1834
22.9750,1838
22.9778,1842
22.9806,1850
22.9833,1851
22.9861,1837
22.9889,1833
22.9917,1824
22.9944,1826
22.9972,1826
23.0000,1822
23.0028,1824
23.0056,1823
23.0083,1816
23.0111,1813
23.0139,1811
23.0167,1815
23.0194,1825
23.0222,1821
23.0250,1810
23.0278,1809
23.0306,1818
23.0333,1812
23.0361,1813
23.0389,1806
23.0417,1800
23.0444,1797
23.0472,1790
23.0500,1789
23.0528,1787
23.0556,1787
23.0583,1790
23.0611,1776
23.0639,1762
23.0667,1769
23.0694,1770
23.0722,1772
23.0750,1771
23.0778,1766
23.0806,1774
23.0833,1762
23.0861,1749
23.0889,1750
23.0917,1752
23.0944,1745
23.0972,1734
23.1000,1731
23.1028,1728
23.1056,1730
23.1083,1739
23.1111,1744
23.1139,1756
23.1167,1748
23.1194,1752
23.1222,1746
23.1250,1738
23.1278,1735
23.1306,1754
23.1333,1776
23.1361,1803
23.1389,1822
23.1417,1830
23.1444,1828
23.1472,1826
23.1500,1831
23.1528,1844
23.1556,1858
23.1583,1885
23.1611,1912
23.1639,1930
23.1667,1939
23.1694,1936
23.1722,1913
23.1750,1890
23.1778,1882
23.1806,1878
23.1833,1877
23.1861,1847
23.1889,1809
23.1917,1774
23.1944,1756
23.1972,1719
23.2000,1696
23.2028,1663
23.2056,1640
23.2083,1615
23.2111,1605
23.2139,1601
23.2167,1613
23.2194,1610
23.2222,1615
23.2250,1625
23.2278,1621
23.2306,1620
23.2333,1610
23.2361,1614
23.2389,1627
23.2417,1631
23.2444,1637
23.2472,1636
23.2500,1638
23.2528,1648
23.2556,1639
23.2583,1612
23.2611,1587
23.2639,1564
23.2667,1562
23.2694,1578
23.2722,1605
23.2750,1670
23.2778,1782
23.2806,1960
23.2833,2204
23.2861,2484
23.2889,2719
23.2917,2872
23.2944,2936
23.2972,2847
23.3000,2563
23.3028,2176
23.3056,1738
23.3083,1402
23.3111,1233
23.3139,1203
23.3167,1280
23.3194,1406
23.3222,1530
23.3250,1633
23.3278,1681
23.3306,1686
23.3333,1683
23.3361,1671
23.3389,1668
23.3417,1673
23.3444,1677
23.3472,1682
23.3500,1683
23.3528,1701
23.3556,1703
23.3583,1688
23.3611,1692
23.3639,1698
23.3667,1711
23.3694,1717
23.3722,1700
23.3750,1688
23.3778,1695
23.3806,1706
23.3833,1722
23.3861,1738
23.3889,1742
23.3917,1737
23.3944,1723
23.3972,1726
23.4000,1720
23.4028,1717
23.4056,1720
23.4083,1712
23.4111,1724
23.4139,1738
23.4167,1740
23.4194,1752
23.4222,1762
23.4250,1759
23.4278,1763
23.4306,1761
23.4333,1762
23.4361,1758
23.4389,1755
23.4417,1750
23.4444,1752
23.4472,1761
23.4500,1761
23.4528,1770
23.4556,1769
23.4583,1772
23.4611,1775
23.4639,1798
23.4667,1803
23.4694,1798
23.4722,1794
23.4750,1794
23.4778,1805
23.4806,1822
23.4833,1822
23.4861,1827
23.4889,1837
23.4917,1834
23.4944,1832
23.4972,1834
23.5000,1777
23.5028,1784
23.5056,1794
23.5083,1779
23.5111,1767
23.5139,1761
23.5167,1755
23.5194,1755
23.5222,1763
23.5250,1751
23.5278,1747
23.5306,1741
23.5333,1727
23.5361,1729
23.5389,1729
23.5417,1731
23.5444,1741
23.5472,1735
23.5500,1727
23.5528,1725
23.5556,1713
23.5583,1715
23.5611,1728
23.5639,1731
23.5667,1742
23.5694,1735
23.5722,1731
23.5750,1729
23.5778,1720
23.5806,1719
23.5833,1730
23.5861,1734
23.5889,1728
23.5917,1719
23.5944,1725
23.5972,1723
23.6000,1729
23.6028,1736
23.6056,1738
23.6083,1743
23.6111,1748
23.6139,1752
23.6167,1738
23.6194,1728
23.6222,1732
23.6250,1731
23.6278,1738
23.6306,1750
23.6333,1739
23.6361,1745
23.6389,1745
23.6417,1744
23.6444,1731
23.6472,1738
23.6500,1740
23.6528,1742
23.6556,1749
23.6583,1749
23.6611,1748
23.6639,1750
23.6667,1753
23.6694,1750
23.6722,1738
23.6750,1735
23.6778,1738
23.6806,1740
23.6833,1749
23.6861,1739
23.6889,1728
23.6917,1730
23.6944,1729
23.6972,1724
23.7000,1728
23.7028,1733
23.7056,1719
23.7083,1724
23.7111,1716
23.7139,1709
23.7167,1706
23.7194,1703
23.7222,1691
23.7250,1686
23.7278,1673
23.7306,1672
23.7333,1656
23.7361,1656
23.7389,1660
23.7417,1651
23.7444,1655
23.7472,1655
23.7500,1655
23.7528,1655
23.7556,1644
23.7583,1645
23.7611,1655
23.7639,1655
23.7667,1661
23.7694,1651
23.7722,1649
23.7750,1656
23.7778,1638
23.7806,1642
23.7833,1644
23.7861,1654
23.7889,1644
23.7917,1649
23.7944,1635
23.7972,1627
23.8000,1626
23.8028,1634
23.8056,1633
23.8083,1632
23.8111,1637
23.8139,1644
23.8167,1645
23.8194,1628
23.8222,1636
23.8250,1633
23.8278,1642
23.8306,1648
23.8333,1645
23.8361,1651
23.8389,1644
23.8417,1649
23.8444,1661
23.8472,1663
23.8500,1657
23.8528,1645
23.8556,1636
23.8583,1639
23.8611,1658
23.8639,1680
23.8667,1708
23.8694,1730
23.8722,1748
23.8750,1769
23.8778,1762
23.8806,1755
23.8833,1760
23.8861,1781
23.8889,1800
23.8917,1827
23.8944,1856
23.8972,1884
23.9000,1885
23.9028,1889
23.9056,1881
23.9083,1869
23.9111,1862
23.9139,1837
23.9167,1821
23.9194,1813
23.9222,1790
23.9250,1756
23.9278,1745
23.9306,1707
23.9333,1672
23.9361,1638
23.9389,1608
23.9417,1593
23.9444,1582
23.9472,1592
23.9500,1600
23.9528,1608
23.9556,1613
23.9583,1611
23.9611,1614
23.9639,1608
23.9667,1594
23.9694,1589
23.9722,1587
23.9750,1583
23.9778,1585
23.9806,1586
23.9833,1595
23.9861,1614
23.9889,1615
23.9917,1590
23.9944,1566
23.9972,1536
24.0000,1515
24.0028,1533
24.0056,1575
24.0083,1640
24.0111,1746
24.0139,1922
24.0167,2183
24.0194,2466
24.0222,2698
24.0250,2860
24.0278,2912
24.0306,2808
24.0333,2523
24.0361,2125
24.0389,1695
24.0417,1367
24.0444,1213
24.0472,1188
24.0500,1269
24.0528,1387
24.0556,1509
24.0583,1613
24.0611,1655
24.0639,1676
24.0667,1680
24.0694,1669
24.0722,1679
24.0750,1670
24.0778,1674
24.0806,1679
24.0833,1674
24.0861,1678
24.0889,1680
24.0917,1681
24.0944,1692
24.0972,1700
24.1000,1705
24.1028,1703
24.1056,1709
24.1083,1707
24.1111,1707
24.1139,1709
24.1167,1716
24.1194,1727
24.1222,1734
24.1250,1735
24.1278,1743
24.1306,1742
24.1333,1739
24.1361,1754
24.1389,1765
24.1417,1765
24.1444,1752
24.1472,1746
24.1500,1741
24.1528,1733
24.1556,1747
24.1583,1772
24.1611,1788
24.1639,1782
24.1667,1788
24.1694,1778
24.1722,1771
24.1750,1777
24.1778,1787
24.1806,1792
24.1833,1801
24.1861,1804
24.1889,1804
24.1917,1812
24.1944,1814
24.1972,1824
24.2000,1832
24.2028,1845
24.2056,1833
24.2083,1835
24.2111,1830
24.2139,1829
24.2167,1846
24.2194,1865
24.2222,1878
24.2250,1896
24.2278,1883
24.2306,1886
24.2333,1824
24.2361,1833
24.2389,1824
24.2417,1809
24.2444,1801
24.2472,1783
24.2500,1776
24.2528,1767
24.2556,1775
24.2583,1764
24.2611,1763
24.2639,1767
24.2667,1755
24.2694,1740
24.2722,1735
24.2750,1729
24.2778,1735
24.2806,1728
24.2833,1733
24.2861,1744
24.2889,1737
24.2917,1742
24.2944,1756
24.2972,1762
24.3000,1779
24.3028,1782
24.3056,1777
24.3083,1772
24.3111,1775
24.3139,1777
24.3167,1787
24.3194,1798
24.3222,1794
24.3250,1797
24.3278,1812
24.3306,1806
24.3333,1796
24.3361,1804
24.3389,1805
24.3417,1805
24.3444,1802
24.3472,1794
24.3500,1801
24.3528,1801
24.3556,1809
24.3583,1818
24.3611,1816
24.3639,1812
24.3667,1795
24.3694,1787
24.3722,1788
24.3750,1783
24.3778,1791
24.3806,1796
24.3833,1801
24.3861,1807
24.3889,1806
24.3917,1808
24.3944,1796
24.3972,1788
24.4000,1801
24.4028,1817
24.4056,1829
24.4083,1831
24.4111,1829
24.4139,1828
24.4167,1822
24.4194,1827
24.4222,1821
24.4250,1818
24.4278,1806
24.4306,1808
24.4333,1803
24.4361,1805
24.4389,1795
24.4417,1789
24.4444,1783
24.4472,1780
24.4500,1792
24.4528,1783
24.4556,1791
24.4583,1786
24.4611,1782
24.4639,1786
24.4667,1786
24.4694,1777
24.4722,1769
24.4750,1762
24.4778,1767
24.4806,1758
24.4833,1743
24.4861,1758
24.4889,1753
24.4917,1753
24.4944,1744
24.4972,1751
24.5000,1747
24.5028,1749
24.5056,1747
24.5083,1741
24.5111,1745
24.5139,1735
24.5167,1738
24.5194,1736
24.5222,1735
24.5250,1730
24.5278,1734
24.5306,1737
24.5333,1736
24.5361,1741
24.5389,1741
24.5417,1730
24.5444,1729
24.5472,1718
24.5500,1725
24.5528,1715
24.5556,1706
24.5583,1708
24.5611,1716
24.5639,1714
24.5667,1723
24.5694,1724
24.5722,1725
24.5750,1719
24.5778,1720
24.5806,1739
24.5833,1760
24.5861,1789
24.5889,1810
24.5917,1819
24.5944,1829
24.5972,1811
24.6000,1804
24.6028,1805
24.6056,1826
24.6083,1860
24.6111,1886
24.6139,1925
24.6167,1947
24.6194,1957
24.6222,1955
24.6250,1943
24.6278,1939
24.6306,1927
24.6333,1914
24.6361,1897
24.6389,1868
24.6417,1816
24.6444,1786
24.6472,1773
24.6500,1745
24.6528,1724
24.6556,1693
24.6583,1684
24.6611,1671
24.6639,1660
24.6667,1649
24.6694,1650
24.6722,1640
24.6750,1647
24.6778,1643
24.6806,1653
24.6833,1657
24.6861,1655
24.6889,1637
24.6917,1642
24.6944,1645
24.6972,1641
24.7000,1647
24.7028,1627
24.7056,1621
24.7083,1600
24.7111,1580
24.7139,1556
24.7167,1569
24.7194,1588
24.7222,1647
24.7250,1734
24.7278,1862
24.7306,2040
24.7333,2279
24.7361,2518
24.7389,2715
24.7417,2834
24.7444,2867
24.7472,2757
24.7500,2483
24.7528,2099
24.7556,1722
24.7583,1464
24.7611,1353
24.7639,1346
24.7667,1382
24.7694,1436
24.7722,1504
24.7750,1581
24.7778,1642
24.7806,1674
24.7833,1685
24.7861,1690
24.7889,1693
24.7917,1692
24.7944,1702
24.7972,1719
24.8000,1734
24.8028,1731
24.8056,1722
24.8083,1706
24.8111,1710
24.8139,1715
24.8167,1718
24.8194,1714
24.8222,1724
24.8250,1734
24.8278,1731
24.8306,1724
24.8333,1721
24.8361,1735
24.8389,1740
24.8417,1744
24.8444,1739
24.8472,1736
24.8500,1731
24.8528,1740
24.8556,1751
24.8583,1740
24.8611,1730
24.8639,1738
24.8667,1753
24.8694,1760
24.8722,1780
24.8750,1787
24.8778,1783
24.8806,1775
24.8833,1758
24.8861,1756
24.8889,1759
24.8917,1768
24.8944,1786
24.8972,1798
24.9000,1806
24.9028,1800
24.9056,1798
24.9083,1796
24.9111,1802
24.9139,1812
24.9167,1808
24.9194,1818
24.9222,1828
24.9250,1832
24.9278,1831
24.9306,1835
24.9333,1831
24.9361,1829
24.9389,1834
24.9417,1827
24.9444,1830
24.9472,1836
24.9500,1836
24.9528,1844
24.9556,1845
24.9583,1833
24.9611,1821
24.9639,1808
24.9667,1801
24.9694,1779
24.9722,1787
24.9750,1796
24.9778,1792
24.9806,1785
24.9833,1774
24.9861,1745
24.9889,1730
24.9917,1725
24.9944,1736
24.9972,1744
25.0000,1747
25.0028,1745
25.0056,1738
25.0083,1740
25.0111,1744
25.0139,1761
25.0167,1760
25.0194,1761
25.0222,1774
25.0250,1783
25.0278,1784
25.0306,1768
25.0333,1774
25.0361,1789
25.0389,1795
25.0417,1793
25.0444,1798
25.0472,1799
25.0500,1795
25.0528,1781
25.0556,1780
25.0583,1787
25.0611,1799
25.0639,1796
25.0667,1791
25.0694,1792
25.0722,1797
25.0750,1798
25.0778,1798
25.0806,1795
25.0833,1794
25.0861,1793
25.0889,1791
25.0917,1805
25.0944,1811
25.0972,1811
25.1000,1817
25.1028,1816
25.1056,1811
25.1083,1813
25.1111,1809
25.1139,1810
25.1167,1809
25.1194,1799
25.1222,1791
25.1250,1797
25.1278,1797
25.1306,1789
25.1333,1794
25.1361,1783
25.1389,1782
25.1417,1772
25.1444,1773
25.1472,1762
25.1500,1760
25.1528,1753
25.1556,1767
25.1583,1759
25.1611,1757
25.1639,1747
25.1667,1734
25.1694,1735
25.1722,1740
25.1750,1734
25.1778,1735
25.1806,1725
25.1833,1712
25.1861,1711
25.1889,1712
25.1917,1711
25.1944,1713
25.1972,1701
25.2000,1704
25.2028,1727
25.2056,1742
25.2083,1760
25.2111,1777
25.2139,1790
25.2167,1795
25.2194,1791
25.2222,1766
25.2250,1752
25.2278,1753
25.2306,1776
25.2333,1810
25.2361,1841
25.2389,1878
25.2417,1899
25.2444,1895
25.2472,1894
25.2500,1876
25.2528,1862
25.2556,1842
25.2583,1840
25.2611,1823
25.2639,1807
25.2667,1792
25.2694,1763
25.2722,1730
25.2750,1692
25.2778,1668
25.2806,1653
25.2833,1624
25.2861,1612
25.2889,1605
25.2917,1603
25.2944,1607
25.2972,1609
25.3000,1607
25.3028,1608
25.3056,1608
25.3083,1600
25.3111,1597
25.3139,1592
25.3167,1575
25.3194,1580
25.3222,1575
25.3250,1589
25.3278,1586
25.3306,1586
25.3333,1583
25.3361,1568
25.3389,1545
25.3417,1521
25.3444,1508
25.3472,1521
25.3500,1571
25.3528,1656
25.3556,1781
25.3583,1964
25.3611,2204
25.3639,2446
25.3667,2642
25.3694,2765
25.3722,2781
25.3750,2675
25.3778,2404
25.3806,2055
25.3833,1703
25.3861,1429
25.3889,1294
25.3917,1269
25.3944,1300
25.3972,1355
25.4000,1401
25.4028,1461
25.4056,1498
25.4083,1538
25.4111,1567
25.4139,1577
25.4167,1600
25.4194,1616
25.4222,1635
25.4250,1633
25.4278,1622
25.4306,1609
25.4333,1601
25.4361,1585
25.4389,1592
25.4417,1609
25.4444,1630
25.4472,1633
25.4500,1615
25.4528,1612
25.4556,1609
25.4583,1615
25.4611,1625
25.4639,1627
25.4667,1635
25.4694,1638
25.4722,1639
25.4750,1634
25.4778,1629
25.4806,1636
25.4833,1634
25.4861,1631
25.4889,1639
25.4917,1635
25.4944,1636
25.4972,1638
25.5000,1643
25.5028,1645
25.5056,1655
25.5083,1660
25.5111,1663
25.5139,1673
25.5167,1670
25.5194,1678
25.5222,1683
25.5250,1686
25.5278,1679
25.5306,1673
25.5333,1668
25.5361,1668
25.5389,1666
25.5417,1685
25.5444,1689
25.5472,1698
25.5500,1694
25.5528,1692
25.5556,1688
25.5583,1690
25.5611,1689
25.5639,1695
25.5667,1689
25.5694,1694
25.5722,1692
25.5750,1705
25.5778,1741
25.5806,1748
25.5833,1752
25.5861,1747
25.5889,1736
25.5917,1716
25.5944,1701
25.5972,1697
25.6000,1689
25.6028,1699
25.6056,1699
25.6083,1695
25.6111,1680
25.6139,1674
25.6167,1671
25.6194,1671
25.6222,1678
25.6250,1674
25.6278,1676
25.6306,1679
25.6333,1675
25.6361,1685
25.6389,1693
25.6417,1687
25.6444,1684
25.6472,1690
25.6500,1691
25.6528,1700
25.6556,1704
25.6583,1711
25.6611,1703
25.6639,1698
25.6667,1692
25.6694,1700
25.6722,1709
25.6750,1718
25.6778,1715
25.6806,1713
25.6833,1723
25.6861,1709
25.6889,1696
25.6917,1692
25.6944,1693
25.6972,1703
25.7000,1711
25.7028,1711
25.7056,1690
25.7083,1689
25.7111,1675
25.7139,1665
25.7167,1681
25.7194,1687
25.7222,1704
25.7250,1711
25.7278,1699
25.7306,1684
25.7333,1690
25.7361,1686
25.7389,1686
25.7417,1685
25.7444,1678
25.7472,1669
25.7500,1665
25.7528,1667
25.7556,1667
25.7583,1658
25.7611,1671
25.7639,1677
25.7667,1677
25.7694,1684
25.7722,1674
25.7750,1674
25.7778,1681
25.7806,1677
25.7833,1676
25.7861,1670
25.7889,1688
25.7917,1709
25.7944,1728
25.7972,1749
25.8000,1748
25.8028,1741
25.8056,1733
25.8083,1734
25.8111,1741
25.8139,1757
25.8167,1798
25.8194,1836
25.8222,1857
25.8250,1878
25.8278,1882
25.8306,1875
25.8333,1856
25.8361,1831
25.8389,1801
25.8417,1788
25.8444,1776
25.8472,1747
25.8500,1710
25.8528,1676
25.8556,1653
25.8583,1621
25.8611,1590
25.8639,1558
25.8667,1547
25.8694,1540
25.8722,1538
25.8750,1552
25.8778,1544
25.8806,1544
25.8833,1539
25.8861,1526
25.8889,1514
25.8917,1501
25.8944,1513
25.8972,1512
25.9000,1536
25.9028,1539
25.9056,1534
25.9083,1515
25.9111,1511
25.9139,1507
25.9167,1501
25.9194,1476
25.9222,1446
25.9250,1426
25.9278,1419
25.9306,1455
25.9333,1507
25.9361,1589
25.9389,1707
25.9417,1893
25.9444,2127
25.9472,2379
25.9500,2595
25.9528,2732
25.9556,2752
25.9583,2637
25.9611,2365
25.9639,2008
25.9667,1615
25.9694,1321
25.9722,1176
25.9750,1159
25.9778,1208
25.9806,1271
25.9833,1346
25.9861,1411
25.9889,1478
25.9917,1503
25.9944,1500
25.9972,1517
26.0000,1537
26.0028,1552
26.0056,1571
26.0083,1557
26.0111,1556
26.0139,1548
26.0167,1534
26.0194,1543
26.0222,1568
26.0250,1592
26.0278,1597
26.0306,1579
26.0333,1562
26.0361,1549
26.0389,1546
26.0417,1566
26.0444,1579
26.0472,1592
26.0500,1597
26.0528,1587
26.0556,1595
26.0583,1611
26.0611,1620
26.0639,1629
26.0667,1632
26.0694,1621
26.0722,1616
26.0750,1601
26.0778,1593
26.0806,1603
26.0833,1608
26.0861,1622
26.0889,1621
26.0917,1617
26.0944,1624
26.0972,1624
26.1000,1622
26.1028,1620
26.1056,1622
26.1083,1642
26.1111,1638
26.1139,1651
26.1167,1644
26.1194,1649
26.1222,1660
26.1250,1679
26.1278,1681
26.1306,1673
26.1333,1666
26.1361,1657
26.1389,1653
26.1417,1665
26.1444,1678
26.1472,1696
26.1500,1710
26.1528,1700
26.1556,1699
26.1583,1695
26.1611,1696
26.1639,1702
26.1667,1694
26.1694,1685
26.1722,1671
26.1750,1664
26.1778,1649
26.1806,1642
26.1833,1632
26.1861,1638
26.1889,1630
26.1917,1625
26.1944,1619
26.1972,1607
26.2000,1609
26.2028,1603
26.2056,1611
26.2083,1604
26.2111,1607
26.2139,1605
26.2167,1600
26.2194,1609
26.2222,1623
26.2250,1619
26.2278,1613
26.2306,1622
26.2333,1627
26.2361,1625
26.2389,1620
26.2417,1609
26.2444,1611
26.2472,1615
26.2500,1616
26.2528,1612
26.2556,1612
26.2583,1624
26.2611,1618
26.2639,1622
26.2667,1629
26.2694,1638
26.2722,1639
26.2750,1649
26.2778,1648
26.2806,1648
26.2833,1651
26.2861,1662
26.2889,1663
26.2917,1656
26.2944,1650
26.2972,1640
26.3000,1646
26.3028,1651
26.3056,1652
26.3083,1650
26.3111,1646
26.3139,1639
26.3167,1636
26.3194,1648
26.3222,1651
26.3250,1663
26.3278,1677
26.3306,1681
26.3333,1680
26.3361,1670
26.3389,1654
26.3417,1655
26.3444,1653
26.3472,1653
26.3500,1655
26.3528,1656
26.3556,1654
26.3583,1652
26.3611,1660
26.3639,1658
26.3667,1656
26.3694,1648
26.3722,1652
26.3750,1672
26.3778,1692
26.3806,1711
26.3833,1728
26.3861,1747
26.3889,1738
26.3917,1721
26.3944,1722
26.3972,1744
26.4000,1767
26.4028,1799
26.4056,1833
26.4083,1854
