Tiempo(s),Valor_ADC
0.0028,1675
0.0056,1666
0.0083,1661
0.0111,1677
0.0139,1499
0.0167,1501
0.0194,1499
0.0222,1489
0.0250,1469
0.0278,1450
0.0306,1432
0.0333,1439
0.0361,1438
0.0389,1452
0.0417,1448
0.0444,1440
0.0472,1428
0.0500,1430
0.0528,1441
0.0556,1449
0.0583,1460
0.0611,1468
0.0639,1459
0.0667,1453
0.0694,1451
0.0722,1463
0.0750,1472
0.0778,1482
0.0806,1478
0.0833,1477
0.0861,1468
0.0889,1466
0.0917,1479
0.0944,1481
0.0972,1490
0.1000,1503
0.1028,1497
0.1056,1494
0.1083,1487
0.1111,1492
0.1139,1502
0.1167,1509
0.1194,1518
0.1222,1525
0.1250,1520
0.1278,1521
0.1306,1519
0.1333,1529
0.1361,1521
0.1389,1536
0.1417,1527
0.1444,1519
0.1472,1510
0.1500,1504
0.1528,1528
0.1556,1535
0.1583,1528
0.1611,1524
0.1639,1515
0.1667,1496
0.1694,1495
0.1722,1496
0.1750,1504
0.1778,1514
0.1806,1520
0.1833,1521
0.1861,1518
0.1889,1507
0.1917,1506
0.1944,1515
0.1972,1517
0.2000,1525
0.2028,1522
0.2056,1516
0.2083,1516
0.2111,1520
0.2139,1531
0.2167,1530
0.2194,1543
0.2222,1530
0.2250,1525
0.2278,1518
0.2306,1524
0.2333,1525
0.2361,1528
0.2389,1547
0.2417,1537
0.2444,1533
0.2472,1530
0.2500,1544
0.2528,1540
0.2556,1549
0.2583,1558
0.2611,1553
0.2639,1551
0.2667,1544
0.2694,1533
0.2722,1534
0.2750,1527
0.2778,1542
0.2806,1556
0.2833,1579
0.2861,1618
0.2889,1653
0.2917,1686
0.2944,1715
0.2972,1735
0.3000,1736
0.3028,1734
0.3056,1752
0.3083,1775
0.3111,1828
0.3139,1883
0.3167,1931
0.3194,1973
0.3222,1994
0.3250,1989
0.3278,1976
0.3306,1971
0.3333,1957
0.3361,1942
0.3389,1894
0.3417,1839
0.3444,1762
0.3472,1683
0.3500,1601
0.3528,1528
0.3556,1481
0.3583,1463
0.3611,1456
0.3639,1452
0.3667,1451
0.3694,1465
0.3722,1462
0.3750,1455
0.3778,1439
0.3806,1425
0.3833,1439
0.3861,1438
0.3889,1446
0.3917,1449
0.3944,1446
0.3972,1454
0.4000,1464
0.4028,1461
0.4056,1453
0.4083,1447
0.4111,1455
0.4139,1461
0.4167,1471
0.4194,1471
0.4222,1455
0.4250,1418
0.4278,1357
0.4306,1315
0.4333,1309
0.4361,1337
0.4389,1417
0.4417,1545
0.4444,1718
0.4472,1916
0.4500,2113
0.4528,2297
0.4556,2450
0.4583,2597
0.4611,2742
0.4639,2919
0.4667,2983
0.4694,2752
0.4722,2272
0.4750,1731
0.4778,1231
0.4806,876
0.4833,682
0.4861,628
0.4889,702
0.4917,877
0.4944,1085
0.4972,1253
0.5000,1386
0.5028,1444
0.5056,1467
0.5083,1474
0.5111,1482
0.5139,1502
0.5167,1501
0.5194,1514
0.5222,1508
0.5250,1500
0.5278,1494
0.5306,1511
0.5333,1523
0.5361,1556
0.5389,1566
0.5417,1564
0.5444,1549
0.5472,1547
0.5500,1540
0.5528,1555
0.5556,1577
0.5583,1591
0.5611,1601
0.5639,1595
0.5667,1597
0.5694,1602
0.5722,1608
0.5750,1617
0.5778,1636
0.5806,1635
0.5833,1629
0.5861,1625
0.5889,1632
0.5917,1649
0.5944,1667
0.5972,1681
0.6000,1684
0.6028,1682
0.6056,1675
0.6083,1675
0.6111,1694
0.6139,1711
0.6167,1713
0.6194,1729
0.6222,1719
0.6250,1718
0.6278,1728
0.6306,1737
0.6333,1765
0.6361,1784
0.6389,1801
0.6417,1809
0.6444,1808
0.6472,1802
0.6500,1816
0.6528,1818
0.6556,1821
0.6583,1833
0.6611,1847
0.6639,1844
0.6667,1848
0.6694,1842
0.6722,1677
0.6750,1693
0.6778,1683
0.6806,1665
0.6833,1640
0.6861,1630
0.6889,1618
0.6917,1628
0.6944,1628
0.6972,1633
0.7000,1620
0.7028,1614
0.7056,1605
0.7083,1601
0.7111,1601
0.7139,1611
0.7167,1621
0.7194,1622
0.7222,1632
0.7250,1615
0.7278,1612
0.7306,1611
0.7333,1631
0.7361,1637
0.7389,1639
0.7417,1644
0.7444,1633
0.7472,1631
0.7500,1630
0.7528,1640
0.7556,1650
0.7583,1651
0.7611,1654
0.7639,1648
0.7667,1638
0.7694,1637
0.7722,1644
0.7750,1650
0.7778,1657
0.7806,1644
0.7833,1652
0.7861,1645
0.7889,1643
0.7917,1647
0.7944,1647
0.7972,1653
0.8000,1644
0.8028,1638
0.8056,1630
0.8083,1624
0.8111,1623
0.8139,1620
0.8167,1622
0.8194,1630
0.8222,1631
0.8250,1625
0.8278,1624
0.8306,1622
0.8333,1631
0.8361,1630
0.8389,1630
0.8417,1617
0.8444,1605
0.8472,1604
0.8500,1608
0.8528,1609
0.8556,1614
0.8583,1615
0.8611,1616
0.8639,1613
0.8667,1606
0.8694,1609
0.8722,1605
0.8750,1600
0.8778,1606
0.8806,1605
0.8833,1602
0.8861,1595
0.8889,1585
0.8917,1589
0.8944,1598
0.8972,1596
0.9000,1587
0.9028,1579
0.9056,1573
0.9083,1575
0.9111,1572
0.9139,1584
0.9167,1589
0.9194,1593
0.9222,1596
0.9250,1584
0.9278,1586
0.9306,1583
0.9333,1578
0.9361,1583
0.9389,1583
0.9417,1592
0.9444,1585
0.9472,1588
0.9500,1606
0.9528,1631
0.9556,1665
0.9583,1694
0.9611,1724
0.9639,1741
0.9667,1757
0.9694,1767
0.9722,1775
0.9750,1778
0.9778,1810
0.9806,1854
0.9833,1877
0.9861,1906
0.9889,1945
0.9917,1961
0.9944,1976
0.9972,1988
1.0000,1992
1.0028,1983
1.0056,1958
1.0083,1927
1.0111,1870
1.0139,1821
1.0167,1749
1.0194,1671
1.0222,1608
1.0250,1552
1.0278,1523
1.0306,1517
1.0333,1502
1.0361,1508
1.0389,1507
1.0417,1504
1.0444,1490
1.0472,1482
1.0500,1480
1.0528,1479
1.0556,1484
1.0583,1485
1.0611,1484
1.0639,1488
1.0667,1493
1.0694,1501
1.0722,1500
1.0750,1508
1.0778,1510
1.0806,1507
1.0833,1510
1.0861,1507
1.0889,1510
1.0917,1507
1.0944,1488
1.0972,1434
1.1000,1381
1.1028,1348
1.1056,1358
1.1083,1410
1.1111,1531
1.1139,1712
1.1167,1898
1.1194,2100
1.1222,2293
1.1250,2454
1.1278,2596
1.1306,2743
1.1333,2907
1.1361,3014
1.1389,2871
1.1417,2447
1.1444,1920
1.1472,1395
1.1500,1004
1.1528,760
1.1556,665
1.1583,713
1.1611,873
1.1639,1069
1.1667,1258
1.1694,1386
1.1722,1469
1.1750,1507
1.1778,1517
1.1806,1528
1.1833,1523
1.1861,1534
1.1889,1544
1.1917,1538
1.1944,1529
1.1972,1527
1.2000,1529
1.2028,1546
1.2056,1565
1.2083,1571
1.2111,1574
1.2139,1563
1.2167,1557
1.2194,1567
1.2222,1566
1.2250,1581
1.2278,1591
1.2306,1594
1.2333,1595
1.2361,1590
1.2389,1595
1.2417,1603
1.2444,1618
1.2472,1637
1.2500,1642
1.2528,1647
1.2556,1634
1.2583,1630
1.2611,1630
1.2639,1641
1.2667,1655
1.2694,1663
1.2722,1662
1.2750,1660
1.2778,1667
1.2806,1665
1.2833,1683
1.2861,1699
1.2889,1723
1.2917,1726
1.2944,1724
1.2972,1718
1.3000,1716
1.3028,1742
1.3056,1756
1.3083,1767
1.3111,1775
1.3139,1787
1.3167,1781
1.3194,1783
1.3222,1790
1.3250,1806
1.3278,1819
1.3306,1820
1.3333,1834
1.3361,1834
1.3389,1829
1.3417,1678
1.3444,1681
1.3472,1672
1.3500,1658
1.3528,1643
1.3556,1620
1.3583,1608
1.3611,1618
1.3639,1620
1.3667,1634
1.3694,1631
1.3722,1627
1.3750,1620
1.3778,1615
1.3806,1622
1.3833,1629
1.3861,1628
1.3889,1635
1.3917,1629
1.3944,1629
1.3972,1632
1.4000,1636
1.4028,1649
1.4056,1656
1.4083,1659
1.4111,1652
1.4139,1645
1.4167,1648
1.4194,1652
1.4222,1652
1.4250,1659
1.4278,1664
1.4306,1675
1.4333,1670
1.4361,1673
1.4389,1677
1.4417,1682
1.4444,1687
1.4472,1688
1.4500,1678
1.4528,1677
1.4556,1664
1.4583,1660
1.4611,1667
1.4639,1675
1.4667,1686
1.4694,1686
1.4722,1676
1.4750,1663
1.4778,1660
1.4806,1656
1.4833,1656
1.4861,1657
1.4889,1651
1.4917,1653
1.4944,1649
1.4972,1642
1.5000,1642
1.5028,1658
1.5056,1656
1.5083,1651
1.5111,1640
1.5139,1637
1.5167,1625
1.5194,1631
1.5222,1629
1.5250,1632
1.5278,1632
1.5306,1641
1.5333,1638
1.5361,1628
1.5389,1618
1.5417,1628
1.5444,1629
1.5472,1638
1.5500,1638
1.5528,1633
1.5556,1627
1.5583,1617
1.5611,1621
1.5639,1616
1.5667,1624
1.5694,1624
1.5722,1615
1.5750,1622
1.5778,1623
1.5806,1633
1.5833,1637
1.5861,1631
1.5889,1633
1.5917,1627
1.5944,1630
1.5972,1622
1.6000,1625
1.6028,1639
1.6056,1641
1.6083,1643
1.6111,1633
1.6139,1630
1.6167,1623
1.6194,1620
1.6222,1623
1.6250,1624
1.6278,1616
1.6306,1629
1.6333,1620
1.6361,1627
1.6389,1620
1.6417,1622
1.6444,1624
1.6472,1629
1.6500,1625
1.6528,1619
1.6556,1627
1.6583,1628
1.6611,1640
1.6639,1658
1.6667,1694
1.6694,1729
1.6722,1750
1.6750,1780
1.6778,1791
1.6806,1792
1.6833,1777
1.6861,1766
1.6889,1778
1.6917,1821
1.6944,1859
1.6972,1892
1.7000,1929
1.7028,1953
1.7056,1955
1.7083,1942
1.7111,1923
1.7139,1878
1.7167,1841
1.7194,1787
1.7222,1727
1.7250,1673
1.7278,1613
1.7306,1579
1.7333,1557
1.7361,1563
1.7389,1561
1.7417,1566
1.7444,1578
1.7472,1577
1.7500,1577
1.7528,1571
1.7556,1560
1.7583,1562
1.7611,1564
1.7639,1559
1.7667,1555
1.7694,1556
1.7722,1558
1.7750,1557
1.7778,1549
1.7806,1555
1.7833,1564
1.7861,1569
1.7889,1565
1.7917,1567
1.7944,1549
1.7972,1512
1.8000,1462
1.8028,1427
1.8056,1407
1.8083,1427
1.8111,1491
1.8139,1616
1.8167,1789
1.8194,1979
1.8222,2162
1.8250,2333
1.8278,2474
1.8306,2607
1.8333,2739
1.8361,2873
1.8389,2873
1.8417,2666
1.8444,2278
1.8472,1853
1.8500,1469
1.8528,1129
1.8556,913
1.8583,815
1.8611,823
1.8639,924
1.8667,1077
1.8694,1233
1.8722,1347
1.8750,1428
1.8778,1482
1.8806,1500
1.8833,1518
1.8861,1537
1.8889,1559
1.8917,1552
1.8944,1518
1.8972,1501
1.9000,1485
1.9028,1488
1.9056,1490
1.9083,1506
1.9111,1522
1.9139,1515
1.9167,1506
1.9194,1497
1.9222,1484
1.9250,1491
1.9278,1505
1.9306,1523
1.9333,1524
1.9361,1521
1.9389,1520
1.9417,1519
1.9444,1541
1.9472,1552
1.9500,1552
1.9528,1550
1.9556,1547
1.9583,1537
1.9611,1530
1.9639,1546
1.9667,1563
1.9694,1572
1.9722,1563
1.9750,1541
1.9778,1519
1.9806,1517
1.9833,1541
1.9861,1565
1.9889,1592
1.9917,1609
1.9944,1608
1.9972,1602
2.0000,1587
2.0028,1605
2.0056,1626
2.0083,1638
2.0111,1648
2.0139,1649
2.0167,1648
2.0194,1653
2.0222,1668
2.0250,1681
2.0278,1697
2.0306,1696
2.0333,1683
2.0361,1678
2.0389,1689
2.0417,1709
2.0444,1536
2.0472,1552
2.0500,1525
2.0528,1511
2.0556,1496
2.0583,1484
2.0611,1480
2.0639,1483
2.0667,1484
2.0694,1496
2.0722,1491
2.0750,1469
2.0778,1471
2.0806,1461
2.0833,1457
2.0861,1460
2.0889,1455
2.0917,1468
2.0944,1461
2.0972,1465
2.1000,1461
2.1028,1472
2.1056,1481
2.1083,1483
2.1111,1489
2.1139,1482
2.1167,1489
2.1194,1486
2.1222,1475
2.1250,1489
2.1278,1504
2.1306,1521
2.1333,1517
2.1361,1500
2.1389,1495
2.1417,1499
2.1444,1520
2.1472,1523
2.1500,1526
2.1528,1538
2.1556,1542
2.1583,1542
2.1611,1547
2.1639,1548
2.1667,1553
2.1694,1558
2.1722,1558
2.1750,1552
2.1778,1554
2.1806,1561
2.1833,1581
2.1861,1587
2.1889,1589
2.1917,1589
2.1944,1598
2.1972,1603
2.2000,1614
2.2028,1614
2.2056,1621
2.2083,1631
2.2111,1635
2.2139,1635
2.2167,1636
2.2194,1645
2.2222,1658
2.2250,1672
2.2278,1679
2.2306,1679
2.2333,1674
2.2361,1670
2.2389,1679
2.2417,1693
2.2444,1699
2.2472,1714
2.2500,1717
2.2528,1712
2.2556,1705
2.2583,1713
2.2611,1723
2.2639,1741
2.2667,1762
2.2694,1785
2.2722,1781
2.2750,1781
2.2778,1773
2.2806,1783
2.2833,1790
2.2861,1810
2.2889,1817
2.2917,1829
2.2944,1835
2.2972,1844
2.3000,1848
2.3028,1866
2.3056,1874
2.3083,1888
2.3111,1889
2.3139,1877
2.3167,1893
2.3194,1896
2.3222,1909
2.3250,1922
2.3278,1938
2.3306,1943
2.3333,1959
2.3361,1981
2.3389,2017
2.3417,2063
2.3444,2094
2.3472,2142
2.3500,2166
2.3528,2170
2.3556,2169
2.3583,2176
2.3611,2190
2.3639,2234
2.3667,2295
2.3694,2334
2.3722,2362
2.3750,2386
2.3778,2386
2.3806,2393
2.3833,2388
2.3861,2381
2.3889,2350
2.3917,2302
2.3944,2252
2.3972,2203
2.4000,2157
2.4028,2120
2.4056,2095
2.4083,2081
2.4111,2088
2.4139,2102
2.4167,2110
2.4194,2123
2.4222,2129
2.4250,2132
2.4278,2134
2.4306,2145
2.4333,2150
2.4361,2150
2.4389,2155
2.4417,2171
2.4444,2180
2.4472,2197
2.4500,2206
2.4528,2209
2.4556,2215
2.4583,2224
2.4611,2235
2.4639,2245
2.4667,2258
2.4694,2254
2.4722,2223
2.4750,2175
2.4778,2133
2.4806,2129
2.4833,2159
2.4861,2251
2.4889,2399
2.4917,2592
2.4944,2811
2.4972,3025
2.5000,3186
2.5028,3334
2.5056,3356
2.5083,3359
2.5111,3368
2.5139,3356
2.5167,3358
2.5194,3258
2.5222,2866
2.5250,2379
2.5278,1979
2.5306,1734
2.5333,1648
2.5361,1707
2.5389,1846
2.5417,2032
2.5444,2218
2.5472,2364
2.5500,2443
2.5528,2480
2.5556,2477
2.5583,2467
2.5611,2463
2.5639,2482
2.5667,2500
2.5694,2507
2.5722,2515
2.5750,2514
2.5778,2510
2.5806,2514
2.5833,2524
2.5861,2543
2.5889,2566
2.5917,2582
2.5944,2570
2.5972,2564
2.6000,2569
2.6028,2585
2.6056,2599
2.6083,2616
2.6111,2632
2.6139,2630
2.6167,2630
2.6194,2634
2.6222,2645
2.6250,2662
2.6278,2671
2.6306,2686
2.6333,2680
2.6361,2679
2.6389,2675
2.6417,2688
2.6444,2709
2.6472,2728
2.6500,2751
2.6528,2749
2.6556,2748
2.6583,2747
2.6611,2755
2.6639,2774
2.6667,2794
2.6694,2813
2.6722,2813
2.6750,2826
2.6778,2830
2.6806,2846
2.6833,2862
2.6861,2882
2.6889,2900
2.6917,2905
2.6944,2894
2.6972,2887
2.7000,2886
2.7028,2892
2.7056,2910
2.7083,2931
2.7111,2936
2.7139,2942
2.7167,2938
2.7194,2937
2.7222,2759
2.7250,2749
2.7278,2762
2.7306,2744
2.7333,2722
2.7361,2703
2.7389,2686
2.7417,2685
2.7444,2679
2.7472,2690
2.7500,2698
2.7528,2683
2.7556,2670
2.7583,2675
2.7611,2679
2.7639,2687
2.7667,2694
2.7694,2682
2.7722,2674
2.7750,2657
2.7778,2644
2.7806,2654
2.7833,2669
2.7861,2679
2.7889,2683
2.7917,2678
2.7944,2663
2.7972,2649
2.8000,2647
2.8028,2644
2.8056,2650
2.8083,2660
2.8111,2654
2.8139,2644
2.8167,2638
2.8194,2627
2.8222,2629
2.8250,2622
2.8278,2614
2.8306,2607
2.8333,2599
2.8361,2599
2.8389,2602
2.8417,2602
2.8444,2607
2.8472,2591
2.8500,2588
2.8528,2580
2.8556,2574
2.8583,2568
2.8611,2567
2.8639,2570
2.8667,2580
2.8694,2567
2.8722,2555
2.8750,2541
2.8778,2541
2.8806,2528
2.8833,2530
2.8861,2537
2.8889,2535
2.8917,2522
2.8944,2504
2.8972,2488
2.9000,2473
2.9028,2477
2.9056,2469
2.9083,2457
2.9111,2451
2.9139,2448
2.9167,2442
2.9194,2436
2.9222,2430
2.9250,2440
2.9278,2431
2.9306,2426
2.9333,2425
2.9361,2414
2.9389,2408
2.9417,2408
2.9444,2403
2.9472,2410
2.9500,2410
2.9528,2407
2.9556,2387
2.9583,2376
2.9611,2375
2.9639,2375
2.9667,2365
2.9694,2366
2.9722,2367
2.9750,2351
2.9778,2340
2.9806,2338
2.9833,2339
2.9861,2349
2.9889,2364
2.9917,2394
2.9944,2398
2.9972,2423
3.0000,2423
3.0028,2447
3.0056,2455
3.0083,2458
3.0111,2468
3.0139,2480
3.0167,2494
3.0194,2504
3.0222,2521
3.0250,2544
3.0278,2556
3.0306,2580
3.0333,2568
3.0361,2550
3.0389,2522
3.0417,2484
3.0444,2421
3.0472,2362
3.0500,2298
3.0528,2244
3.0556,2202
3.0583,2160
3.0611,2140
3.0639,2121
3.0667,2097
3.0694,2098
3.0722,2088
3.0750,2080
3.0778,2066
3.0806,2065
3.0833,2053
3.0861,2053
3.0889,2048
3.0917,2037
3.0944,2034
3.0972,2028
3.1000,2021
3.1028,2019
3.1056,2015
3.1083,2013
3.1111,2010
3.1139,2005
3.1167,1998
3.1194,1992
3.1222,1982
3.1250,1971
3.1278,1948
3.1306,1902
3.1333,1855
3.1361,1828
3.1389,1841
3.1417,1901
3.1444,1991
3.1472,2142
3.1500,2323
3.1528,2507
3.1556,2663
3.1583,2784
3.1611,2886
3.1639,3024
3.1667,3149
3.1694,3212
3.1722,3098
3.1750,2811
3.1778,2425
3.1806,2059
3.1833,1761
3.1861,1498
3.1889,1312
3.1917,1211
3.1944,1213
3.1972,1283
3.2000,1397
3.2028,1507
3.2056,1607
3.2083,1673
3.2111,1718
3.2139,1763
3.2167,1798
3.2194,1829
3.2222,1855
3.2250,1876
3.2278,1886
3.2306,1877
3.2333,1878
3.2361,1977
3.2389,2151
3.2417,2281
3.2444,2254
3.2472,2057
3.2500,1800
3.2528,1606
3.2556,1547
3.2583,1552
3.2611,1587
3.2639,1617
3.2667,1648
3.2694,1672
3.2722,1683
3.2750,1706
3.2778,1721
3.2806,1716
3.2833,1715
3.2861,1730
3.2889,1742
3.2917,1759
3.2944,1763
3.2972,1758
3.3000,1741
3.3028,1737
3.3056,1722
3.3083,1722
3.3111,1734
3.3139,1746
3.3167,1748
3.3194,1738
3.3222,1745
3.3250,1742
3.3278,1745
3.3306,1750
3.3333,1756
3.3361,1760
3.3389,1758
3.3417,1744
3.3444,1749
3.3472,1748
3.3500,1756
3.3528,1772
3.3556,1780
3.3583,1779
3.3611,1787
3.3639,1785
3.3667,1787
3.3694,1799
3.3722,1793
3.3750,1571
3.3778,1576
3.3806,1540
3.3833,1511
3.3861,1497
3.3889,1487
3.3917,1473
3.3944,1471
3.3972,1464
3.4000,1455
3.4028,1439
3.4056,1432
3.4083,1429
3.4111,1442
3.4139,1452
3.4167,1451
3.4194,1447
3.4222,1439
3.4250,1426
3.4278,1423
3.4306,1430
3.4333,1433
3.4361,1447
3.4389,1438
3.4417,1428
3.4444,1423
3.4472,1415
3.4500,1411
3.4528,1409
3.4556,1411
3.4583,1423
3.4611,1409
3.4639,1400
3.4667,1393
3.4694,1389
3.4722,1395
3.4750,1395
3.4778,1403
3.4806,1396
3.4833,1382
3.4861,1381
3.4889,1381
3.4917,1386
3.4944,1391
3.4972,1387
3.5000,1384
3.5028,1378
3.5056,1374
3.5083,1378
3.5111,1382
3.5139,1394
3.5167,1385
3.5194,1380
3.5222,1372
3.5250,1373
3.5278,1368
3.5306,1377
3.5333,1374
3.5361,1382
3.5389,1379
3.5417,1364
3.5444,1358
3.5472,1351
3.5500,1360
3.5528,1363
3.5556,1364
3.5583,1356
3.5611,1358
3.5639,1362
3.5667,1348
3.5694,1352
3.5722,1361
3.5750,1359
3.5778,1349
3.5806,1334
3.5833,1327
3.5861,1321
3.5889,1315
3.5917,1320
3.5944,1324
3.5972,1308
3.6000,1308
3.6028,1299
3.6056,1302
3.6083,1307
3.6111,1304
3.6139,1303
3.6167,1309
3.6194,1309
3.6222,1309
3.6250,1317
3.6278,1350
3.6306,1381
3.6333,1409
3.6361,1424
3.6389,1441
3.6417,1450
3.6444,1449
3.6472,1479
3.6500,1520
3.6528,1566
3.6556,1612
3.6583,1632
3.6611,1635
3.6639,1635
3.6667,1638
3.6694,1643
3.6722,1642
3.6750,1630
3.6778,1611
3.6806,1569
3.6833,1514
3.6861,1450
3.6889,1369
3.6917,1298
3.6944,1233
3.6972,1189
3.7000,1168
3.7028,1161
3.7056,1162
3.7083,1166
3.7111,1166
3.7139,1168
3.7167,1163
3.7194,1154
3.7222,1147
3.7250,1132
3.7278,1132
3.7306,1135
3.7333,1136
3.7361,1136
3.7389,1133
3.7417,1133
3.7444,1135
3.7472,1141
3.7500,1154
3.7528,1149
3.7556,1146
3.7583,1148
3.7611,1137
3.7639,1131
3.7667,1116
3.7694,1062
3.7722,1009
3.7750,970
3.7778,976
3.7806,1017
3.7833,1120
3.7861,1269
3.7889,1449
3.7917,1638
3.7944,1812
3.7972,1969
3.8000,2105
3.8028,2243
3.8056,2381
3.8083,2507
3.8111,2448
3.8139,2141
3.8167,1688
3.8194,1219
3.8222,809
3.8250,509
3.8278,344
3.8306,305
3.8333,406
3.8361,559
3.8389,751
3.8417,903
3.8444,1017
3.8472,1079
3.8500,1110
3.8528,1115
3.8556,1124
3.8583,1136
3.8611,1138
3.8639,1139
3.8667,1130
3.8694,1120
3.8722,1133
3.8750,1150
3.8778,1170
3.8806,1184
3.8833,1182
3.8861,1181
3.8889,1174
3.8917,1178
3.8944,1185
3.8972,1191
3.9000,1206
3.9028,1211
3.9056,1204
3.9083,1206
3.9111,1205
3.9139,1220
3.9167,1225
3.9194,1237
3.9222,1247
3.9250,1240
3.9278,1231
3.9306,1241
3.9333,1248
3.9361,1262
3.9389,1277
3.9417,1284
3.9444,1296
3.9472,1300
3.9500,1311
3.9528,1314
3.9556,1325
3.9583,1342
3.9611,1354
3.9639,1352
3.9667,1351
3.9694,1359
3.9722,1366
3.9750,1381
3.9778,1394
3.9806,1417
3.9833,1432
3.9861,1431
3.9889,1434
3.9917,1438
3.9944,1455
3.9972,1466
4.0000,1480
4.0028,1492
4.0056,1493
4.0083,1491
4.0111,1490
4.0139,1321
4.0167,1330
4.0194,1313
4.0222,1296
4.0250,1284
4.0278,1271
4.0306,1266
4.0333,1276
4.0361,1270
4.0389,1272
4.0417,1264
4.0444,1254
4.0472,1243
4.0500,1247
4.0528,1249
4.0556,1266
4.0583,1280
4.0611,1287
4.0639,1290
4.0667,1272
4.0694,1270
4.0722,1265
4.0750,1272
4.0778,1292
4.0806,1303
4.0833,1297
4.0861,1301
4.0889,1292
4.0917,1296
4.0944,1298
4.0972,1304
4.1000,1311
4.1028,1311
4.1056,1306
4.1083,1304
4.1111,1307
4.1139,1311
4.1167,1314
4.1194,1329
4.1222,1327
4.1250,1319
4.1278,1319
4.1306,1311
4.1333,1314
4.1361,1328
4.1389,1328
4.1417,1341
4.1444,1337
4.1472,1334
4.1500,1332
4.1528,1331
4.1556,1337
4.1583,1343
4.1611,1345
4.1639,1344
4.1667,1332
4.1694,1325
4.1722,1329
4.1750,1342
4.1778,1338
4.1806,1338
4.1833,1332
4.1861,1328
4.1889,1330
4.1917,1338
4.1944,1344
4.1972,1351
4.2000,1346
4.2028,1341
4.2056,1340
4.2083,1332
4.2111,1329
4.2139,1330
4.2167,1330
4.2194,1329
4.2222,1332
4.2250,1327
4.2278,1330
4.2306,1329
4.2333,1330
4.2361,1337
4.2389,1340
4.2417,1337
4.2444,1332
4.2472,1342
4.2500,1334
4.2528,1341
4.2556,1341
4.2583,1346
4.2611,1342
4.2639,1345
4.2667,1347
4.2694,1339
4.2722,1339
4.2750,1350
4.2778,1368
4.2806,1391
4.2833,1422
4.2861,1462
4.2889,1481
4.2917,1506
4.2944,1528
4.2972,1525
4.3000,1524
4.3028,1516
4.3056,1536
4.3083,1565
4.3111,1606
4.3139,1652
4.3167,1688
4.3194,1706
4.3222,1703
4.3250,1694
4.3278,1670
4.3306,1635
4.3333,1603
4.3361,1559
4.3389,1509
4.3417,1456
4.3444,1413
4.3472,1358
4.3500,1325
4.3528,1310
4.3556,1303
4.3583,1307
4.3611,1299
4.3639,1308
4.3667,1308
4.3694,1313
4.3722,1313
4.3750,1308
4.3778,1302
4.3806,1306
4.3833,1312
4.3861,1315
4.3889,1320
4.3917,1327
4.3944,1336
4.3972,1336
4.4000,1330
4.4028,1334
4.4056,1331
4.4083,1339
4.4111,1340
4.4139,1343
4.4167,1326
4.4194,1291
4.4222,1244
4.4250,1188
4.4278,1163
4.4306,1203
4.4333,1287
4.4361,1433
4.4389,1612
4.4417,1806
4.4444,1998
4.4472,2144
4.4500,2284
4.4528,2419
4.4556,2578
4.4583,2722
4.4611,2706
4.4639,2426
4.4667,2010
4.4694,1546
4.4722,1116
4.4750,802
4.4778,622
4.4806,570
4.4833,647
4.4861,798
4.4889,980
4.4917,1141
4.4944,1263
4.4972,1326
4.5000,1360
4.5028,1370
4.5056,1380
4.5083,1391
4.5111,1397
4.5139,1384
4.5167,1378
4.5194,1368
4.5222,1367
4.5250,1379
4.5278,1388
4.5306,1387
4.5333,1384
4.5361,1392
4.5389,1391
4.5417,1390
4.5444,1394
4.5472,1412
4.5500,1419
4.5528,1416
4.5556,1416
4.5583,1420
4.5611,1428
4.5639,1434
4.5667,1437
4.5694,1460
4.5722,1465
4.5750,1478
4.5778,1473
4.5806,1473
4.5833,1473
4.5861,1481
4.5889,1490
4.5917,1508
4.5944,1513
4.5972,1503
4.6000,1515
4.6028,1514
4.6056,1526
4.6083,1539
4.6111,1552
4.6139,1556
4.6167,1554
4.6194,1546
4.6222,1549
4.6250,1571
4.6278,1584
4.6306,1605
4.6333,1611
4.6361,1621
4.6389,1622
4.6417,1634
4.6444,1641
4.6472,1652
4.6500,1662
4.6528,1670
4.6556,1677
4.6583,1677
4.6611,1686
4.6639,1687
4.6667,1519
4.6694,1530
4.6722,1517
4.6750,1509
4.6778,1485
4.6806,1481
4.6833,1483
4.6861,1485
4.6889,1488
4.6917,1476
4.6944,1465
4.6972,1456
4.7000,1450
4.7028,1447
4.7056,1464
4.7083,1474
4.7111,1489
4.7139,1478
4.7167,1470
4.7194,1473
4.7222,1471
4.7250,1474
4.7278,1480
4.7306,1494
4.7333,1484
4.7361,1488
4.7389,1490
4.7417,1490
4.7444,1491
4.7472,1502
4.7500,1505
4.7528,1503
4.7556,1503
4.7583,1501
4.7611,1495
4.7639,1501
4.7667,1512
4.7694,1512
4.7722,1515
4.7750,1508
4.7778,1500
4.7806,1495
4.7833,1491
4.7861,1500
4.7889,1502
4.7917,1502
4.7944,1509
4.7972,1507
4.8000,1494
4.8028,1491
4.8056,1485
4.8083,1496
4.8111,1499
4.8139,1494
4.8167,1487
4.8194,1475
4.8222,1468
4.8250,1474
4.8278,1472
4.8306,1492
4.8333,1482
4.8361,1486
4.8389,1481
4.8417,1466
4.8444,1466
4.8472,1473
4.8500,1477
4.8528,1479
4.8556,1473
4.8583,1482
4.8611,1482
4.8639,1486
4.8667,1504
4.8694,1529
4.8722,1547
4.8750,1568
4.8778,1584
4.8806,1609
4.8833,1633
4.8861,1672
4.8889,1713
4.8917,1751
4.8944,1778
4.8972,1801
4.9000,1823
4.9028,1860
4.9056,1918
4.9083,2003
4.9111,2091
4.9139,2169
4.9167,2236
4.9194,2314
4.9222,2392
4.9250,2507
4.9278,2667
4.9306,2874
4.9333,3127
4.9361,3346
4.9389,3352
4.9417,3373
4.9444,3378
4.9472,3373
4.9500,3383
4.9528,3380
4.9556,3360
4.9583,3362
4.9611,3376
4.9639,3386
4.9667,3377
4.9694,3380
4.9722,3373
4.9750,3368
4.9778,3367
4.9806,3361
4.9833,3369
4.9861,3257
4.9889,2899
4.9917,2514
4.9944,2196
4.9972,1957
5.0000,1777
5.0028,1630
5.0056,1472
5.0083,1290
5.0111,1123
5.0139,1010
5.0167,909
5.0194,816
5.0222,733
5.0250,660
5.0278,605
5.0306,571
5.0333,553
5.0361,525
5.0389,502
5.0417,492
5.0444,480
5.0472,467
5.0500,455
5.0528,438
5.0556,423
5.0583,404
5.0611,389
5.0639,378
5.0667,379
5.0694,370
5.0722,346
5.0750,328
5.0778,303
5.0806,285
5.0833,260
5.0861,245
5.0889,241
5.0917,228
5.0944,208
5.0972,183
5.1000,160
5.1028,132
5.1056,116
5.1083,94
5.1111,85
5.1139,69
5.1167,69
5.1194,106
5.1222,126
5.1250,162
5.1278,195
5.1306,241
5.1333,285
5.1361,349
5.1389,394
5.1417,456
5.1444,514
5.1472,580
5.1500,645
5.1528,716
5.1556,794
5.1583,860
5.1611,932
5.1639,996
5.1667,1072
5.1694,1151
5.1722,1217
5.1750,1283
5.1778,1345
5.1806,1387
5.1833,1441
5.1861,1482
5.1889,1729
5.1917,1729
5.1944,1745
5.1972,1742
5.2000,1739
5.2028,1739
5.2056,1737
5.2083,1739
5.2111,1741
5.2139,1748
5.2167,1753
5.2194,1761
5.2222,1766
5.2250,1771
5.2278,1773
5.2306,1783
5.2333,1784
5.2361,1787
5.2389,1785
5.2417,1787
5.2444,1781
5.2472,1781
5.2500,1791
5.2528,1788
5.2556,1794
5.2583,1801
5.2611,1801
5.2639,1800
5.2667,1794
5.2694,1796
5.2722,1792
5.2750,1791
5.2778,1789
5.2806,1794
5.2833,1790
5.2861,1795
5.2889,1798
5.2917,1798
5.2944,1806
5.2972,1792
5.3000,1787
5.3028,1782
5.3056,1784
5.3083,1790
5.3111,1795
5.3139,1801
5.3167,1796
5.3194,1790
5.3222,1783
5.3250,1773
5.3278,1762
5.3306,1754
5.3333,1769
5.3361,1774
5.3389,1770
5.3417,1773
5.3444,1767
5.3472,1774
5.3500,1773
5.3528,1772
5.3556,1772
5.3583,1768
5.3611,1765
5.3639,1766
5.3667,1760
5.3694,1762
5.3722,1758
5.3750,1757
5.3778,1757
5.3806,1751
5.3833,1749
5.3861,1750
5.3889,1743
5.3917,1752
5.3944,1756
5.3972,1755
5.4000,1754
5.4028,1743
5.4056,1746
5.4083,1743
5.4111,1741
5.4139,1753
5.4167,1743
5.4194,1742
5.4222,1732
5.4250,1723
5.4278,1723
5.4306,1720
5.4333,1721
5.4361,1716
5.4389,1724
5.4417,1719
5.4444,1716
5.4472,1719
5.4500,1720
5.4528,1708
5.4556,1721
5.4583,1712
5.4611,1707
5.4639,1709
5.4667,1698
5.4694,1701
5.4722,1701
5.4750,1702
5.4778,1707
5.4806,1698
5.4833,1708
5.4861,1703
5.4889,1701
5.4917,1700
5.4944,1708
5.4972,1703
5.5000,1709
5.5028,1702
5.5056,1711
5.5083,1705
5.5111,1697
5.5139,1710
5.5167,1705
5.5194,1700
5.5222,1704
5.5250,1703
5.5278,1694
5.5306,1702
5.5333,1704
5.5361,1703
5.5389,1699
5.5417,1702
5.5444,1700
5.5472,1695
5.5500,1691
5.5528,1695
5.5556,1691
5.5583,1691
5.5611,1688
5.5639,1686
5.5667,1683
5.5694,1683
5.5722,1677
5.5750,1678
5.5778,1679
5.5806,1669
5.5833,1662
5.5861,1662
5.5889,1658
5.5917,1657
5.5944,1656
5.5972,1653
5.6000,1653
5.6028,1649
5.6056,1656
5.6083,1654
5.6111,1661
5.6139,1655
5.6167,1677
5.6194,1689
5.6222,1721
5.6250,1754
5.6278,1782
5.6306,1796
5.6333,1777
5.6361,1765
5.6389,1751
5.6417,1752
5.6444,1785
5.6472,1827
5.6500,1851
5.6528,1880
5.6556,1888
5.6583,1891
5.6611,1873
5.6639,1849
5.6667,1816
5.6694,1767
5.6722,1732
5.6750,1693
5.6778,1653
5.6806,1609
5.6833,1568
5.6861,1546
5.6889,1532
5.6917,1529
5.6944,1526
5.6972,1524
5.7000,1530
5.7028,1529
5.7056,1518
5.7083,1515
5.7111,1522
5.7139,1516
5.7167,1511
5.7194,1503
5.7222,1497
5.7250,1492
5.7278,1493
5.7306,1489
5.7333,1489
5.7361,1488
5.7389,1480
5.7417,1474
5.7444,1468
5.7472,1444
5.7500,1421
5.7528,1367
5.7556,1323
5.7583,1314
5.7611,1324
5.7639,1398
5.7667,1512
5.7694,1678
5.7722,1867
5.7750,2047
5.7778,2208
5.7806,2352
5.7833,2489
5.7861,2630
5.7889,2801
5.7917,2849
5.7944,2650
5.7972,2267
5.8000,1820
5.8028,1395
5.8056,1062
5.8083,836
5.8111,731
5.8139,739
5.8167,831
5.8194,963
5.8222,1090
5.8250,1203
5.8278,1262
5.8306,1309
5.8333,1326
5.8361,1343
5.8389,1358
5.8417,1367
5.8444,1374
5.8472,1360
5.8500,1349
5.8528,1345
5.8556,1348
5.8583,1361
5.8611,1373
5.8639,1383
5.8667,1376
5.8694,1367
5.8722,1359
5.8750,1363
5.8778,1390
5.8806,1405
5.8833,1413
5.8861,1412
5.8889,1408
5.8917,1401
5.8944,1404
5.8972,1419
5.9000,1424
5.9028,1441
5.9056,1424
5.9083,1427
5.9111,1423
5.9139,1428
5.9167,1446
5.9194,1463
5.9222,1489
5.9250,1489
5.9278,1479
5.9306,1468
5.9333,1477
5.9361,1486
5.9389,1503
5.9417,1522
5.9444,1526
5.9472,1529
5.9500,1522
5.9528,1531
5.9556,1535
5.9583,1551
5.9611,1561
5.9639,1576
5.9667,1580
5.9694,1589
5.9722,1593
5.9750,1604
5.9778,1621
5.9806,1630
5.9833,1648
5.9861,1657
5.9889,1657
5.9917,1664
5.9944,1670
5.9972,1589
6.0000,1596
6.0028,1584
6.0056,1570
6.0083,1552
6.0111,1538
6.0139,1516
6.0167,1514
6.0194,1513
6.0222,1508
6.0250,1490
6.0278,1480
6.0306,1476
6.0333,1476
6.0361,1474
6.0389,1483
6.0417,1487
6.0444,1491
6.0472,1488
6.0500,1482
6.0528,1494
6.0556,1499
6.0583,1505
6.0611,1513
6.0639,1525
6.0667,1526
6.0694,1520
6.0722,1528
6.0750,1524
6.0778,1528
6.0806,1540
6.0833,1549
6.0861,1554
6.0889,1545
6.0917,1549
6.0944,1550
6.0972,1567
6.1000,1571
6.1028,1586
6.1056,1579
6.1083,1574
6.1111,1575
6.1139,1580
6.1167,1588
6.1194,1595
6.1222,1609
6.1250,1607
6.1278,1610
6.1306,1600
6.1333,1602
6.1361,1611
6.1389,1617
6.1417,1621
6.1444,1622
6.1472,1622
6.1500,1624
6.1528,1625
6.1556,1634
6.1583,1642
6.1611,1651
6.1639,1666
6.1667,1674
6.1694,1685
6.1722,1706
6.1750,1718
6.1778,1746
6.1806,1765
6.1833,1796
6.1861,1812
6.1889,1841
6.1917,1871
6.1944,1908
6.1972,1974
6.2000,2010
6.2028,2045
6.2056,2078
6.2083,2118
6.2111,2171
6.2139,2256
6.2167,2357
6.2194,2454
6.2222,2542
6.2250,2643
6.2278,2730
6.2306,2843
6.2333,3015
6.2361,3253
6.2389,3351
6.2417,3352
6.2444,3388
6.2472,3375
6.2500,3379
6.2528,3372
6.2556,3372
6.2583,3366
6.2611,3375
6.2639,3380
6.2667,3375
6.2694,3388
6.2722,3371
6.2750,3373
6.2778,3367
6.2806,3362
6.2833,3378
6.2861,3378
6.2889,3371
6.2917,3351
6.2944,3190
6.2972,2930
6.3000,2677
6.3028,2485
6.3056,2334
6.3083,2178
6.3111,1985
6.3139,1777
6.3167,1617
6.3194,1485
6.3222,1361
6.3250,1223
6.3278,1123
6.3306,1037
6.3333,1009
6.3361,1008
6.3389,1036
6.3417,1058
6.3444,1070
6.3472,1059
6.3500,1038
6.3528,1013
6.3556,1011
6.3583,1026
6.3611,1062
6.3639,1097
6.3667,1114
6.3694,1113
6.3722,1090
6.3750,1058
6.3778,1009
6.3806,975
6.3833,940
6.3861,905
6.3889,861
6.3917,815
6.3944,765
6.3972,725
6.4000,680
6.4028,644
6.4056,609
6.4083,573
6.4111,557
6.4139,547
6.4167,543
6.4194,540
6.4222,535
6.4250,531
6.4278,524
6.4306,509
6.4333,505
6.4361,506
6.4389,504
6.4417,498
6.4444,495
6.4472,493
6.4500,510
6.4528,514
6.4556,532
6.4583,547
6.4611,574
6.4639,587
6.4667,612
6.4694,647
6.4722,665
6.4750,697
6.4778,753
6.4806,813
6.4833,871
6.4861,934
6.4889,988
6.4917,1049
6.4944,1107
6.4972,1176
6.5000,1250
6.5028,1313
6.5056,1372
6.5083,1430
6.5111,1501
6.5139,1563
6.5167,1634
6.5194,1703
6.5222,1751
6.5250,1818
6.5278,1881
6.5306,1911
6.5333,1954
6.5361,1983
6.5389,2009
6.5417,2029
6.5444,2042
6.5472,2064
6.5500,2075
6.5528,2084
6.5556,2096
6.5583,2102
6.5611,2108
6.5639,2118
6.5667,2116
6.5694,2111
6.5722,2117
6.5750,2116
6.5778,2124
6.5806,2133
6.5833,2131
6.5861,2134
6.5889,2137
6.5917,2138
6.5944,2150
6.5972,2153
6.6000,2166
6.6028,2170
6.6056,2178
6.6083,2188
6.6111,2191
6.6139,2199
6.6167,2203
6.6194,2210
6.6222,2218
6.6250,2208
6.6278,2211
6.6306,2209
6.6333,2212
6.6361,2221
6.6389,2224
6.6417,2234
6.6444,2234
6.6472,2242
6.6500,2242
6.6528,2244
6.6556,2239
6.6583,2253
6.6611,2254
6.6639,2262
6.6667,2264
6.6694,2261
6.6722,2273
6.6750,2267
6.6778,2265
6.6806,2259
6.6833,2258
6.6861,2263
6.6889,2253
6.6917,2259
6.6944,2253
6.6972,2254
6.7000,2258
6.7028,2262
6.7056,2252
6.7083,2257
6.7111,2244
6.7139,2243
6.7167,2236
6.7194,2235
6.7222,2247
6.7250,2248
6.7278,2237
6.7306,2234
6.7333,2233
6.7361,2232
6.7389,2236
6.7417,2231
6.7444,2235
6.7472,2235
6.7500,2231
6.7528,2233
6.7556,2231
6.7583,2242
6.7611,2237
6.7639,2225
6.7667,2228
6.7694,2235
6.7722,2234
6.7750,2232
6.7778,2231
6.7806,2232
6.7833,2224
6.7861,2221
6.7889,2224
6.7917,2231
6.7944,2228
6.7972,2234
6.8000,2227
6.8028,2228
6.8056,2220
6.8083,2213
6.8111,2206
6.8139,2204
6.8167,2209
6.8194,2208
6.8222,2210
6.8250,2213
6.8278,2214
6.8306,2215
6.8333,2211
6.8361,2212
6.8389,2206
6.8417,2207
6.8444,2200
6.8472,2199
6.8500,2191
6.8528,2189
6.8556,2188
6.8583,2188
6.8611,2186
6.8639,2190
6.8667,2186
6.8694,2173
6.8722,2167
6.8750,2159
6.8778,2161
6.8806,2161
6.8833,2166
6.8861,2176
6.8889,2172
6.8917,2183
6.8944,2171
6.8972,2176
6.9000,2183
6.9028,2174
6.9056,2167
6.9083,2162
6.9111,2161
6.9139,2165
6.9167,2165
6.9194,2167
6.9222,2160
6.9250,2159
6.9278,2161
6.9306,2147
6.9333,2154
6.9361,2152
6.9389,2154
6.9417,2144
6.9444,2147
6.9472,2145
6.9500,2133
6.9528,2131
6.9556,2132
6.9583,2128
6.9611,2141
6.9639,2135
6.9667,2123
6.9694,2113
6.9722,2111
6.9750,2101
6.9778,2103
6.9806,2110
6.9833,2104
6.9861,2113
6.9889,2115
6.9917,2112
6.9944,2114
6.9972,2112
7.0000,2104
7.0028,2098
7.0056,2096
7.0083,2083
7.0111,2081
7.0139,2078
7.0167,2075
7.0194,2069
7.0222,2071
7.0250,2068
7.0278,2063
7.0306,2063
7.0333,2055
7.0361,2049
7.0389,2050
7.0417,2048
7.0444,2045
7.0472,2047
7.0500,2056
7.0528,2061
7.0556,2064
7.0583,2056
7.0611,2048
7.0639,2045
7.0667,2039
7.0694,2043
7.0722,2034
7.0750,2030
7.0778,2027
7.0806,2023
7.0833,2015
7.0861,2017
7.0889,2019
7.0917,2027
7.0944,2027
7.0972,2030
7.1000,2026
7.1028,2016
7.1056,2006
7.1083,2000
7.1111,2000
7.1139,1990
7.1167,1994
7.1194,1992
7.1222,1984
7.1250,1984
7.1278,1986
7.1306,1988
7.1333,1985
7.1361,1975
7.1389,1973
7.1417,1969
7.1444,1961
7.1472,1963
7.1500,1965
7.1528,1952
7.1556,1952
7.1583,1960
7.1611,1958
7.1639,1960
7.1667,1953
7.1694,1957
7.1722,1966
7.1750,1980
7.1778,1995
7.1806,2026
7.1833,2050
7.1861,2059
7.1889,2069
7.1917,2052
7.1944,2040
7.1972,2033
7.2000,2034
7.2028,2065
7.2056,2090
7.2083,2123
7.2111,2151
7.2139,2168
7.2167,2156
7.2194,2144
7.2222,2122
7.2250,2092
7.2278,2049
7.2306,2000
7.2333,1953
7.2361,1899
7.2389,1859
7.2417,1844
7.2444,1841
7.2472,1822
7.2500,1816
7.2528,1802
7.2556,1795
7.2583,1789
7.2611,1781
7.2639,1779
7.2667,1793
7.2694,1793
7.2722,1787
7.2750,1783
7.2778,1778
7.2806,1776
7.2833,1768
7.2861,1773
7.2889,1771
7.2917,1761
7.2944,1757
7.2972,1752
7.3000,1750
7.3028,1746
7.3056,1743
7.3083,1736
7.3111,1708
7.3139,1669
7.3167,1636
7.3194,1617
7.3222,1649
7.3250,1701
7.3278,1812
7.3306,1965
7.3333,2136
7.3361,2314
7.3389,2460
7.3417,2597
7.3444,2735
7.3472,2850
7.3500,2999
7.3528,3032
7.3556,2878
7.3583,2532
7.3611,2137
7.3639,1756
7.3667,1441
7.3694,1219
7.3722,1080
7.3750,1041
7.3778,1098
7.3806,1197
7.3833,1311
7.3861,1403
7.3889,1464
7.3917,1506
7.3944,1538
7.3972,1569
7.4000,1595
7.4028,1613
7.4056,1627
7.4083,1622
7.4111,1605
7.4139,1600
7.4167,1605
7.4194,1607
7.4222,1622
7.4250,1621
7.4278,1622
7.4306,1607
7.4333,1612
7.4361,1606
7.4389,1619
7.4417,1619
7.4444,1628
7.4472,1635
7.4500,1638
7.4528,1632
7.4556,1641
7.4583,1636
7.4611,1652
7.4639,1652
7.4667,1650
7.4694,1646
7.4722,1635
7.4750,1638
7.4778,1658
7.4806,1673
7.4833,1683
7.4861,1687
7.4889,1680
7.4917,1666
7.4944,1664
7.4972,1666
7.5000,1672
7.5028,1678
7.5056,1686
7.5083,1678
7.5111,1674
7.5139,1678
7.5167,1690
7.5194,1712
7.5222,1729
7.5250,1724
7.5278,1720
7.5306,1730
7.5333,1720
7.5361,1725
7.5389,1745
7.5417,1766
7.5444,1776
7.5472,1784
7.5500,1789
7.5528,1797
7.5556,1803
7.5583,1742
7.5611,1741
7.5639,1727
7.5667,1699
7.5694,1682
7.5722,1647
7.5750,1642
7.5778,1638
7.5806,1630
7.5833,1621
7.5861,1605
7.5889,1597
7.5917,1583
7.5944,1575
7.5972,1574
7.6000,1578
7.6028,1564
7.6056,1560
7.6083,1552
7.6111,1544
7.6139,1540
7.6167,1552
7.6194,1558
7.6222,1558
7.6250,1562
7.6278,1564
7.6306,1560
7.6333,1563
7.6361,1559
7.6389,1553
7.6417,1565
7.6444,1556
7.6472,1554
7.6500,1548
7.6528,1538
7.6556,1528
7.6583,1527
7.6611,1530
7.6639,1535
7.6667,1544
7.6694,1539
7.6722,1543
7.6750,1536
7.6778,1544
7.6806,1543
7.6833,1554
7.6861,1557
7.6889,1536
7.6917,1525
7.6944,1514
7.6972,1510
7.7000,1512
7.7028,1519
7.7056,1528
7.7083,1535
7.7111,1540
7.7139,1549
7.7167,1550
7.7194,1546
7.7222,1538
7.7250,1541
7.7278,1532
7.7306,1538
7.7333,1552
7.7361,1562
7.7389,1575
7.7417,1595
7.7444,1614
7.7472,1633
7.7500,1647
7.7528,1665
7.7556,1683
7.7583,1719
7.7611,1752
7.7639,1795
7.7667,1824
7.7694,1855
7.7722,1881
7.7750,1902
7.7778,1939
7.7806,2018
7.7833,2111
7.7861,2195
7.7889,2285
7.7917,2346
7.7944,2426
7.7972,2532
7.8000,2673
7.8028,2861
7.8056,3081
7.8083,3300
7.8111,3347
7.8139,3369
7.8167,3369
7.8194,3383
7.8222,3376
7.8250,3377
7.8278,3368
7.8306,3364
7.8333,3375
7.8361,3378
7.8389,3382
7.8417,3378
7.8444,3372
7.8472,3350
7.8500,3289
7.8528,3022
7.8556,2725
7.8583,2485
7.8611,2320
7.8639,2193
7.8667,2056
7.8694,1915
7.8722,1765
7.8750,1622
7.8778,1454
7.8806,1277
7.8833,1114
7.8861,1010
7.8889,941
7.8917,888
7.8944,850
7.8972,814
7.9000,769
7.9028,708
7.9056,666
7.9083,634
7.9111,628
7.9139,634
7.9167,649
7.9194,666
7.9222,677
7.9250,671
7.9278,655
7.9306,653
7.9333,645
7.9361,655
7.9389,651
7.9417,637
7.9444,632
7.9472,611
7.9500,614
7.9528,612
7.9556,630
7.9583,665
7.9611,639
7.9639,613
7.9667,568
7.9694,529
7.9722,482
7.9750,447
7.9778,400
7.9806,355
7.9833,307
7.9861,263
7.9889,237
7.9917,234
7.9944,246
7.9972,266
8.0000,262
8.0028,254
8.0056,240
8.0083,236
8.0111,241
8.0139,250
8.0167,276
8.0194,302
8.0222,309
8.0250,315
8.0278,333
8.0306,346
8.0333,383
8.0361,411
8.0389,452
8.0417,490
8.0444,530
8.0472,570
8.0500,610
8.0528,1591
8.0556,1592
8.0583,1594
8.0611,1618
8.0639,1626
8.0667,1634
8.0694,1625
8.0722,1609
8.0750,1612
8.0778,1622
8.0806,1634
8.0833,1646
8.0861,1644
8.0889,1649
8.0917,1638
8.0944,1638
8.0972,1650
8.1000,1666
8.1028,1674
8.1056,1677
8.1083,1664
8.1111,1660
8.1139,1659
8.1167,1668
8.1194,1679
8.1222,1696
8.1250,1707
8.1278,1708
8.1306,1702
8.1333,1692
8.1361,1703
8.1389,1718
8.1417,1744
8.1444,1755
8.1472,1744
8.1500,1736
8.1528,1733
8.1556,1743
8.1583,1760
8.1611,1779
8.1639,1779
8.1667,1793
8.1694,1780
8.1722,1770
8.1750,1783
8.1778,1786
8.1806,1805
8.1833,1814
8.1861,1811
8.1889,1812
8.1917,1801
8.1944,1793
8.1972,1809
8.2000,1822
8.2028,1830
8.2056,1831
8.2083,1829
8.2111,1815
8.2139,1803
8.2167,1806
8.2194,1810
8.2222,1819
8.2250,1828
8.2278,1811
8.2306,1814
8.2333,1806
8.2361,1813
8.2389,1832
8.2417,1840
8.2444,1852
8.2472,1839
8.2500,1833
8.2528,1829
8.2556,1832
8.2583,1830
8.2611,1841
8.2639,1844
8.2667,1853
8.2694,1836
8.2722,1834
8.2750,1831
8.2778,1846
8.2806,1858
8.2833,1858
8.2861,1857
8.2889,1858
8.2917,1839
8.2944,1842
8.2972,1832
8.3000,1852
8.3028,1858
8.3056,1861
8.3083,1874
8.3111,1865
8.3139,1862
8.3167,1864
8.3194,1872
8.3222,1873
8.3250,1870
8.3278,1872
8.3306,1865
8.3333,1868
8.3361,1871
8.3389,1878
8.3417,1885
8.3444,1888
8.3472,1883
8.3500,1879
8.3528,1870
8.3556,1876
8.3583,1884
8.3611,1891
8.3639,1890
8.3667,1886
8.3694,1886
8.3722,1883
8.3750,1884
8.3778,1886
8.3806,1893
8.3833,1895
8.3861,1895
8.3889,1894
8.3917,1894
8.3944,1888
8.3972,1891
8.4000,1895
8.4028,1901
8.4056,1908
8.4083,1905
8.4111,1904
8.4139,1908
8.4167,1907
8.4194,1923
8.4222,1927
8.4250,1926
8.4278,1907
8.4306,1904
8.4333,1893
8.4361,1892
8.4389,1909
8.4417,1912
8.4444,1912
8.4472,1919
8.4500,1916
8.4528,1923
8.4556,1928
8.4583,1933
8.4611,1935
8.4639,1936
8.4667,1943
8.4694,1932
8.4722,1927
8.4750,1924
8.4778,1935
8.4806,1929
8.4833,1944
8.4861,1947
8.4889,1956
8.4917,1958
8.4944,1943
8.4972,1941
8.5000,1952
8.5028,1940
8.5056,1949
8.5083,1955
8.5111,1959
8.5139,1958
8.5167,1954
8.5194,1952
8.5222,1954
8.5250,1948
8.5278,1956
8.5306,1953
8.5333,1965
8.5361,1961
8.5389,1967
8.5417,1973
8.5444,1973
8.5472,1972
8.5500,1977
8.5528,1979
8.5556,1975
8.5583,1986
8.5611,1997
8.5639,2004
8.5667,1997
8.5694,1992
8.5722,1983
8.5750,1981
8.5778,1980
8.5806,1993
8.5833,1986
8.5861,1987
8.5889,1995
8.5917,1997
8.5944,2007
8.5972,1999
8.6000,2013
8.6028,2014
8.6056,2011
8.6083,1997
8.6111,1998
8.6139,1996
8.6167,1995
8.6194,1997
8.6222,1990
8.6250,1986
8.6278,1986
8.6306,1986
8.6333,1998
8.6361,1995
8.6389,1996
8.6417,2000
8.6444,2004
8.6472,2005
8.6500,1998
8.6528,1991
8.6556,2000
8.6583,1998
8.6611,2003
8.6639,2006
8.6667,2012
8.6694,2002
8.6722,2003
8.6750,2006
8.6778,2002
8.6806,2014
8.6833,2015
8.6861,2020
8.6889,2019
8.6917,2007
8.6944,1998
8.6972,2006
8.7000,2014
8.7028,2027
8.7056,2034
8.7083,2057
8.7111,2070
8.7139,2079
8.7167,2108
8.7194,2118
8.7222,2112
8.7250,2125
8.7278,2109
8.7306,2082
8.7333,2077
8.7361,2093
8.7389,2120
8.7417,2148
8.7444,2181
8.7472,2207
8.7500,2223
8.7528,2218
8.7556,2194
8.7583,2152
8.7611,2104
8.7639,2059
8.7667,2035
8.7694,2003
8.7722,1992
8.7750,1975
8.7778,1959
8.7806,1950
8.7833,1940
8.7861,1941
8.7889,1940
8.7917,1939
8.7944,1935
8.7972,1937
8.8000,1942
8.8028,1937
8.8056,1936
8.8083,1937
8.8111,1928
8.8139,1935
8.8167,1928
8.8194,1926
8.8222,1927
8.8250,1934
8.8278,1928
8.8306,1935
8.8333,1930
8.8361,1918
8.8389,1928
8.8417,1924
8.8444,1899
8.8472,1856
8.8500,1807
8.8528,1782
8.8556,1797
8.8583,1851
8.8611,1951
8.8639,2109
8.8667,2269
8.8694,2450
8.8722,2609
8.8750,2740
8.8778,2879
8.8806,3036
8.8833,3196
8.8861,3296
8.8889,3172
8.8917,2854
8.8944,2423
8.8972,1996
8.9000,1653
8.9028,1407
8.9056,1260
8.9083,1227
8.9111,1268
8.9139,1366
8.9167,1474
8.9194,1579
8.9222,1640
8.9250,1688
8.9278,1710
8.9306,1730
8.9333,1749
8.9361,1770
8.9389,1786
8.9417,1775
8.9444,1769
8.9472,1761
8.9500,1761
8.9528,1772
8.9556,1777
8.9583,1785
8.9611,1790
8.9639,1775
8.9667,1761
8.9694,1755
8.9722,1762
8.9750,1771
8.9778,1779
8.9806,1782
8.9833,1771
8.9861,1766
8.9889,1769
8.9917,1766
8.9944,1779
8.9972,1792
9.0000,1809
9.0028,1805
9.0056,1797
9.0083,1806
9.0111,1812
9.0139,1816
9.0167,1819
9.0194,1818
9.0222,1820
9.0250,1809
9.0278,1800
9.0306,1802
9.0333,1805
9.0361,1819
9.0389,1823
9.0417,1820
9.0444,1814
9.0472,1809
9.0500,1812
9.0528,1818
9.0556,1824
9.0583,1832
9.0611,1830
9.0639,1820
9.0667,1816
9.0694,1825
9.0722,1851
9.0750,1857
9.0778,1873
9.0806,1874
9.0833,1876
9.0861,1876
9.0889,1872
9.0917,1738
9.0944,1746
9.0972,1734
9.1000,1710
9.1028,1690
9.1056,1663
9.1083,1658
9.1111,1645
9.1139,1629
9.1167,1622
9.1194,1616
9.1222,1598
9.1250,1581
9.1278,1576
9.1306,1565
9.1333,1573
9.1361,1567
9.1389,1554
9.1417,1557
9.1444,1543
9.1472,1531
9.1500,1536
9.1528,1543
9.1556,1540
9.1583,1535
9.1611,1538
9.1639,1522
9.1667,1522
9.1694,1521
9.1722,1519
9.1750,1520
9.1778,1526
9.1806,1526
9.1833,1513
9.1861,1521
9.1889,1523
9.1917,1513
9.1944,1531
9.1972,1533
9.2000,1531
9.2028,1519
9.2056,1515
9.2083,1511
9.2111,1516
9.2139,1516
9.2167,1518
9.2194,1519
9.2222,1519
9.2250,1512
9.2278,1505
9.2306,1508
9.2333,1516
9.2361,1508
9.2389,1511
9.2417,1501
9.2444,1501
9.2472,1500
9.2500,1501
9.2528,1504
9.2556,1504
9.2583,1509
9.2611,1501
9.2639,1504
9.2667,1515
9.2694,1526
9.2722,1538
9.2750,1551
9.2778,1568
9.2806,1578
9.2833,1589
9.2861,1605
9.2889,1634
9.2917,1667
9.2944,1698
9.2972,1747
9.3000,1774
9.3028,1802
9.3056,1836
9.3083,1866
9.3111,1905
9.3139,1969
9.3167,2074
9.3194,2163
9.3222,2229
9.3250,2300
9.3278,2388
9.3306,2495
9.3333,2640
9.3361,2857
9.3389,3091
9.3417,3310
9.3444,3355
9.3472,3367
9.3500,3386
9.3528,3382
9.3556,3379
9.3583,3376
9.3611,3364
9.3639,3362
9.3667,3370
9.3694,3382
9.3722,3383
9.3750,3378
9.3778,3369
9.3806,3335
9.3833,3090
9.3861,2771
9.3889,2504
9.3917,2344
9.3944,2268
9.3972,2221
9.4000,2161
9.4028,2078
9.4056,1984
9.4083,1855
9.4111,1666
9.4139,1424
9.4167,1203
9.4194,1035
9.4222,913
9.4250,806
9.4278,722
9.4306,656
9.4333,593
9.4361,540
9.4389,500
9.4417,480
9.4444,485
9.4472,518
9.4500,538
9.4528,548
9.4556,528
9.4583,502
9.4611,472
9.4639,460
9.4667,451
9.4694,462
9.4722,469
9.4750,472
9.4778,464
9.4806,469
9.4833,471
9.4861,459
9.4889,442
9.4917,420
9.4944,381
9.4972,318
9.5000,250
9.5028,200
9.5056,159
9.5083,149
9.5111,116
9.5139,87
9.5167,58
9.5194,47
9.5222,72
9.5250,103
9.5278,134
9.5306,187
9.5333,225
9.5361,262
9.5389,314
9.5417,352
9.5444,400
9.5472,462
9.5500,532
9.5528,604
9.5556,667
9.5583,729
9.5611,779
9.5639,853
9.5667,916
9.5694,990
9.5722,1052
9.5750,1108
9.5778,1160
9.5806,1217
9.5833,1553
9.5861,1559
9.5889,1579
9.5917,1598
9.5944,1599
9.5972,1598
9.6000,1603
9.6028,1604
9.6056,1620
9.6083,1636
9.6111,1659
9.6139,1674
9.6167,1683
9.6194,1686
9.6222,1687
9.6250,1692
9.6278,1698
9.6306,1714
9.6333,1727
9.6361,1734
9.6389,1731
9.6417,1720
9.6444,1741
9.6472,1753
9.6500,1774
9.6528,1782
9.6556,1783
9.6583,1786
9.6611,1778
9.6639,1780
9.6667,1794
9.6694,1794
9.6722,1807
9.6750,1803
9.6778,1796
9.6806,1782
9.6833,1773
9.6861,1785
9.6889,1785
9.6917,1808
9.6944,1800
9.6972,1799
9.7000,1783
9.7028,1783
9.7056,1786
9.7083,1800
9.7111,1809
9.7139,1808
9.7167,1804
9.7194,1796
9.7222,1787
9.7250,1779
9.7278,1784
9.7306,1790
9.7333,1798
9.7361,1792
9.7389,1793
9.7417,1784
9.7444,1788
9.7472,1784
9.7500,1794
9.7528,1789
9.7556,1788
9.7583,1786
9.7611,1781
9.7639,1771
9.7667,1771
9.7694,1771
9.7722,1781
9.7750,1782
9.7778,1777
9.7806,1780
9.7833,1776
9.7861,1774
9.7889,1782
9.7917,1777
9.7944,1785
9.7972,1788
9.8000,1775
9.8028,1775
9.8056,1779
9.8083,1786
9.8111,1787
9.8139,1785
9.8167,1785
9.8194,1775
9.8222,1779
9.8250,1778
9.8278,1782
9.8306,1783
9.8333,1782
9.8361,1783
9.8389,1778
9.8417,1778
9.8444,1763
9.8472,1771
9.8500,1777
9.8528,1779
9.8556,1786
9.8583,1781
9.8611,1772
9.8639,1779
9.8667,1781
9.8694,1789
9.8722,1791
9.8750,1789
9.8778,1784
9.8806,1780
9.8833,1772
9.8861,1770
9.8889,1777
9.8917,1780
9.8944,1774
9.8972,1773
9.9000,1767
9.9028,1776
9.9056,1776
9.9083,1775
9.9111,1785
9.9139,1792
9.9167,1786
9.9194,1772
9.9222,1776
9.9250,1771
9.9278,1778
9.9306,1784
9.9333,1790
9.9361,1797
9.9389,1791
9.9417,1785
9.9444,1784
9.9472,1782
9.9500,1787
9.9528,1785
9.9556,1768
9.9583,1769
9.9611,1757
9.9639,1756
9.9667,1760
9.9694,1774
9.9722,1768
9.9750,1779
9.9778,1786
9.9806,1773
9.9833,1767
9.9861,1764
9.9889,1760
9.9917,1757
9.9944,1762
9.9972,1761
10.0000,1768
10.0028,1767
10.0056,1772
10.0083,1776
10.0111,1770
10.0139,1774
10.0167,1765
10.0194,1754
10.0222,1753
10.0250,1756
10.0278,1757
10.0306,1748
10.0333,1757
10.0361,1751
10.0389,1762
10.0417,1753
10.0444,1750
10.0472,1748
10.0500,1760
10.0528,1761
10.0556,1755
10.0583,1752
10.0611,1753
10.0639,1752
10.0667,1757
10.0694,1757
10.0722,1755
10.0750,1764
10.0778,1766
10.0806,1769
10.0833,1774
10.0861,1764
10.0889,1772
10.0917,1763
10.0944,1770
10.0972,1770
10.1000,1758
10.1028,1755
10.1056,1766
10.1083,1757
10.1111,1762
10.1139,1765
10.1167,1759
10.1194,1756
10.1222,1753
10.1250,1750
10.1278,1754
10.1306,1758
10.1333,1773
10.1361,1760
10.1389,1760
10.1417,1754
10.1444,1754
10.1472,1752
10.1500,1751
10.1528,1751
10.1556,1758
10.1583,1760
10.1611,1754
10.1639,1755
10.1667,1754
10.1694,1742
10.1722,1745
10.1750,1747
10.1778,1751
10.1806,1754
10.1833,1748
10.1861,1749
10.1889,1746
10.1917,1760
10.1944,1758
10.1972,1757
10.2000,1761
10.2028,1770
10.2056,1791
10.2083,1814
10.2111,1830
10.2139,1856
10.2167,1856
10.2194,1856
10.2222,1842
10.2250,1827
10.2278,1835
10.2306,1844
10.2333,1865
10.2361,1888
10.2389,1928
10.2417,1953
10.2444,1964
10.2472,1969
10.2500,1950
10.2528,1917
10.2556,1866
10.2583,1809
10.2611,1772
10.2639,1741
10.2667,1714
10.2694,1702
10.2722,1692
10.2750,1694
10.2778,1686
10.2806,1688
10.2833,1689
10.2861,1686
10.2889,1687
10.2917,1674
10.2944,1671
10.2972,1674
10.3000,1670
10.3028,1673
10.3056,1670
10.3083,1671
10.3111,1673
10.3139,1661
10.3167,1659
10.3194,1659
10.3222,1660
10.3250,1660
10.3278,1674
10.3306,1670
10.3333,1670
10.3361,1676
10.3389,1665
10.3417,1639
10.3444,1577
10.3472,1537
10.3500,1520
10.3528,1555
10.3556,1621
10.3583,1751
10.3611,1927
10.3639,2108
10.3667,2283
10.3694,2441
10.3722,2579
10.3750,2714
10.3778,2851
10.3806,3017
10.3833,3053
10.3861,2864
10.3889,2490
10.3917,2071
10.3944,1691
10.3972,1380
10.4000,1155
10.4028,1034
10.4056,1012
10.4083,1072
10.4111,1176
10.4139,1277
10.4167,1380
10.4194,1438
10.4222,1478
10.4250,1499
10.4278,1527
10.4306,1545
10.4333,1565
10.4361,1579
10.4389,1580
10.4417,1574
10.4444,1567
10.4472,1583
10.4500,1602
10.4528,1613
10.4556,1620
10.4583,1603
10.4611,1598
10.4639,1582
10.4667,1599
10.4694,1608
10.4722,1625
10.4750,1631
10.4778,1627
10.4806,1625
10.4833,1629
10.4861,1630
10.4889,1637
10.4917,1651
10.4944,1670
10.4972,1663
10.5000,1657
10.5028,1651
10.5056,1648
10.5083,1656
10.5111,1669
10.5139,1676
10.5167,1689
10.5194,1692
10.5222,1680
10.5250,1678
10.5278,1685
10.5306,1689
10.5333,1702
10.5361,1714
10.5389,1711
10.5417,1715
10.5444,1726
10.5472,1737
10.5500,1741
10.5528,1759
10.5556,1760
10.5583,1769
10.5611,1774
10.5639,1791
10.5667,1791
10.5694,1809
10.5722,1826
10.5750,1831
10.5778,1837
10.5806,1839
10.5833,1836
10.5861,1845
10.5889,1760
10.5917,1765
10.5944,1750
10.5972,1714
10.6000,1703
10.6028,1677
10.6056,1673
10.6083,1663
10.6111,1659
10.6139,1657
10.6167,1638
10.6194,1624
10.6222,1615
10.6250,1607
10.6278,1603
10.6306,1604
10.6333,1603
10.6361,1597
10.6389,1595
10.6417,1582
10.6444,1585
10.6472,1585
10.6500,1592
10.6528,1601
10.6556,1590
10.6583,1577
10.6611,1572
10.6639,1577
10.6667,1580
10.6694,1584
10.6722,1600
10.6750,1593
10.6778,1596
10.6806,1584
10.6833,1581
10.6861,1580
10.6889,1589
10.6917,1594
10.6944,1596
10.6972,1588
10.7000,1599
10.7028,1596
10.7056,1591
10.7083,1588
10.7111,1597
10.7139,1595
10.7167,1597
10.7194,1596
10.7222,1591
10.7250,1593
10.7278,1591
10.7306,1603
10.7333,1606
10.7361,1610
10.7389,1604
10.7417,1601
10.7444,1595
10.7472,1589
10.7500,1589
10.7528,1592
10.7556,1597
10.7583,1589
10.7611,1583
10.7639,1579
10.7667,1581
10.7694,1594
10.7722,1585
10.7750,1584
10.7778,1580
10.7806,1572
10.7833,1575
10.7861,1576
10.7889,1582
10.7917,1597
10.7944,1611
10.7972,1621
10.8000,1625
10.8028,1630
10.8056,1641
10.8083,1661
10.8111,1680
10.8139,1707
10.8167,1736
10.8194,1762
10.8222,1795
10.8250,1833
10.8278,1856
10.8306,1878
10.8333,1908
10.8361,1945
10.8389,2007
10.8417,2094
10.8444,2191
10.8472,2262
10.8500,2349
10.8528,2426
10.8556,2509
10.8583,2629
10.8611,2797
10.8639,3028
10.8667,3251
10.8694,3353
10.8722,3372
10.8750,3386
10.8778,3384
10.8806,3377
10.8833,3367
10.8861,3371
10.8889,3381
10.8917,3368
10.8944,3391
10.8972,3387
10.9000,3384
10.9028,3375
10.9056,3364
10.9083,3357
10.9111,3291
10.9139,3026
10.9167,2711
10.9194,2473
10.9222,2314
10.9250,2228
10.9278,2150
10.9306,2060
10.9333,1949
10.9361,1795
10.9389,1592
10.9417,1379
10.9444,1187
10.9472,1057
10.9500,961
10.9528,893
10.9556,833
10.9583,791
10.9611,744
10.9639,699
10.9667,669
10.9694,652
10.9722,663
10.9750,675
10.9778,691
10.9806,696
10.9833,666
10.9861,634
10.9889,609
10.9917,603
10.9944,623
10.9972,644
11.0000,647
11.0028,657
11.0056,648
11.0083,633
11.0111,610
11.0139,600
11.0167,575
11.0194,528
11.0222,480
11.0250,410
11.0278,340
11.0306,300
11.0333,270
11.0361,246
11.0389,228
11.0417,201
11.0444,177
11.0472,146
11.0500,134
11.0528,137
11.0556,129
11.0583,133
11.0611,135
11.0639,116
11.0667,111
11.0694,106
11.0722,113
11.0750,122
11.0778,129
11.0806,138
11.0833,134
11.0861,145
11.0889,149
11.0917,170
11.0944,196
11.0972,238
11.1000,276
11.1028,315
11.1056,340
11.1083,379
11.1111,420
11.1139,1578
11.1167,1577
11.1194,1598
11.1222,1623
11.1250,1633
11.1278,1635
11.1306,1619
11.1333,1606
11.1361,1593
11.1389,1598
11.1417,1615
11.1444,1634
11.1472,1634
11.1500,1628
11.1528,1614
11.1556,1603
11.1583,1609
11.1611,1629
11.1639,1644
11.1667,1657
11.1694,1657
11.1722,1656
11.1750,1643
11.1778,1648
11.1806,1654
11.1833,1675
11.1861,1689
11.1889,1691
11.1917,1685
11.1944,1679
11.1972,1685
11.2000,1702
11.2028,1716
11.2056,1724
11.2083,1718
11.2111,1714
11.2139,1701
11.2167,1718
11.2194,1729
11.2222,1739
11.2250,1758
11.2278,1758
11.2306,1746
11.2333,1737
11.2361,1740
11.2389,1744
11.2417,1749
11.2444,1761
11.2472,1767
11.2500,1767
11.2528,1761
11.2556,1757
11.2583,1754
11.2611,1767
11.2639,1774
11.2667,1775
11.2694,1764
11.2722,1756
11.2750,1757
11.2778,1762
11.2806,1774
11.2833,1776
11.2861,1772
11.2889,1762
11.2917,1746
11.2944,1748
11.2972,1740
11.3000,1738
11.3028,1740
11.3056,1749
11.3083,1744
11.3111,1743
11.3139,1728
11.3167,1732
11.3194,1734
11.3222,1738
11.3250,1750
11.3278,1755
11.3306,1745
11.3333,1742
11.3361,1736
11.3389,1734
11.3417,1736
11.3444,1740
11.3472,1737
11.3500,1730
11.3528,1724
11.3556,1711
11.3583,1713
11.3611,1721
11.3639,1724
11.3667,1731
11.3694,1736
11.3722,1718
11.3750,1719
11.3778,1709
11.3806,1717
11.3833,1713
11.3861,1716
11.3889,1721
11.3917,1717
11.3944,1705
11.3972,1704
11.4000,1700
11.4028,1722
11.4056,1713
11.4083,1727
11.4111,1709
11.4139,1703
11.4167,1694
11.4194,1688
11.4222,1703
11.4250,1705
11.4278,1705
11.4306,1713
11.4333,1711
11.4361,1710
11.4389,1708
11.4417,1707
11.4444,1704
11.4472,1703
11.4500,1690
11.4528,1696
11.4556,1692
11.4583,1687
11.4611,1689
11.4639,1690
11.4667,1700
11.4694,1697
11.4722,1696
11.4750,1688
11.4778,1693
11.4806,1690
11.4833,1688
11.4861,1696
11.4889,1689
11.4917,1677
11.4944,1672
11.4972,1671
11.5000,1677
11.5028,1690
11.5056,1687
11.5083,1683
11.5111,1681
11.5139,1686
11.5167,1676
11.5194,1678
11.5222,1684
11.5250,1683
11.5278,1677
11.5306,1663
11.5333,1658
11.5361,1665
11.5389,1673
11.5417,1673
11.5444,1670
11.5472,1678
11.5500,1669
11.5528,1655
11.5556,1653
11.5583,1647
11.5611,1653
11.5639,1661
11.5667,1663
11.5694,1668
11.5722,1665
11.5750,1664
11.5778,1661
11.5806,1671
11.5833,1669
11.5861,1664
11.5889,1662
11.5917,1657
11.5944,1655
11.5972,1654
11.6000,1658
11.6028,1658
11.6056,1660
11.6083,1668
11.6111,1655
11.6139,1652
11.6167,1652
11.6194,1651
11.6222,1652
11.6250,1656
11.6278,1653
11.6306,1646
11.6333,1642
11.6361,1651
11.6389,1651
11.6417,1655
11.6444,1655
11.6472,1652
11.6500,1653
11.6528,1644
11.6556,1649
11.6583,1653
11.6611,1663
11.6639,1658
11.6667,1661
11.6694,1658
11.6722,1651
11.6750,1654
11.6778,1643
11.6806,1641
11.6833,1637
11.6861,1642
11.6889,1641
11.6917,1644
11.6944,1642
11.6972,1646
11.7000,1654
11.7028,1655
11.7056,1665
11.7083,1663
11.7111,1651
11.7139,1650
11.7167,1650
11.7194,1643
11.7222,1639
11.7250,1657
11.7278,1653
11.7306,1647
11.7333,1648
11.7361,1643
11.7389,1640
11.7417,1643
11.7444,1653
11.7472,1654
11.7500,1656
11.7528,1650
11.7556,1651
11.7583,1641
11.7611,1649
11.7639,1646
11.7667,1649
11.7694,1652
11.7722,1649
11.7750,1645
11.7778,1648
11.7806,1649
11.7833,1654
11.7861,1655
11.7889,1651
11.7917,1653
11.7944,1644
11.7972,1650
11.8000,1646
11.8028,1656
11.8056,1653
11.8083,1654
11.8111,1653
11.8139,1656
11.8167,1673
11.8194,1701
11.8222,1731
11.8250,1761
11.8278,1770
11.8306,1772
11.8333,1756
11.8361,1744
11.8389,1725
11.8417,1726
11.8444,1746
11.8472,1779
11.8500,1817
11.8528,1854
11.8556,1886
11.8583,1896
11.8611,1873
11.8639,1845
11.8667,1797
11.8694,1754
11.8722,1723
11.8750,1704
11.8778,1687
11.8806,1675
11.8833,1658
11.8861,1649
11.8889,1637
11.8917,1634
11.8944,1632
11.8972,1637
11.9000,1647
11.9028,1640
11.9056,1644
11.9083,1639
11.9111,1641
11.9139,1641
11.9167,1637
11.9194,1642
11.9222,1638
11.9250,1648
11.9278,1654
11.9306,1655
11.9333,1661
11.9361,1660
11.9389,1652
11.9417,1656
11.9444,1663
11.9472,1656
11.9500,1643
11.9528,1599
11.9556,1544
11.9583,1522
11.9611,1528
11.9639,1574
11.9667,1677
11.9694,1833
11.9722,2004
11.9750,2205
11.9778,2375
11.9806,2525
11.9833,2663
11.9861,2810
11.9889,2972
11.9917,3085
11.9944,3006
11.9972,2718
12.0000,2302
12.0028,1882
12.0056,1513
12.0083,1251
12.0111,1085
12.0139,1031
12.0167,1060
12.0194,1155
12.0222,1273
12.0250,1382
12.0278,1467
12.0306,1511
12.0333,1541
12.0361,1569
12.0389,1598
12.0417,1627
12.0444,1644
12.0472,1645
12.0500,1642
12.0528,1625
12.0556,1630
12.0583,1636
12.0611,1657
12.0639,1664
12.0667,1655
12.0694,1656
12.0722,1657
12.0750,1660
12.0778,1671
12.0806,1693
12.0833,1701
12.0861,1700
12.0889,1693
12.0917,1690
12.0944,1701
12.0972,1702
12.1000,1729
12.1028,1739
12.1056,1740
12.1083,1745
12.1111,1737
12.1139,1738
12.1167,1732
12.1194,1749
12.1222,1757
12.1250,1773
12.1278,1768
12.1306,1767
12.1333,1762
12.1361,1770
12.1389,1784
12.1417,1799
12.1444,1801
12.1472,1800
12.1500,1806
12.1528,1805
12.1556,1816
12.1583,1819
12.1611,1841
12.1639,1860
12.1667,1867
12.1694,1870
12.1722,1864
12.1750,1873
12.1778,1884
12.1806,1903
12.1833,1910
12.1861,1926
12.1889,1936
12.1917,1933
12.1944,1942
12.1972,1880
12.2000,1885
12.2028,1871
12.2056,1853
12.2083,1825
12.2111,1804
12.2139,1788
12.2167,1787
12.2194,1785
12.2222,1781
12.2250,1761
12.2278,1743
12.2306,1735
12.2333,1724
12.2361,1723
12.2389,1719
12.2417,1720
12.2444,1715
12.2472,1720
12.2500,1709
12.2528,1705
12.2556,1701
12.2583,1711
12.2611,1713
12.2639,1723
12.2667,1724
12.2694,1717
12.2722,1717
12.2750,1715
12.2778,1715
12.2806,1719
12.2833,1733
12.2861,1718
12.2889,1721
12.2917,1712
12.2944,1716
12.2972,1718
12.3000,1719
12.3028,1727
12.3056,1728
12.3083,1737
12.3111,1724
12.3139,1730
12.3167,1728
12.3194,1741
12.3222,1739
12.3250,1749
12.3278,1749
12.3306,1743
12.3333,1740
12.3361,1738
12.3389,1734
12.3417,1740
12.3444,1749
12.3472,1741
12.3500,1737
12.3528,1723
12.3556,1726
12.3583,1731
12.3611,1726
12.3639,1727
12.3667,1725
12.3694,1729
12.3722,1724
12.3750,1729
12.3778,1725
12.3806,1726
12.3833,1729
12.3861,1722
12.3889,1717
12.3917,1709
12.3944,1691
12.3972,1698
12.4000,1702
12.4028,1703
12.4056,1701
12.4083,1695
12.4111,1691
12.4139,1698
12.4167,1700
12.4194,1710
12.4222,1726
12.4250,1718
12.4278,1722
12.4306,1734
12.4333,1749
12.4361,1765
12.4389,1783
12.4417,1807
12.4444,1835
12.4472,1864
12.4500,1887
12.4528,1915
12.4556,1964
12.4583,1992
12.4611,2024
12.4639,2063
12.4667,2100
12.4694,2157
12.4722,2253
12.4750,2339
12.4778,2409
12.4806,2486
12.4833,2572
12.4861,2663
12.4889,2776
12.4917,2957
12.4944,3190
12.4972,3348
12.5000,3353
12.5028,3375
12.5056,3381
12.5083,3377
12.5111,3378
12.5139,3370
12.5167,3365
12.5194,3364
12.5222,3378
12.5250,3384
12.5278,3384
12.5306,3372
12.5333,3365
12.5361,3353
12.5389,3362
12.5417,3370
12.5444,3363
12.5472,3298
12.5500,3042
12.5528,2752
12.5556,2532
12.5583,2380
12.5611,2273
12.5639,2165
12.5667,2003
12.5694,1798
12.5722,1581
12.5750,1399
12.5778,1273
12.5806,1168
12.5833,1073
12.5861,996
12.5889,937
12.5917,895
12.5944,858
12.5972,832
12.6000,820
12.6028,791
12.6056,774
12.6083,758
12.6111,751
12.6139,756
12.6167,754
12.6194,767
12.6222,781
12.6250,781
12.6278,776
12.6306,772
12.6333,741
12.6361,700
12.6389,662
12.6417,633
12.6444,640
12.6472,667
12.6500,695
12.6528,694
12.6556,700
12.6583,683
12.6611,628
12.6639,581
12.6667,529
12.6694,490
12.6722,466
12.6750,466
12.6778,443
12.6806,422
12.6833,389
12.6861,355
12.6889,327
12.6917,317
12.6944,322
12.6972,326
12.7000,330
12.7028,334
12.7056,339
12.7083,351
12.7111,347
12.7139,364
12.7167,371
12.7194,390
12.7222,407
12.7250,431
12.7278,460
12.7306,487
12.7333,525
12.7361,564
12.7389,603
12.7417,656
12.7444,700
12.7472,761
12.7500,1839
12.7528,1835
12.7556,1843
12.7583,1870
12.7611,1887
12.7639,1903
12.7667,1882
12.7694,1866
12.7722,1852
12.7750,1853
12.7778,1865
12.7806,1886
12.7833,1895
12.7861,1900
12.7889,1873
12.7917,1853
12.7944,1859
12.7972,1869
12.8000,1890
12.8028,1911
12.8056,1909
12.8083,1906
12.8111,1902
12.8139,1898
12.8167,1905
12.8194,1919
12.8222,1939
12.8250,1938
12.8278,1942
12.8306,1931
12.8333,1922
12.8361,1935
12.8389,1949
12.8417,1960
12.8444,1974
12.8472,1965
12.8500,1962
12.8528,1968
12.8556,1965
12.8583,1975
12.8611,1995
12.8639,1990
12.8667,1989
12.8694,1980
12.8722,1974
12.8750,1990
12.8778,2001
12.8806,2018
12.8833,2017
12.8861,2013
12.8889,1997
12.8917,1995
12.8944,1994
12.8972,2000
12.9000,2016
12.9028,2024
12.9056,2015
12.9083,2012
12.9111,2007
12.9139,2005
12.9167,2011
12.9194,2019
12.9222,2021
12.9250,2020
12.9278,2018
12.9306,2009
12.9333,1995
12.9361,2002
12.9389,2025
12.9417,2016
12.9444,2008
12.9472,2003
12.9500,1991
12.9528,1991
12.9556,1997
12.9583,1999
12.9611,2005
12.9639,2004
12.9667,1998
12.9694,1993
12.9722,1983
12.9750,1991
12.9778,1992
12.9806,1995
12.9833,2005
12.9861,2006
12.9889,1995
12.9917,2001
12.9944,1994
12.9972,1994
13.0000,1994
13.0028,2000
13.0056,1997
13.0083,1996
13.0111,1990
13.0139,1992
13.0167,1993
13.0194,2003
13.0222,2008
13.0250,2009
13.0278,2002
13.0306,1986
13.0333,1991
13.0361,2002
13.0389,2004
13.0417,2008
13.0444,2018
13.0472,2010
13.0500,2010
13.0528,2001
13.0556,1996
13.0583,2005
13.0611,2008
13.0639,2005
13.0667,1995
13.0694,1993
13.0722,1995
13.0750,1990
13.0778,2004
13.0806,2014
13.0833,2015
13.0861,2011
13.0889,2011
13.0917,2003
13.0944,2011
13.0972,2005
13.1000,2012
13.1028,2020
13.1056,2012
13.1083,2010
13.1111,2004
13.1139,1996
13.1167,2000
13.1194,1995
13.1222,2002
13.1250,2010
13.1278,2003
13.1306,1999
13.1333,1993
13.1361,1998
13.1389,2006
13.1417,2000
13.1444,2006
13.1472,2002
13.1500,1991
13.1528,2003
13.1556,1996
13.1583,1991
13.1611,2004
13.1639,2012
13.1667,2003
13.1694,2005
13.1722,2010
13.1750,2011
13.1778,2020
13.1806,2029
13.1833,2036
13.1861,2028
13.1889,2016
13.1917,2018
13.1944,2011
13.1972,2023
13.2000,2024
13.2028,2028
13.2056,2018
13.2083,2018
13.2111,2021
13.2139,2020
13.2167,2013
13.2194,2017
13.2222,2027
13.2250,2030
13.2278,2022
13.2306,2013
13.2333,2010
13.2361,2009
13.2389,2021
13.2417,2024
13.2444,2021
13.2472,2020
13.2500,2023
13.2528,2019
13.2556,2017
13.2583,2015
13.2611,2021
13.2639,2018
13.2667,2021
13.2694,2023
13.2722,2016
13.2750,2023
13.2778,2021
13.2806,2022
13.2833,2025
13.2861,2023
13.2889,2019
13.2917,2015
13.2944,2012
13.2972,2007
13.3000,2010
13.3028,2007
13.3056,2003
13.3083,1996
13.3111,1995
13.3139,2007
13.3167,2000
13.3194,2007
13.3222,2011
13.3250,2007
13.3278,2010
13.3306,2007
13.3333,2001
13.3361,2009
13.3389,2002
13.3417,2004
13.3444,2007
13.3472,2004
13.3500,2015
13.3528,1998
13.3556,2002
13.3583,1993
13.3611,2000
13.3639,1995
13.3667,1995
13.3694,1987
13.3722,1990
13.3750,1997
13.3778,1991
13.3806,1987
13.3833,1990
13.3861,1991
13.3889,1992
13.3917,1981
13.3944,1984
13.3972,1990
13.4000,1984
13.4028,1978
13.4056,1976
13.4083,1971
13.4111,1982
13.4139,1976
13.4167,1982
13.4194,1979
13.4222,1975
13.4250,1975
13.4278,1970
13.4306,1970
13.4333,1965
13.4361,1965
13.4389,1960
13.4417,1969
13.4444,1970
13.4472,1970
13.4500,1955
13.4528,1959
13.4556,1966
13.4583,1961
13.4611,1963
13.4639,1968
13.4667,1973
13.4694,1971
13.4722,1974
13.4750,1976
13.4778,1998
13.4806,2014
13.4833,2030
13.4861,2042
13.4889,2041
13.4917,2023
13.4944,2006
13.4972,1983
13.5000,1983
13.5028,2000
13.5056,2038
13.5083,2078
13.5111,2109
13.5139,2119
13.5167,2115
13.5194,2091
13.5222,2064
13.5250,2024
13.5278,1992
13.5306,1979
13.5333,1957
13.5361,1949
13.5389,1939
13.5417,1910
13.5444,1896
13.5472,1890
13.5500,1883
13.5528,1887
13.5556,1895
13.5583,1902
13.5611,1910
13.5639,1909
13.5667,1910
13.5694,1906
13.5722,1904
13.5750,1906
13.5778,1919
13.5806,1912
13.5833,1911
13.5861,1917
13.5889,1911
13.5917,1903
13.5944,1904
13.5972,1900
13.6000,1905
13.6028,1896
13.6056,1877
13.6083,1841
13.6111,1795
13.6139,1750
13.6167,1746
13.6194,1782
13.6222,1879
13.6250,2006
13.6278,2168
13.6306,2344
13.6333,2512
13.6361,2659
13.6389,2790
13.6417,2949
13.6444,3107
13.6472,3260
13.6500,3241
13.6528,2997
13.6556,2612
13.6583,2192
13.6611,1818
13.6639,1531
13.6667,1338
13.6694,1240
13.6722,1238
13.6750,1309
13.6778,1418
13.6806,1524
13.6833,1599
13.6861,1663
13.6889,1692
13.6917,1709
13.6944,1726
13.6972,1759
13.7000,1768
13.7028,1775
13.7056,1773
13.7083,1770
13.7111,1769
13.7139,1773
13.7167,1785
13.7194,1784
13.7222,1788
13.7250,1776
13.7278,1767
13.7306,1762
13.7333,1778
13.7361,1800
13.7389,1810
13.7417,1806
13.7444,1807
13.7472,1781
13.7500,1769
13.7528,1782
13.7556,1791
13.7583,1806
13.7611,1811
13.7639,1809
13.7667,1811
13.7694,1796
13.7722,1814
13.7750,1819
13.7778,1828
13.7806,1837
13.7833,1843
13.7861,1833
13.7889,1832
13.7917,1840
13.7944,1838
13.7972,1855
13.8000,1867
13.8028,1870
13.8056,1859
13.8083,1852
13.8111,1856
13.8139,1873
13.8167,1890
13.8194,1911
13.8222,1919
13.8250,1916
13.8278,1919
13.8306,1925
13.8333,1932
13.8361,1953
13.8389,1962
13.8417,1972
13.8444,1969
13.8472,1973
13.8500,1968
13.8528,1976
13.8556,1852
13.8583,1867
13.8611,1849
13.8639,1815
13.8667,1795
13.8694,1774
13.8722,1757
13.8750,1747
13.8778,1745
13.8806,1729
13.8833,1711
13.8861,1694
13.8889,1684
13.8917,1682
13.8944,1680
13.8972,1681
13.9000,1688
13.9028,1682
13.9056,1676
13.9083,1665
13.9111,1659
13.9139,1666
13.9167,1671
13.9194,1675
13.9222,1676
13.9250,1674
13.9278,1669
13.9306,1657
13.9333,1661
13.9361,1669
13.9389,1677
13.9417,1674
13.9444,1674
13.9472,1659
13.9500,1658
13.9528,1665
13.9556,1672
13.9583,1671
13.9611,1670
13.9639,1663
13.9667,1656
13.9694,1641
13.9722,1647
13.9750,1661
13.9778,1664
13.9806,1673
13.9833,1666
13.9861,1657
13.9889,1652
13.9917,1657
13.9944,1655
13.9972,1660
14.0000,1667
14.0028,1665
14.0056,1657
14.0083,1656
14.0111,1644
14.0139,1639
14.0167,1646
14.0194,1651
14.0222,1642
14.0250,1645
14.0278,1635
14.0306,1622
14.0333,1623
14.0361,1620
14.0389,1619
14.0417,1627
14.0444,1620
14.0472,1612
14.0500,1602
14.0528,1606
14.0556,1601
14.0583,1598
14.0611,1597
14.0639,1592
14.0667,1596
14.0694,1590
14.0722,1594
14.0750,1595
14.0778,1604
14.0806,1598
14.0833,1600
14.0861,1590
14.0889,1580
14.0917,1583
14.0944,1584
14.0972,1586
14.1000,1588
14.1028,1591
14.1056,1583
14.1083,1574
14.1111,1588
14.1139,1588
14.1167,1589
14.1194,1592
14.1222,1584
14.1250,1584
14.1278,1569
14.1306,1575
14.1333,1573
14.1361,1580
14.1389,1583
14.1417,1589
14.1444,1584
14.1472,1581
14.1500,1574
14.1528,1572
14.1556,1575
14.1583,1583
14.1611,1581
14.1639,1575
14.1667,1572
14.1694,1574
14.1722,1564
14.1750,1571
14.1778,1571
14.1806,1576
14.1833,1590
14.1861,1582
14.1889,1581
14.1917,1578
14.1944,1583
14.1972,1575
14.2000,1587
14.2028,1575
14.2056,1591
14.2083,1589
14.2111,1594
14.2139,1592
14.2167,1591
14.2194,1595
14.2222,1600
14.2250,1600
14.2278,1596
14.2306,1605
14.2333,1607
14.2361,1605
14.2389,1607
14.2417,1601
14.2444,1597
14.2472,1603
14.2500,1603
14.2528,1605
14.2556,1613
14.2583,1626
14.2611,1628
14.2639,1634
14.2667,1629
14.2694,1626
14.2722,1623
14.2750,1626
14.2778,1637
14.2806,1644
14.2833,1646
14.2861,1644
14.2889,1659
14.2917,1691
14.2944,1707
14.2972,1735
14.3000,1744
14.3028,1751
14.3056,1736
14.3083,1719
14.3111,1702
14.3139,1715
14.3167,1738
14.3194,1782
14.3222,1829
14.3250,1861
14.3278,1871
14.3306,1855
14.3333,1820
14.3361,1790
14.3389,1764
14.3417,1734
14.3444,1726
14.3472,1719
14.3500,1705
14.3528,1699
14.3556,1670
14.3583,1654
14.3611,1642
14.3639,1646
14.3667,1647
14.3694,1654
14.3722,1653
14.3750,1653
14.3778,1656
14.3806,1655
14.3833,1657
14.3861,1659
14.3889,1657
14.3917,1669
14.3944,1671
14.3972,1676
14.4000,1677
14.4028,1677
14.4056,1681
14.4083,1675
14.4111,1696
14.4139,1697
14.4167,1703
14.4194,1703
14.4222,1678
14.4250,1641
14.4278,1590
14.4306,1559
14.4333,1567
14.4361,1627
14.4389,1724
14.4417,1873
14.4444,2047
14.4472,2229
14.4500,2408
14.4528,2572
14.4556,2709
14.4583,2878
14.4611,3050
14.4639,3211
14.4667,3154
14.4694,2879
14.4722,2450
14.4750,2011
14.4778,1624
14.4806,1340
14.4833,1159
14.4861,1099
14.4889,1136
14.4917,1232
14.4944,1367
14.4972,1496
14.5000,1581
14.5028,1642
14.5056,1666
14.5083,1686
14.5111,1707
14.5139,1735
14.5167,1752
14.5194,1763
14.5222,1755
14.5250,1742
14.5278,1754
14.5306,1764
14.5333,1777
14.5361,1795
14.5389,1792
14.5417,1792
14.5444,1776
14.5472,1778
14.5500,1793
14.5528,1803
14.5556,1814
14.5583,1831
14.5611,1817
14.5639,1816
14.5667,1812
14.5694,1823
14.5722,1836
14.5750,1860
14.5778,1862
14.5806,1867
14.5833,1857
14.5861,1860
14.5889,1861
14.5917,1888
14.5944,1894
14.5972,1890
14.6000,1876
14.6028,1878
14.6056,1872
14.6083,1880
14.6111,1892
14.6139,1913
14.6167,1929
14.6194,1933
14.6222,1934
14.6250,1923
14.6278,1932
14.6306,1943
14.6333,1961
14.6361,1975
14.6389,1966
14.6417,1976
14.6444,1977
14.6472,1987
14.6500,2001
14.6528,2018
14.6556,2035
14.6583,2043
14.6611,2044
14.6639,2048
14.6667,2048
14.6694,2055
14.6722,1851
14.6750,1860
14.6778,1849
14.6806,1830
14.6833,1805
14.6861,1781
14.6889,1775
14.6917,1776
14.6944,1778
14.6972,1774
14.7000,1765
14.7028,1758
14.7056,1761
14.7083,1764
14.7111,1765
14.7139,1767
14.7167,1775
14.7194,1764
14.7222,1755
14.7250,1746
14.7278,1737
14.7306,1738
14.7333,1758
14.7361,1775
14.7389,1769
14.7417,1769
14.7444,1769
14.7472,1765
14.7500,1787
14.7528,1807
14.7556,1816
14.7583,1820
14.7611,1825
14.7639,1820
14.7667,1807
14.7694,1819
14.7722,1829
14.7750,1839
14.7778,1842
14.7806,1838
14.7833,1825
14.7861,1821
14.7889,1828
14.7917,1837
14.7944,1841
14.7972,1850
14.8000,1851
14.8028,1843
14.8056,1852
14.8083,1859
14.8111,1865
14.8139,1872
14.8167,1882
14.8194,1883
14.8222,1870
14.8250,1860
14.8278,1865
14.8306,1869
14.8333,1873
14.8361,1880
14.8389,1881
14.8417,1877
14.8444,1875
14.8472,1866
14.8500,1861
14.8528,1863
14.8556,1863
14.8583,1871
14.8611,1861
14.8639,1858
14.8667,1849
14.8694,1849
14.8722,1849
14.8750,1847
14.8778,1856
14.8806,1837
14.8833,1844
14.8861,1849
14.8889,1848
14.8917,1848
14.8944,1858
14.8972,1850
14.9000,1849
14.9028,1844
14.9056,1839
14.9083,1834
14.9111,1844
14.9139,1838
14.9167,1837
14.9194,1832
14.9222,1832
14.9250,1838
14.9278,1837
14.9306,1838
14.9333,1843
14.9361,1841
14.9389,1838
14.9417,1842
14.9444,1830
14.9472,1841
14.9500,1841
14.9528,1846
14.9556,1846
14.9583,1851
14.9611,1844
14.9639,1850
14.9667,1843
14.9694,1842
14.9722,1848
14.9750,1843
14.9778,1857
14.9806,1847
14.9833,1850
14.9861,1850
14.9889,1848
14.9917,1853
14.9944,1855
14.9972,1856
15.0000,1860
15.0028,1857
15.0056,1865
15.0083,1860
15.0111,1860
15.0139,1865
15.0167,1858
15.0194,1854
15.0222,1858
15.0250,1860
15.0278,1858
15.0306,1857
15.0333,1859
15.0361,1858
15.0389,1844
15.0417,1827
15.0444,1827
15.0472,1832
15.0500,1843
15.0528,1850
15.0556,1851
15.0583,1847
15.0611,1853
15.0639,1850
15.0667,1840
15.0694,1841
15.0722,1855
15.0750,1872
15.0778,1892
15.0806,1908
15.0833,1937
15.0861,1961
15.0889,1983
15.0917,1979
15.0944,1966
15.0972,1954
15.1000,1953
15.1028,1970
15.1056,2001
15.1083,2042
15.1111,2068
15.1139,2096
15.1167,2104
15.1194,2099
15.1222,2088
15.1250,2048
15.1278,2007
15.1306,1968
15.1333,1918
15.1361,1891
15.1389,1864
15.1417,1835
15.1444,1827
15.1472,1816
15.1500,1812
15.1528,1827
15.1556,1828
15.1583,1819
15.1611,1808
15.1639,1807
15.1667,1807
15.1694,1808
15.1722,1813
15.1750,1820
15.1778,1831
15.1806,1834
15.1833,1834
15.1861,1826
15.1889,1822
15.1917,1829
15.1944,1842
15.1972,1843
15.2000,1842
15.2028,1846
15.2056,1837
15.2083,1836
15.2111,1839
15.2139,1826
15.2167,1787
15.2194,1737
15.2222,1718
15.2250,1721
15.2278,1771
15.2306,1889
15.2333,2055
15.2361,2247
15.2389,2429
15.2417,2597
15.2444,2729
15.2472,2868
15.2500,3027
15.2528,3187
15.2556,3322
15.2583,3249
15.2611,2947
15.2639,2534
15.2667,2104
15.2694,1747
15.2722,1487
15.2750,1323
15.2778,1254
15.2806,1277
15.2833,1370
15.2861,1496
15.2889,1597
15.2917,1683
15.2944,1738
15.2972,1771
15.3000,1797
15.3028,1818
15.3056,1847
15.3083,1863
15.3111,1867
15.3139,1854
15.3167,1856
15.3194,1860
15.3222,1873
15.3250,1892
15.3278,1911
15.3306,1911
15.3333,1919
15.3361,1910
15.3389,1906
15.3417,1913
15.3444,1927
15.3472,1939
15.3500,1946
15.3528,1941
15.3556,1940
15.3583,1950
15.3611,1963
15.3639,1981
15.3667,1991
15.3694,1996
15.3722,1990
15.3750,1981
15.3778,1992
15.3806,1994
15.3833,2004
15.3861,2019
15.3889,2032
15.3917,2031
15.3944,2028
15.3972,2031
15.4000,2045
15.4028,2053
15.4056,2067
15.4083,2080
15.4111,2084
15.4139,2089
15.4167,2100
15.4194,2107
15.4222,2123
15.4250,2147
15.4278,2153
15.4306,2162
15.4333,2163
15.4361,2169
15.4389,2188
15.4417,2197
15.4444,2218
15.4472,2236
15.4500,2235
15.4528,2232
15.4556,2238
15.4583,2248
15.4611,2063
15.4639,2081
15.4667,2063
15.4694,2050
15.4722,2040
15.4750,2017
15.4778,2001
15.4806,1990
15.4833,1991
15.4861,1988
15.4889,1977
15.4917,1958
15.4944,1947
15.4972,1935
15.5000,1931
15.5028,1939
15.5056,1941
15.5083,1946
15.5111,1948
15.5139,1951
15.5167,1952
15.5194,1950
15.5222,1943
15.5250,1959
15.5278,1959
15.5306,1957
15.5333,1960
15.5361,1954
15.5389,1956
15.5417,1964
15.5444,1968
15.5472,1965
15.5500,1962
15.5528,1958
15.5556,1964
15.5583,1975
15.5611,1991
15.5639,1988
15.5667,1992
15.5694,1987
15.5722,1991
15.5750,1986
15.5778,1987
15.5806,1982
15.5833,1993
15.5861,1997
15.5889,2004
15.5917,1991
15.5944,1989
15.5972,1993
15.6000,1990
15.6028,2008
15.6056,2001
15.6083,2007
15.6111,1997
15.6139,1995
15.6167,1994
15.6194,1997
15.6222,2000
15.6250,2018
15.6278,2010
15.6306,2000
15.6333,2007
15.6361,1994
15.6389,1981
15.6417,1990
15.6444,1996
15.6472,1995
15.6500,1990
15.6528,1986
15.6556,1981
15.6583,1976
15.6611,1975
15.6639,1976
15.6667,1974
15.6694,1978
15.6722,1975
15.6750,1977
15.6778,1978
15.6806,1972
15.6833,1976
15.6861,1988
15.6889,1971
15.6917,1966
15.6944,1951
15.6972,1946
15.7000,1956
15.7028,1954
15.7056,1953
15.7083,1953
15.7111,1950
15.7139,1943
15.7167,1943
15.7194,1926
15.7222,1918
15.7250,1917
15.7278,1910
15.7306,1895
15.7333,1893
15.7361,1893
15.7389,1889
15.7417,1889
15.7444,1903
15.7472,1909
15.7500,1911
15.7528,1899
15.7556,1893
15.7583,1882
15.7611,1882
15.7639,1883
15.7667,1885
15.7694,1876
15.7722,1880
15.7750,1873
15.7778,1878
15.7806,1875
15.7833,1860
15.7861,1867
15.7889,1859
15.7917,1856
15.7944,1851
15.7972,1852
15.8000,1849
15.8028,1843
15.8056,1839
15.8083,1842
15.8111,1830
15.8139,1835
15.8167,1823
15.8194,1828
15.8222,1822
15.8250,1809
15.8278,1812
15.8306,1808
15.8333,1786
15.8361,1786
15.8389,1793
15.8417,1800
15.8444,1792
15.8472,1803
15.8500,1790
15.8528,1785
15.8556,1782
15.8583,1781
15.8611,1782
15.8639,1776
15.8667,1776
15.8694,1770
15.8722,1765
15.8750,1761
15.8778,1772
15.8806,1788
15.8833,1822
15.8861,1855
15.8889,1884
15.8917,1880
15.8944,1877
15.8972,1862
15.9000,1855
15.9028,1875
15.9056,1915
15.9083,1952
15.9111,1964
15.9139,1965
15.9167,1956
15.9194,1941
15.9222,1916
15.9250,1884
15.9278,1836
15.9306,1794
15.9333,1752
15.9361,1728
15.9389,1693
15.9417,1658
15.9444,1641
15.9472,1623
15.9500,1617
15.9528,1605
15.9556,1600
15.9583,1590
15.9611,1589
15.9639,1582
15.9667,1577
15.9694,1577
15.9722,1573
15.9750,1581
15.9778,1575
15.9806,1564
15.9833,1556
15.9861,1550
15.9889,1544
15.9917,1532
15.9944,1523
15.9972,1519
16.0000,1522
16.0028,1518
16.0056,1519
16.0083,1513
16.0111,1497
16.0139,1469
16.0167,1418
16.0194,1365
16.0222,1342
16.0250,1356
16.0278,1422
16.0306,1526
16.0333,1690
16.0361,1864
16.0389,2048
16.0417,2206
16.0444,2355
16.0472,2494
16.0500,2665
16.0528,2854
16.0556,2982
16.0583,2871
16.0611,2511
16.0639,2024
16.0667,1526
16.0694,1125
16.0722,846
16.0750,710
16.0778,677
16.0806,759
16.0833,906
16.0861,1063
16.0889,1189
16.0917,1277
16.0944,1316
16.0972,1336
16.1000,1347
16.1028,1365
16.1056,1373
16.1083,1382
16.1111,1368
16.1139,1351
16.1167,1345
16.1194,1350
16.1222,1365
16.1250,1378
16.1278,1391
16.1306,1380
16.1333,1376
16.1361,1368
16.1389,1364
16.1417,1366
16.1444,1367
16.1472,1383
16.1500,1383
16.1528,1372
16.1556,1361
16.1583,1363
16.1611,1365
16.1639,1382
16.1667,1394
16.1694,1394
16.1722,1381
16.1750,1366
16.1778,1359
16.1806,1368
16.1833,1384
16.1861,1388
16.1889,1397
16.1917,1400
16.1944,1400
16.1972,1392
16.2000,1396
16.2028,1407
16.2056,1430
16.2083,1439
16.2111,1442
16.2139,1441
16.2167,1439
16.2194,1447
16.2222,1454
16.2250,1466
16.2278,1475
16.2306,1477
16.2333,1477
16.2361,1487
16.2389,1500
16.2417,1511
16.2444,1535
16.2472,1549
16.2500,1555
16.2528,1551
16.2556,1553
16.2583,1554
16.2611,1317
16.2639,1327
16.2667,1314
16.2694,1306
16.2722,1271
16.2750,1240
16.2778,1233
16.2806,1228
16.2833,1234
16.2861,1233
16.2889,1214
16.2917,1205
16.2944,1192
16.2972,1188
16.3000,1203
16.3028,1208
16.3056,1212
16.3083,1220
16.3111,1213
16.3139,1207
16.3167,1199
16.3194,1208
16.3222,1219
16.3250,1225
16.3278,1225
16.3306,1218
16.3333,1210
16.3361,1205
16.3389,1210
16.3417,1217
16.3444,1233
16.3472,1227
16.3500,1228
16.3528,1224
16.3556,1220
16.3583,1222
16.3611,1229
16.3639,1230
16.3667,1236
16.3694,1228
16.3722,1232
16.3750,1232
16.3778,1236
16.3806,1253
16.3833,1262
16.3861,1265
16.3889,1265
16.3917,1266
16.3944,1257
16.3972,1263
16.4000,1277
16.4028,1289
16.4056,1302
16.4083,1292
16.4111,1290
16.4139,1283
16.4167,1275
16.4194,1280
16.4222,1288
16.4250,1295
16.4278,1292
16.4306,1293
16.4333,1293
16.4361,1291
16.4389,1298
16.4417,1295
16.4444,1306
16.4472,1310
16.4500,1303
16.4528,1293
16.4556,1292
16.4583,1298
16.4611,1301
16.4639,1294
16.4667,1302
16.4694,1296
16.4722,1301
16.4750,1295
16.4778,1289
16.4806,1292
16.4833,1306
16.4861,1299
16.4889,1301
16.4917,1307
16.4944,1304
16.4972,1308
16.5000,1308
16.5028,1315
16.5056,1321
16.5083,1323
16.5111,1326
16.5139,1323
16.5167,1321
16.5194,1333
16.5222,1335
16.5250,1343
16.5278,1341
16.5306,1336
16.5333,1332
16.5361,1337
16.5389,1347
16.5417,1337
16.5444,1348
16.5472,1354
16.5500,1345
16.5528,1357
16.5556,1359
16.5583,1350
16.5611,1353
16.5639,1362
16.5667,1361
16.5694,1371
16.5722,1367
16.5750,1379
16.5778,1377
16.5806,1392
16.5833,1399
16.5861,1395
16.5889,1403
16.5917,1391
16.5944,1386
16.5972,1386
16.6000,1400
16.6028,1404
16.6056,1413
16.6083,1400
16.6111,1401
16.6139,1395
16.6167,1402
16.6194,1403
16.6222,1423
16.6250,1425
16.6278,1431
16.6306,1430
16.6333,1423
16.6361,1427
16.6389,1421
16.6417,1421
16.6444,1423
16.6472,1426
16.6500,1434
16.6528,1433
16.6556,1432
16.6583,1438
16.6611,1445
16.6639,1443
16.6667,1453
16.6694,1445
16.6722,1439
16.6750,1434
16.6778,1433
16.6806,1445
16.6833,1463
16.6861,1468
16.6889,1478
16.6917,1478
16.6944,1488
16.6972,1481
16.7000,1480
16.7028,1488
16.7056,1496
16.7083,1511
16.7111,1529
16.7139,1561
16.7167,1591
16.7194,1612
16.7222,1618
16.7250,1624
16.7278,1630
16.7306,1629
16.7333,1663
16.7361,1691
16.7389,1710
16.7417,1724
16.7444,1732
16.7472,1738
16.7500,1731
16.7528,1711
16.7556,1663
16.7583,1627
16.7611,1585
16.7639,1535
16.7667,1505
16.7694,1481
16.7722,1469
16.7750,1452
16.7778,1445
16.7806,1444
16.7833,1445
16.7861,1451
16.7889,1455
16.7917,1462
16.7944,1465
16.7972,1460
16.8000,1465
16.8028,1466
16.8056,1456
16.8083,1456
16.8111,1454
16.8139,1457
16.8167,1461
16.8194,1460
16.8222,1462
16.8250,1467
16.8278,1473
16.8306,1479
16.8333,1478
16.8361,1478
16.8389,1482
16.8417,1469
16.8444,1432
16.8472,1378
16.8500,1338
16.8528,1335
16.8556,1372
16.8583,1455
16.8611,1605
16.8639,1795
16.8667,1983
16.8694,2176
16.8722,2333
16.8750,2486
16.8778,2657
16.8806,2832
16.8833,3011
16.8861,3029
16.8889,2788
16.8917,2359
16.8944,1834
16.8972,1357
16.9000,1016
16.9028,824
16.9056,759
16.9083,821
16.9111,944
16.9139,1104
16.9167,1244
16.9194,1358
16.9222,1415
16.9250,1447
16.9278,1472
16.9306,1490
16.9333,1505
16.9361,1515
16.9389,1523
16.9417,1515
16.9444,1499
16.9472,1479
16.9500,1503
16.9528,1526
16.9556,1535
16.9583,1526
16.9611,1518
16.9639,1505
16.9667,1500
16.9694,1520
16.9722,1540
16.9750,1557
16.9778,1555
16.9806,1553
16.9833,1545
16.9861,1542
16.9889,1533
16.9917,1535
16.9944,1550
16.9972,1564
17.0000,1570
17.0028,1571
17.0056,1574
17.0083,1570
17.0111,1577
17.0139,1584
17.0167,1582
17.0194,1586
17.0222,1590
17.0250,1611
17.0278,1611
17.0306,1618
17.0333,1636
17.0361,1661
17.0389,1662
17.0417,1670
17.0444,1675
17.0472,1685
17.0500,1701
17.0528,1716
17.0556,1729
17.0583,1741
17.0611,1757
17.0639,1764
17.0667,1776
17.0694,1790
17.0722,1806
17.0750,1841
17.0778,1859
17.0806,1867
17.0833,1877
17.0861,1877
17.0889,1882
17.0917,1663
17.0944,1663
17.0972,1629
17.1000,1598
17.1028,1580
17.1056,1575
17.1083,1569
17.1111,1573
17.1139,1562
17.1167,1568
17.1194,1547
17.1222,1520
17.1250,1512
17.1278,1492
17.1306,1511
17.1333,1516
17.1361,1529
17.1389,1532
17.1417,1524
17.1444,1520
17.1472,1509
17.1500,1520
17.1528,1512
17.1556,1527
17.1583,1541
17.1611,1556
17.1639,1562
17.1667,1549
17.1694,1537
17.1722,1526
17.1750,1532
17.1778,1548
17.1806,1562
17.1833,1561
17.1861,1570
17.1889,1580
17.1917,1581
17.1944,1585
17.1972,1591
17.2000,1592
17.2028,1588
17.2056,1576
17.2083,1565
17.2111,1572
17.2139,1595
17.2167,1603
17.2194,1615
17.2222,1611
17.2250,1609
17.2278,1597
17.2306,1609
17.2333,1617
17.2361,1606
17.2389,1602
17.2417,1597
17.2444,1601
17.2472,1600
17.2500,1624
17.2528,1642
17.2556,1649
17.2583,1650
17.2611,1638
17.2639,1630
17.2667,1625
17.2694,1628
17.2722,1631
17.2750,1638
17.2778,1630
17.2806,1621
17.2833,1608
17.2861,1592
17.2889,1588
17.2917,1604
17.2944,1604
17.2972,1609
17.3000,1594
17.3028,1588
17.3056,1577
17.3083,1581
17.3111,1583
17.3139,1590
17.3167,1588
17.3194,1583
17.3222,1578
17.3250,1583
17.3278,1584
17.3306,1583
17.3333,1577
17.3361,1576
17.3389,1578
17.3417,1576
17.3444,1580
17.3472,1574
17.3500,1589
17.3528,1589
17.3556,1604
17.3583,1604
17.3611,1595
17.3639,1599
17.3667,1586
17.3694,1604
17.3722,1593
17.3750,1601
17.3778,1603
17.3806,1588
17.3833,1582
17.3861,1581
17.3889,1584
17.3917,1579
17.3944,1579
17.3972,1577
17.4000,1571
17.4028,1574
17.4056,1582
17.4083,1584
17.4111,1578
17.4139,1577
17.4167,1570
17.4194,1576
17.4222,1591
17.4250,1586
17.4278,1590
17.4306,1593
17.4333,1604
17.4361,1592
17.4389,1591
17.4417,1587
17.4444,1586
17.4472,1570
17.4500,1570
17.4528,1576
17.4556,1568
17.4583,1567
17.4611,1553
17.4639,1540
17.4667,1548
17.4694,1568
17.4722,1585
17.4750,1600
17.4778,1593
17.4806,1586
17.4833,1582
17.4861,1567
17.4889,1577
17.4917,1581
17.4944,1572
17.4972,1570
17.5000,1575
17.5028,1584
17.5056,1582
17.5083,1582
17.5111,1589
17.5139,1607
17.5167,1625
17.5194,1646
17.5222,1656
17.5250,1678
17.5278,1693
17.5306,1703
17.5333,1711
17.5361,1711
17.5389,1710
17.5417,1726
17.5444,1755
17.5472,1809
17.5500,1834
17.5528,1844
17.5556,1845
17.5583,1843
17.5611,1834
17.5639,1798
17.5667,1772
17.5694,1739
17.5722,1698
17.5750,1653
17.5778,1627
17.5806,1596
17.5833,1564
17.5861,1522
17.5889,1515
17.5917,1515
17.5944,1514
17.5972,1520
17.6000,1521
17.6028,1507
17.6056,1508
17.6083,1498
17.6111,1491
17.6139,1495
17.6167,1505
17.6194,1499
17.6222,1501
17.6250,1509
17.6278,1512
17.6306,1509
17.6333,1515
17.6361,1501
17.6389,1492
17.6417,1500
17.6444,1507
17.6472,1502
17.6500,1496
17.6528,1466
17.6556,1426
17.6583,1390
17.6611,1350
17.6639,1361
17.6667,1414
17.6694,1514
17.6722,1659
17.6750,1851
17.6778,2036
17.6806,2206
17.6833,2338
17.6861,2495
17.6889,2659
17.6917,2831
17.6944,2906
17.6972,2770
17.7000,2441
17.7028,2019
17.7056,1617
17.7083,1267
17.7111,1020
17.7139,889
17.7167,866
17.7194,932
17.7222,1047
17.7250,1169
17.7278,1287
17.7306,1359
17.7333,1409
17.7361,1432
17.7389,1445
17.7417,1466
17.7444,1487
17.7472,1503
17.7500,1506
17.7528,1499
17.7556,1503
17.7583,1504
17.7611,1507
17.7639,1527
17.7667,1536
17.7694,1534
17.7722,1526
17.7750,1522
17.7778,1528
17.7806,1538
17.7833,1545
17.7861,1550
17.7889,1548
17.7917,1547
17.7944,1541
17.7972,1556
17.8000,1565
17.8028,1575
17.8056,1583
17.8083,1587
17.8111,1579
17.8139,1578
17.8167,1575
17.8194,1591
17.8222,1609
17.8250,1625
17.8278,1629
17.8306,1621
17.8333,1614
17.8361,1627
17.8389,1634
17.8417,1644
17.8444,1655
17.8472,1662
17.8500,1658
17.8528,1650
17.8556,1663
17.8583,1671
17.8611,1688
17.8639,1707
17.8667,1718
17.8694,1731
17.8722,1734
17.8750,1734
17.8778,1743
17.8806,1770
17.8833,1786
17.8861,1815
17.8889,1839
17.8917,1844
17.8944,1848
17.8972,1829
17.9000,1612
17.9028,1618
17.9056,1604
17.9083,1577
17.9111,1559
17.9139,1545
17.9167,1537
17.9194,1528
17.9222,1523
17.9250,1507
17.9278,1498
17.9306,1490
17.9333,1498
17.9361,1494
17.9389,1491
17.9417,1497
17.9444,1500
17.9472,1492
17.9500,1485
17.9528,1477
17.9556,1471
17.9583,1479
17.9611,1489
17.9639,1506
17.9667,1501
17.9694,1494
17.9722,1507
17.9750,1512
17.9778,1512
17.9806,1523
17.9833,1523
17.9861,1524
17.9889,1512
17.9917,1519
17.9944,1525
17.9972,1539
18.0000,1546
18.0028,1544
18.0056,1532
18.0083,1539
18.0111,1525
18.0139,1523
18.0167,1522
18.0194,1542
18.0222,1556
18.0250,1549
18.0278,1554
18.0306,1552
18.0333,1549
18.0361,1557
18.0389,1564
18.0417,1580
18.0444,1589
18.0472,1590
18.0500,1590
18.0528,1579
18.0556,1571
18.0583,1563
18.0611,1557
18.0639,1569
18.0667,1565
18.0694,1568
18.0722,1569
18.0750,1564
18.0778,1569
18.0806,1573
18.0833,1577
18.0861,1579
18.0889,1586
18.0917,1577
18.0944,1584
18.0972,1583
18.1000,1576
18.1028,1570
18.1056,1565
18.1083,1560
18.1111,1554
18.1139,1560
18.1167,1560
18.1194,1574
18.1222,1581
18.1250,1583
18.1278,1579
18.1306,1576
18.1333,1571
18.1361,1577
18.1389,1582
18.1417,1583
18.1444,1584
18.1472,1598
18.1500,1582
18.1528,1586
18.1556,1579
18.1583,1585
18.1611,1588
18.1639,1596
18.1667,1599
18.1694,1595
18.1722,1595
18.1750,1597
18.1778,1597
18.1806,1602
18.1833,1593
18.1861,1600
18.1889,1599
18.1917,1595
18.1944,1602
18.1972,1598
18.2000,1592
18.2028,1603
18.2056,1612
18.2083,1600
18.2111,1599
18.2139,1602
18.2167,1606
18.2194,1610
18.2222,1612
18.2250,1613
18.2278,1608
18.2306,1624
18.2333,1620
18.2361,1611
18.2389,1621
18.2417,1621
18.2444,1626
18.2472,1625
18.2500,1620
18.2528,1614
18.2556,1618
18.2583,1631
18.2611,1626
18.2639,1634
18.2667,1646
18.2694,1640
18.2722,1638
18.2750,1643
18.2778,1655
18.2806,1668
18.2833,1681
18.2861,1701
18.2889,1738
18.2917,1762
18.2944,1768
18.2972,1773
18.3000,1763
18.3028,1763
18.3056,1773
18.3083,1798
18.3111,1836
18.3139,1860
18.3167,1866
18.3194,1871
18.3222,1873
18.3250,1868
18.3278,1868
18.3306,1843
18.3333,1798
18.3361,1772
18.3389,1736
18.3417,1706
18.3444,1676
18.3472,1639
18.3500,1613
18.3528,1607
18.3556,1594
18.3583,1613
18.3611,1622
18.3639,1627
18.3667,1631
18.3694,1625
18.3722,1620
18.3750,1610
18.3778,1611
18.3806,1614
18.3833,1614
18.3861,1617
18.3889,1611
18.3917,1621
18.3944,1621
18.3972,1623
18.4000,1631
18.4028,1633
18.4056,1634
18.4083,1631
18.4111,1622
18.4139,1619
18.4167,1592
18.4194,1556
18.4222,1514
18.4250,1496
18.4278,1508
18.4306,1560
18.4333,1649
18.4361,1806
18.4389,1989
18.4417,2180
18.4444,2342
18.4472,2485
18.4500,2627
18.4528,2785
18.4556,2947
18.4583,3029
18.4611,2888
18.4639,2542
18.4667,2116
18.4694,1693
18.4722,1330
18.4750,1078
18.4778,949
18.4806,937
18.4833,1012
18.4861,1148
18.4889,1303
18.4917,1421
18.4944,1501
18.4972,1553
18.5000,1571
18.5028,1579
18.5056,1595
18.5083,1611
18.5111,1609
18.5139,1605
18.5167,1604
18.5194,1604
18.5222,1610
18.5250,1622
18.5278,1639
18.5306,1640
18.5333,1643
18.5361,1638
18.5389,1647
18.5417,1662
18.5444,1671
18.5472,1684
18.5500,1683
18.5528,1691
18.5556,1676
18.5583,1677
18.5611,1686
18.5639,1683
18.5667,1698
18.5694,1707
18.5722,1699
18.5750,1703
18.5778,1680
18.5806,1697
18.5833,1700
18.5861,1711
18.5889,1716
18.5917,1720
18.5944,1722
18.5972,1719
18.6000,1719
18.6028,1736
18.6056,1742
18.6083,1753
18.6111,1756
18.6139,1762
18.6167,1750
18.6194,1755
18.6222,1761
18.6250,1778
18.6278,1795
18.6306,1811
18.6333,1811
18.6361,1821
18.6389,1829
18.6417,1840
18.6444,1862
18.6472,1875
18.6500,1893
18.6528,1901
18.6556,1900
18.6583,1910
18.6611,1921
18.6639,1700
18.6667,1712
18.6694,1692
18.6722,1668
18.6750,1647
18.6778,1631
18.6806,1612
18.6833,1619
18.6861,1613
18.6889,1597
18.6917,1600
18.6944,1594
18.6972,1583
18.7000,1578
18.7028,1571
18.7056,1589
18.7083,1585
18.7111,1584
18.7139,1577
18.7167,1569
18.7194,1571
18.7222,1576
18.7250,1594
18.7278,1600
18.7306,1601
18.7333,1598
18.7361,1602
18.7389,1598
18.7417,1603
18.7444,1606
18.7472,1608
18.7500,1619
18.7528,1609
18.7556,1607
18.7583,1608
18.7611,1609
18.7639,1614
18.7667,1624
18.7694,1634
18.7722,1638
18.7750,1637
18.7778,1624
18.7806,1633
18.7833,1633
18.7861,1647
18.7889,1645
18.7917,1643
18.7944,1630
18.7972,1638
18.8000,1638
18.8028,1636
18.8056,1641
18.8083,1651
18.8111,1655
18.8139,1643
18.8167,1642
18.8194,1646
18.8222,1648
18.8250,1654
18.8278,1653
18.8306,1659
18.8333,1656
18.8361,1643
18.8389,1635
18.8417,1635
18.8444,1638
18.8472,1648
18.8500,1652
18.8528,1639
18.8556,1625
18.8583,1614
18.8611,1617
18.8639,1625
18.8667,1635
18.8694,1633
18.8722,1634
18.8750,1637
18.8778,1628
18.8806,1630
18.8833,1621
18.8861,1629
18.8889,1638
18.8917,1635
18.8944,1631
18.8972,1634
18.9000,1638
18.9028,1642
18.9056,1633
18.9083,1641
18.9111,1643
18.9139,1640
18.9167,1643
18.9194,1635
18.9222,1650
18.9250,1654
18.9278,1651
18.9306,1645
18.9333,1637
18.9361,1631
18.9389,1638
18.9417,1637
18.9444,1648
18.9472,1660
18.9500,1656
18.9528,1658
18.9556,1652
18.9583,1659
18.9611,1665
18.9639,1655
18.9667,1666
18.9694,1666
18.9722,1666
18.9750,1670
18.9778,1667
18.9806,1671
18.9833,1668
18.9861,1680
18.9889,1675
18.9917,1675
18.9944,1680
18.9972,1678
19.0000,1680
19.0028,1693
19.0056,1708
19.0083,1734
19.0111,1754
19.0139,1782
19.0167,1797
19.0194,1808
19.0222,1807
19.0250,1797
19.0278,1792
19.0306,1813
19.0333,1856
19.0361,1890
19.0389,1913
19.0417,1911
19.0444,1915
19.0472,1914
19.0500,1899
19.0528,1877
19.0556,1838
19.0583,1806
19.0611,1773
19.0639,1741
19.0667,1704
19.0694,1667
19.0722,1632
19.0750,1602
19.0778,1593
19.0806,1586
19.0833,1590
19.0861,1607
19.0889,1608
19.0917,1604
19.0944,1605
19.0972,1598
19.1000,1592
19.1028,1594
19.1056,1597
19.1083,1601
19.1111,1602
19.1139,1597
19.1167,1596
19.1194,1608
19.1222,1607
19.1250,1613
19.1278,1620
19.1306,1617
19.1333,1616
19.1361,1615
19.1389,1596
19.1417,1571
19.1444,1512
19.1472,1473
19.1500,1446
19.1528,1462
19.1556,1548
19.1583,1672
19.1611,1833
19.1639,2020
19.1667,2206
19.1694,2354
19.1722,2508
19.1750,2660
19.1778,2824
19.1806,2996
19.1833,3033
19.1861,2840
19.1889,2469
19.1917,2033
19.1944,1603
19.1972,1251
19.2000,1020
19.2028,921
19.2056,940
19.2083,1046
19.2111,1189
19.2139,1331
19.2167,1429
19.2194,1501
19.2222,1531
19.2250,1558
19.2278,1569
19.2306,1575
19.2333,1585
19.2361,1588
19.2389,1568
19.2417,1576
19.2444,1588
19.2472,1602
19.2500,1619
19.2528,1633
19.2556,1630
19.2583,1631
19.2611,1635
19.2639,1630
19.2667,1636
19.2694,1638
19.2722,1663
19.2750,1658
19.2778,1655
19.2806,1655
19.2833,1654
19.2861,1671
19.2889,1670
19.2917,1690
19.2944,1690
19.2972,1691
19.3000,1681
19.3028,1682
19.3056,1682
19.3083,1685
19.3111,1695
19.3139,1718
19.3167,1705
19.3194,1695
19.3222,1701
19.3250,1697
19.3278,1719
19.3306,1727
19.3333,1738
19.3361,1750
19.3389,1759
19.3417,1751
19.3444,1748
19.3472,1752
19.3500,1759
19.3528,1779
19.3556,1787
19.3583,1792
19.3611,1789
19.3639,1798
19.3667,1808
19.3694,1831
19.3722,1853
19.3750,1866
19.3778,1868
19.3806,1877
19.3833,1869
19.3861,1864
19.3889,1629
19.3917,1641
19.3944,1612
19.3972,1585
19.4000,1561
19.4028,1540
19.4056,1536
19.4083,1531
19.4111,1518
19.4139,1512
19.4167,1504
19.4194,1502
19.4222,1488
19.4250,1487
19.4278,1497
19.4306,1497
19.4333,1496
19.4361,1501
19.4389,1500
19.4417,1495
19.4444,1502
19.4472,1498
19.4500,1510
19.4528,1512
19.4556,1519
19.4583,1510
19.4611,1508
19.4639,1509
19.4667,1522
19.4694,1545
19.4722,1551
19.4750,1550
19.4778,1553
19.4806,1552
19.4833,1550
19.4861,1563
19.4889,1561
19.4917,1576
19.4944,1571
19.4972,1576
19.5000,1571
19.5028,1572
19.5056,1568
19.5083,1575
19.5111,1582
19.5139,1601
19.5167,1603
19.5194,1596
19.5222,1594
19.5250,1589
19.5278,1588
19.5306,1592
19.5333,1593
19.5361,1591
19.5389,1595
19.5417,1597
19.5444,1603
19.5472,1605
19.5500,1612
19.5528,1609
19.5556,1597
19.5583,1587
19.5611,1584
19.5639,1595
19.5667,1598
19.5694,1612
19.5722,1629
19.5750,1631
19.5778,1612
19.5806,1610
19.5833,1605
19.5861,1611
19.5889,1606
19.5917,1602
19.5944,1607
19.5972,1613
19.6000,1616
19.6028,1604
19.6056,1602
19.6083,1586
19.6111,1600
19.6139,1601
19.6167,1611
19.6194,1607
19.6222,1610
19.6250,1589
19.6278,1603
19.6306,1603
19.6333,1605
19.6361,1600
19.6389,1598
19.6417,1595
19.6444,1587
19.6472,1585
19.6500,1590
19.6528,1588
19.6556,1586
19.6583,1581
19.6611,1572
19.6639,1571
19.6667,1578
19.6694,1583
19.6722,1596
19.6750,1591
19.6778,1600
19.6806,1583
19.6833,1585
19.6861,1585
19.6889,1593
19.6917,1597
19.6944,1591
19.6972,1594
19.7000,1609
19.7028,1642
19.7056,1675
19.7083,1717
19.7111,1747
19.7139,1748
19.7167,1740
19.7194,1718
19.7222,1705
19.7250,1725
19.7278,1767
19.7306,1810
19.7333,1842
19.7361,1855
19.7389,1858
19.7417,1855
19.7444,1829
19.7472,1801
19.7500,1760
19.7528,1723
19.7556,1686
19.7583,1650
19.7611,1616
19.7639,1574
19.7667,1543
19.7694,1524
19.7722,1523
19.7750,1521
19.7778,1530
19.7806,1527
19.7833,1532
19.7861,1529
19.7889,1533
19.7917,1543
19.7944,1544
19.7972,1538
19.8000,1527
19.8028,1524
19.8056,1529
19.8083,1526
19.8111,1520
19.8139,1526
19.8167,1532
19.8194,1526
19.8222,1534
19.8250,1538
19.8278,1549
19.8306,1543
19.8333,1551
19.8361,1527
19.8389,1498
19.8417,1457
19.8444,1419
19.8472,1415
19.8500,1464
19.8528,1551
19.8556,1689
19.8583,1869
19.8611,2047
19.8639,2215
19.8667,2371
19.8694,2491
19.8722,2636
19.8750,2785
19.8778,2928
19.8806,2941
19.8833,2730
19.8861,2361
19.8889,1946
19.8917,1550
19.8944,1226
19.8972,1000
19.9000,881
19.9028,867
19.9056,945
19.9083,1080
19.9111,1213
19.9139,1320
19.9167,1398
19.9194,1443
19.9222,1479
19.9250,1502
19.9278,1524
19.9306,1550
19.9333,1560
19.9361,1546
19.9389,1542
19.9417,1539
19.9444,1556
19.9472,1577
19.9500,1593
19.9528,1592
19.9556,1599
19.9583,1592
19.9611,1596
19.9639,1596
19.9667,1601
19.9694,1625
19.9722,1622
19.9750,1623
19.9778,1626
19.9806,1633
19.9833,1636
19.9861,1646
19.9889,1666
19.9917,1659
19.9944,1662
19.9972,1647
20.0000,1649
20.0028,1655
20.0056,1665
20.0083,1681
20.0111,1700
20.0139,1698
20.0167,1703
20.0194,1701
20.0222,1701
20.0250,1709
20.0278,1729
20.0306,1738
20.0333,1742
20.0361,1745
20.0389,1737
20.0417,1747
20.0444,1762
20.0472,1777
20.0500,1788
20.0528,1798
20.0556,1792
20.0583,1800
20.0611,1801
20.0639,1817
20.0667,1835
20.0694,1845
20.0722,1853
20.0750,1869
20.0778,1875
20.0806,1876
20.0833,1897
20.0861,1691
20.0889,1695
20.0917,1687
20.0944,1660
20.0972,1638
20.1000,1617
20.1028,1595
20.1056,1589
20.1083,1594
20.1111,1592
20.1139,1586
20.1167,1581
20.1194,1572
20.1222,1564
20.1250,1576
20.1278,1592
20.1306,1593
20.1333,1584
20.1361,1576
20.1389,1571
20.1417,1567
20.1444,1567
20.1472,1578
20.1500,1582
20.1528,1586
20.1556,1585
20.1583,1587
20.1611,1582
20.1639,1591
20.1667,1593
20.1694,1593
20.1722,1592
20.1750,1581
20.1778,1571
20.1806,1578
20.1833,1585
20.1861,1607
20.1889,1614
20.1917,1614
20.1944,1615
20.1972,1603
20.2000,1597
20.2028,1600
20.2056,1610
20.2083,1616
20.2111,1623
20.2139,1607
20.2167,1606
20.2194,1594
20.2222,1599
20.2250,1601
20.2278,1612
20.2306,1628
20.2333,1622
20.2361,1616
20.2389,1622
20.2417,1623
20.2444,1620
20.2472,1625
20.2500,1622
20.2528,1617
20.2556,1614
20.2583,1612
20.2611,1614
20.2639,1623
20.2667,1639
20.2694,1633
20.2722,1634
20.2750,1628
20.2778,1613
20.2806,1615
20.2833,1613
20.2861,1616
20.2889,1621
20.2917,1620
20.2944,1615
20.2972,1620
20.3000,1611
20.3028,1612
20.3056,1614
20.3083,1608
20.3111,1611
20.3139,1611
20.3167,1607
20.3194,1606
20.3222,1606
20.3250,1619
20.3278,1627
20.3306,1626
20.3333,1627
20.3361,1613
20.3389,1611
20.3417,1606
20.3444,1610
20.3472,1616
20.3500,1624
20.3528,1626
20.3556,1624
20.3583,1623
20.3611,1616
20.3639,1627
20.3667,1626
20.3694,1629
20.3722,1632
20.3750,1621
20.3778,1621
20.3806,1622
20.3833,1630
20.3861,1655
20.3889,1681
20.3917,1716
20.3944,1754
20.3972,1779
20.4000,1795
20.4028,1788
20.4056,1780
20.4083,1783
20.4111,1808
20.4139,1848
20.4167,1879
20.4194,1891
20.4222,1896
20.4250,1907
20.4278,1893
20.4306,1881
20.4333,1857
20.4361,1818
20.4389,1773
20.4417,1735
20.4444,1694
20.4472,1660
20.4500,1619
20.4528,1596
20.4556,1574
20.4583,1575
20.4611,1570
20.4639,1576
20.4667,1581
20.4694,1589
20.4722,1587
20.4750,1573
20.4778,1574
20.4806,1568
20.4833,1567
20.4861,1560
20.4889,1560
20.4917,1565
20.4944,1566
20.4972,1555
20.5000,1560
20.5028,1565
20.5056,1568
20.5083,1571
20.5111,1573
20.5139,1569
20.5167,1564
20.5194,1563
20.5222,1550
20.5250,1515
20.5278,1465
20.5306,1415
20.5333,1410
20.5361,1455
20.5389,1539
20.5417,1689
20.5444,1865
20.5472,2042
20.5500,2225
20.5528,2370
20.5556,2497
20.5583,2637
20.5611,2802
20.5639,2973
20.5667,3006
20.5694,2793
20.5722,2391
20.5750,1920
20.5778,1498
20.5806,1160
20.5833,942
20.5861,838
20.5889,856
20.5917,955
20.5944,1096
20.5972,1227
20.6000,1329
20.6028,1405
20.6056,1450
20.6083,1467
20.6111,1496
20.6139,1520
20.6167,1538
20.6194,1536
20.6222,1533
20.6250,1534
20.6278,1530
20.6306,1544
20.6333,1562
20.6361,1565
20.6389,1566
20.6417,1575
20.6444,1567
20.6472,1573
20.6500,1576
20.6528,1600
20.6556,1598
20.6583,1595
20.6611,1577
20.6639,1580
20.6667,1584
20.6694,1589
20.6722,1598
20.6750,1621
20.6778,1634
20.6806,1638
20.6833,1639
20.6861,1635
20.6889,1643
20.6917,1661
20.6944,1667
20.6972,1672
20.7000,1683
20.7028,1680
20.7056,1680
20.7083,1675
20.7111,1695
20.7139,1705
20.7167,1710
20.7194,1719
20.7222,1721
20.7250,1723
20.7278,1721
20.7306,1737
20.7333,1745
20.7361,1775
20.7389,1786
20.7417,1785
20.7444,1797
20.7472,1805
20.7500,1818
20.7528,1834
20.7556,1846
20.7583,1853
20.7611,1851
20.7639,1861
20.7667,1860
20.7694,1855
20.7722,1664
20.7750,1678
20.7778,1654
20.7806,1629
20.7833,1616
20.7861,1607
20.7889,1592
20.7917,1589
20.7944,1590
20.7972,1595
20.8000,1592
20.8028,1578
20.8056,1583
20.8083,1589
20.8111,1596
20.8139,1604
20.8167,1610
20.8194,1599
20.8222,1590
20.8250,1586
20.8278,1589
20.8306,1592
20.8333,1602
20.8361,1611
20.8389,1617
20.8417,1617
20.8444,1611
20.8472,1608
20.8500,1616
20.8528,1619
20.8556,1632
20.8583,1626
20.8611,1621
20.8639,1615
20.8667,1622
20.8694,1627
20.8722,1631
20.8750,1637
20.8778,1640
20.8806,1638
20.8833,1628
20.8861,1635
20.8889,1635
20.8917,1643
20.8944,1661
20.8972,1667
20.9000,1667
20.9028,1659
20.9056,1653
20.9083,1652
20.9111,1648
20.9139,1662
20.9167,1658
20.9194,1662
20.9222,1666
20.9250,1671
20.9278,1669
20.9306,1679
20.9333,1682
20.9361,1684
20.9389,1670
20.9417,1664
20.9444,1662
20.9472,1657
20.9500,1659
20.9528,1656
20.9556,1655
20.9583,1657
20.9611,1655
20.9639,1647
20.9667,1648
20.9694,1653
20.9722,1659
20.9750,1662
20.9778,1659
20.9806,1661
20.9833,1658
20.9861,1648
20.9889,1655
20.9917,1662
20.9944,1665
20.9972,1658
21.0000,1669
21.0028,1658
21.0056,1656
21.0083,1661
21.0111,1663
21.0139,1664
21.0167,1674
21.0194,1669
21.0222,1665
21.0250,1661
21.0278,1653
21.0306,1655
21.0333,1658
21.0361,1660
21.0389,1662
21.0417,1661
21.0444,1655
21.0472,1652
21.0500,1655
21.0528,1663
21.0556,1668
21.0583,1659
21.0611,1659
21.0639,1658
21.0667,1654
21.0694,1659
21.0722,1672
21.0750,1686
21.0778,1719
21.0806,1759
21.0833,1786
21.0861,1801
21.0889,1816
21.0917,1805
21.0944,1810
21.0972,1809
21.1000,1839
21.1028,1878
21.1056,1905
21.1083,1910
21.1111,1925
21.1139,1924
21.1167,1914
21.1194,1897
21.1222,1880
21.1250,1823
21.1278,1773
21.1306,1740
21.1333,1712
21.1361,1660
21.1389,1621
21.1417,1593
21.1444,1580
21.1472,1582
21.1500,1590
21.1528,1592
21.1556,1601
21.1583,1593
21.1611,1589
21.1639,1583
21.1667,1563
21.1694,1569
21.1722,1570
21.1750,1577
21.1778,1589
21.1806,1583
21.1833,1583
21.1861,1569
21.1889,1585
21.1917,1592
21.1944,1590
21.1972,1588
21.2000,1593
21.2028,1578
21.2056,1582
21.2083,1577
21.2111,1552
21.2139,1512
21.2167,1467
21.2194,1429
21.2222,1436
21.2250,1490
21.2278,1593
21.2306,1757
21.2333,1938
21.2361,2114
21.2389,2287
21.2417,2438
21.2444,2590
21.2472,2742
21.2500,2923
21.2528,3078
21.2556,3014
21.2583,2703
21.2611,2237
21.2639,1741
21.2667,1315
21.2694,1003
21.2722,850
21.2750,821
21.2778,895
21.2806,1039
21.2833,1204
21.2861,1331
21.2889,1439
21.2917,1495
21.2944,1521
21.2972,1537
21.3000,1568
21.3028,1575
21.3056,1572
21.3083,1565
21.3111,1549
21.3139,1540
21.3167,1544
21.3194,1553
21.3222,1573
21.3250,1585
21.3278,1586
21.3306,1586
21.3333,1579
21.3361,1576
21.3389,1585
21.3417,1594
21.3444,1603
21.3472,1606
21.3500,1609
21.3528,1598
21.3556,1603
21.3583,1601
21.3611,1626
21.3639,1637
21.3667,1644
21.3694,1643
21.3722,1628
21.3750,1629
21.3778,1635
21.3806,1648
21.3833,1659
21.3861,1663
21.3889,1658
21.3917,1667
21.3944,1671
21.3972,1680
21.4000,1691
21.4028,1706
21.4056,1711
21.4083,1720
21.4111,1719
21.4139,1719
21.4167,1734
21.4194,1750
21.4222,1770
21.4250,1777
21.4278,1780
21.4306,1791
21.4333,1785
21.4361,1794
21.4389,1800
21.4417,1815
21.4444,1827
21.4472,1844
21.4500,1839
21.4528,1836
21.4556,1846
21.4583,1854
21.4611,1625
21.4639,1631
21.4667,1625
21.4694,1602
21.4722,1580
21.4750,1567
21.4778,1556
21.4806,1564
21.4833,1569
21.4861,1576
21.4889,1562
21.4917,1555
21.4944,1544
21.4972,1551
21.5000,1550
21.5028,1570
21.5056,1564
21.5083,1560
21.5111,1559
21.5139,1550
21.5167,1555
21.5194,1563
21.5222,1567
21.5250,1579
21.5278,1568
21.5306,1568
21.5333,1569
21.5361,1561
21.5389,1576
21.5417,1590
21.5444,1594
21.5472,1600
21.5500,1602
21.5528,1594
21.5556,1597
21.5583,1606
21.5611,1608
21.5639,1621
21.5667,1616
21.5694,1607
21.5722,1603
21.5750,1605
21.5778,1602
21.5806,1618
21.5833,1630
21.5861,1634
21.5889,1627
21.5917,1620
21.5944,1618
21.5972,1619
21.6000,1626
21.6028,1638
21.6056,1636
21.6083,1639
21.6111,1633
21.6139,1630
21.6167,1639
21.6194,1646
21.6222,1651
21.6250,1656
21.6278,1656
21.6306,1649
21.6333,1652
21.6361,1645
21.6389,1646
21.6417,1643
21.6444,1643
21.6472,1645
21.6500,1644
21.6528,1652
21.6556,1641
21.6583,1648
21.6611,1642
21.6639,1646
21.6667,1645
21.6694,1649
21.6722,1634
21.6750,1631
21.6778,1636
21.6806,1637
21.6833,1641
21.6861,1644
21.6889,1649
21.6917,1642
21.6944,1638
21.6972,1641
21.7000,1639
21.7028,1643
21.7056,1643
21.7083,1640
21.7111,1638
21.7139,1632
21.7167,1634
21.7194,1627
21.7222,1635
21.7250,1639
21.7278,1643
21.7306,1643
21.7333,1652
21.7361,1643
21.7389,1645
21.7417,1654
21.7444,1654
21.7472,1645
21.7500,1647
21.7528,1644
21.7556,1643
21.7583,1648
21.7611,1650
21.7639,1652
21.7667,1649
21.7694,1641
21.7722,1636
21.7750,1635
21.7778,1636
21.7806,1646
21.7833,1657
21.7861,1658
21.7889,1664
21.7917,1667
21.7944,1662
21.7972,1665
21.8000,1670
21.8028,1669
21.8056,1680
21.8083,1703
21.8111,1737
21.8139,1755
21.8167,1792
21.8194,1803
21.8222,1810
21.8250,1795
21.8278,1796
21.8306,1809
21.8333,1846
21.8361,1887
21.8389,1907
21.8417,1928
21.8444,1923
21.8472,1921
21.8500,1910
21.8528,1881
21.8556,1842
21.8583,1810
21.8611,1773
21.8639,1724
21.8667,1689
21.8694,1636
21.8722,1600
21.8750,1583
21.8778,1571
21.8806,1591
21.8833,1604
21.8861,1606
21.8889,1601
21.8917,1606
21.8944,1592
21.8972,1597
21.9000,1590
21.9028,1593
21.9056,1596
21.9083,1601
21.9111,1589
21.9139,1591
21.9167,1590
21.9194,1592
21.9222,1591
21.9250,1595
21.9278,1603
21.9306,1610
21.9333,1604
21.9361,1608
21.9389,1598
21.9417,1581
21.9444,1552
21.9472,1506
21.9500,1459
21.9528,1432
21.9556,1452
21.9583,1524
21.9611,1651
21.9639,1817
21.9667,2011
21.9694,2187
21.9722,2343
21.9750,2488
21.9778,2639
21.9806,2820
21.9833,3012
21.9861,3093
21.9889,2938
21.9917,2561
21.9944,2087
21.9972,1618
22.0000,1238
22.0028,980
22.0056,857
22.0083,861
22.0111,954
22.0139,1112
22.0167,1264
22.0194,1393
22.0222,1482
22.0250,1519
22.0278,1546
22.0306,1558
22.0333,1565
22.0361,1584
22.0389,1582
22.0417,1573
22.0444,1571
22.0472,1566
22.0500,1565
22.0528,1587
22.0556,1598
22.0583,1606
22.0611,1609
22.0639,1609
22.0667,1605
22.0694,1609
22.0722,1616
22.0750,1629
22.0778,1636
22.0806,1647
22.0833,1638
22.0861,1635
22.0889,1634
22.0917,1633
22.0944,1640
22.0972,1651
22.1000,1659
22.1028,1648
22.1056,1646
22.1083,1652
22.1111,1652
22.1139,1673
22.1167,1679
22.1194,1689
22.1222,1693
22.1250,1691
22.1278,1697
22.1306,1708
22.1333,1710
22.1361,1716
22.1389,1719
22.1417,1728
22.1444,1724
22.1472,1722
22.1500,1737
22.1528,1751
22.1556,1760
22.1583,1768
22.1611,1785
22.1639,1781
22.1667,1791
22.1694,1799
22.1722,1811
22.1750,1830
22.1778,1831
22.1806,1848
22.1833,1844
22.1861,1848
22.1889,1846
22.1917,1645
22.1944,1655
22.1972,1651
22.2000,1632
22.2028,1607
22.2056,1594
22.2083,1587
22.2111,1572
22.2139,1572
22.2167,1576
22.2194,1565
22.2222,1553
22.2250,1537
22.2278,1537
22.2306,1540
22.2333,1547
22.2361,1552
22.2389,1558
22.2417,1545
22.2444,1538
22.2472,1541
22.2500,1544
22.2528,1553
22.2556,1569
22.2583,1563
22.2611,1564
22.2639,1557
22.2667,1554
22.2694,1547
22.2722,1551
22.2750,1566
22.2778,1574
22.2806,1561
22.2833,1570
22.2861,1564
22.2889,1569
22.2917,1571
22.2944,1590
22.2972,1589
22.3000,1595
22.3028,1587
22.3056,1579
22.3083,1576
22.3111,1580
22.3139,1591
22.3167,1600
22.3194,1600
22.3222,1595
22.3250,1590
22.3278,1590
22.3306,1587
22.3333,1597
22.3361,1603
22.3389,1593
22.3417,1603
22.3444,1600
22.3472,1591
22.3500,1591
22.3528,1604
22.3556,1610
22.3583,1610
22.3611,1603
22.3639,1594
22.3667,1588
22.3694,1590
22.3722,1591
22.3750,1589
22.3778,1597
22.3806,1597
22.3833,1586
22.3861,1585
22.3889,1587
22.3917,1588
22.3944,1583
22.3972,1579
22.4000,1582
22.4028,1577
22.4056,1568
22.4083,1572
22.4111,1577
22.4139,1585
22.4167,1586
22.4194,1587
22.4222,1577
22.4250,1579
22.4278,1566
22.4306,1561
22.4333,1571
22.4361,1574
22.4389,1567
22.4417,1574
22.4444,1566
22.4472,1566
22.4500,1570
22.4528,1580
22.4556,1587
22.4583,1596
22.4611,1600
22.4639,1602
22.4667,1615
22.4694,1612
22.4722,1621
22.4750,1622
22.4778,1620
22.4806,1613
22.4833,1621
22.4861,1613
22.4889,1622
22.4917,1622
22.4944,1628
22.4972,1629
22.5000,1628
22.5028,1623
22.5056,1618
22.5083,1626
22.5111,1623
22.5139,1626
22.5167,1627
22.5194,1635
22.5222,1635
22.5250,1630
22.5278,1634
22.5306,1629
22.5333,1639
22.5361,1646
22.5389,1652
22.5417,1643
22.5444,1640
22.5472,1642
22.5500,1648
22.5528,1647
22.5556,1648
22.5583,1646
22.5611,1647
22.5639,1642
22.5667,1632
22.5694,1641
22.5722,1636
22.5750,1637
22.5778,1651
22.5806,1648
22.5833,1657
22.5861,1642
22.5889,1645
22.5917,1642
22.5944,1641
22.5972,1634
22.6000,1638
22.6028,1629
22.6056,1639
22.6083,1639
22.6111,1661
22.6139,1687
22.6167,1715
22.6194,1748
22.6222,1773
22.6250,1795
22.6278,1793
22.6306,1790
22.6333,1790
22.6361,1802
22.6389,1826
22.6417,1858
22.6444,1885
22.6472,1915
22.6500,1921
22.6528,1919
22.6556,1905
22.6583,1879
22.6611,1843
22.6639,1797
22.6667,1758
22.6694,1726
22.6722,1690
22.6750,1652
22.6778,1610
22.6806,1600
22.6833,1582
22.6861,1585
22.6889,1583
22.6917,1591
22.6944,1595
22.6972,1602
22.7000,1598
22.7028,1598
22.7056,1598
22.7083,1594
22.7111,1597
22.7139,1610
22.7167,1614
22.7194,1608
22.7222,1612
22.7250,1609
22.7278,1603
22.7306,1610
22.7333,1623
22.7361,1618
22.7389,1616
22.7417,1617
22.7444,1613
22.7472,1597
22.7500,1568
22.7528,1515
22.7556,1474
22.7583,1460
22.7611,1483
22.7639,1552
22.7667,1678
22.7694,1845
22.7722,2037
22.7750,2224
22.7778,2392
22.7806,2541
22.7833,2700
22.7861,2871
22.7889,3063
22.7917,3149
22.7944,2971
22.7972,2603
22.8000,2124
22.8028,1653
22.8056,1283
22.8083,1045
22.8111,937
22.8139,945
22.8167,1048
22.8194,1192
22.8222,1332
22.8250,1445
22.8278,1520
22.8306,1567
22.8333,1570
22.8361,1596
22.8389,1611
22.8417,1628
22.8444,1637
22.8472,1626
22.8500,1624
22.8528,1628
22.8556,1628
22.8583,1645
22.8611,1664
22.8639,1664
22.8667,1669
22.8694,1667
22.8722,1668
22.8750,1670
22.8778,1686
22.8806,1693
22.8833,1703
22.8861,1710
22.8889,1697
22.8917,1697
22.8944,1699
22.8972,1715
22.9000,1719
22.9028,1733
22.9056,1729
22.9083,1728
22.9111,1738
22.9139,1731
22.9167,1761
22.9194,1773
22.9222,1783
22.9250,1786
22.9278,1776
22.9306,1779
22.9333,1777
22.9361,1778
22.9389,1805
22.9417,1810
22.9444,1824
22.9472,1824
22.9500,1835
22.9528,1830
22.9556,1830
22.9583,1853
22.9611,1868
22.9639,1887
22.9667,1870
22.9694,1874
22.9722,1872
22.9750,1894
22.9778,1898
22.9806,1918
22.9833,1928
22.9861,1936
22.9889,1944
22.9917,1948
22.9944,1952
22.9972,1778
23.0000,1777
23.0028,1765
23.0056,1749
23.0083,1724
23.0111,1706
23.0139,1705
23.0167,1701
23.0194,1698
23.0222,1689
23.0250,1677
23.0278,1666
23.0306,1672
23.0333,1663
23.0361,1666
23.0389,1686
23.0417,1682
23.0444,1674
23.0472,1672
23.0500,1668
23.0528,1660
23.0556,1672
23.0583,1674
23.0611,1687
23.0639,1682
23.0667,1677
23.0694,1677
23.0722,1678
23.0750,1678
23.0778,1684
23.0806,1690
23.0833,1695
23.0861,1691
23.0889,1688
23.0917,1683
23.0944,1686
23.0972,1689
23.1000,1710
23.1028,1716
23.1056,1718
23.1083,1710
23.1111,1713
23.1139,1701
23.1167,1701
23.1194,1716
23.1222,1722
23.1250,1726
23.1278,1721
23.1306,1730
23.1333,1721
23.1361,1724
23.1389,1729
23.1417,1733
23.1444,1732
23.1472,1723
23.1500,1720
23.1528,1715
23.1556,1726
23.1583,1727
23.1611,1743
23.1639,1740
23.1667,1728
23.1694,1727
23.1722,1714
23.1750,1718
23.1778,1715
23.1806,1713
23.1833,1712
23.1861,1708
23.1889,1703
23.1917,1703
23.1944,1709
23.1972,1706
23.2000,1716
23.2028,1716
23.2056,1699
23.2083,1699
23.2111,1701
23.2139,1699
23.2167,1701
23.2194,1709
23.2222,1702
23.2250,1698
23.2278,1690
23.2306,1683
23.2333,1674
23.2361,1689
23.2389,1697
23.2417,1699
23.2444,1701
23.2472,1684
23.2500,1687
23.2528,1693
23.2556,1690
23.2583,1704
23.2611,1693
23.2639,1692
23.2667,1684
23.2694,1682
23.2722,1684
23.2750,1688
23.2778,1689
23.2806,1695
23.2833,1701
23.2861,1698
23.2889,1692
23.2917,1686
23.2944,1691
23.2972,1694
23.3000,1688
23.3028,1689
23.3056,1690
23.3083,1696
23.3111,1688
23.3139,1695
23.3167,1693
23.3194,1692
23.3222,1706
23.3250,1701
23.3278,1692
23.3306,1689
23.3333,1691
23.3361,1688
23.3389,1683
23.3417,1684
23.3444,1680
23.3472,1682
23.3500,1684
23.3528,1688
23.3556,1689
23.3583,1689
23.3611,1690
23.3639,1688
23.3667,1686
23.3694,1680
23.3722,1678
23.3750,1679
23.3778,1694
23.3806,1697
23.3833,1699
23.3861,1690
23.3889,1688
23.3917,1686
23.3944,1687
23.3972,1692
23.4000,1692
23.4028,1688
23.4056,1693
23.4083,1688
23.4111,1687
23.4139,1680
23.4167,1677
23.4194,1686
23.4222,1693
23.4250,1697
23.4278,1684
23.4306,1678
23.4333,1688
23.4361,1677
23.4389,1691
23.4417,1685
23.4444,1701
23.4472,1690
23.4500,1690
23.4528,1688
23.4556,1702
23.4583,1695
23.4611,1700
23.4639,1700
23.4667,1707
23.4694,1718
23.4722,1736
23.4750,1763
23.4778,1783
23.4806,1810
23.4833,1832
23.4861,1833
23.4889,1828
23.4917,1817
23.4944,1820
23.4972,1861
23.5000,1896
23.5028,1932
23.5056,1953
23.5083,1967
23.5111,1963
23.5139,1953
23.5167,1929
23.5194,1902
23.5222,1871
23.5250,1837
23.5278,1801
23.5306,1770
23.5333,1723
23.5361,1677
23.5389,1660
23.5417,1651
23.5444,1652
23.5472,1652
23.5500,1658
23.5528,1657
23.5556,1654
23.5583,1644
23.5611,1644
23.5639,1646
23.5667,1649
23.5694,1639
23.5722,1636
23.5750,1642
23.5778,1649
23.5806,1639
23.5833,1646
23.5861,1654
23.5889,1662
23.5917,1663
23.5944,1661
23.5972,1663
23.6000,1662
23.6028,1650
23.6056,1638
23.6083,1617
23.6111,1572
23.6139,1524
23.6167,1490
23.6194,1510
23.6222,1562
23.6250,1673
23.6278,1840
23.6306,2024
23.6333,2215
23.6361,2385
23.6389,2529
23.6417,2690
23.6444,2842
23.6472,3024
23.6500,3151
23.6528,3057
23.6556,2731
23.6583,2275
23.6611,1806
23.6639,1397
23.6667,1127
23.6694,976
23.6722,949
23.6750,1021
23.6778,1157
23.6806,1307
23.6833,1435
23.6861,1517
23.6889,1567
23.6917,1593
23.6944,1598
23.6972,1621
23.7000,1640
23.7028,1639
23.7056,1633
23.7083,1618
23.7111,1609
23.7139,1627
23.7167,1632
23.7194,1643
23.7222,1660
23.7250,1660
23.7278,1671
23.7306,1663
23.7333,1659
23.7361,1672
23.7389,1680
23.7417,1692
23.7444,1691
23.7472,1684
23.7500,1680
23.7528,1683
23.7556,1696
23.7583,1709
23.7611,1720
23.7639,1722
23.7667,1710
23.7694,1708
23.7722,1702
23.7750,1710
23.7778,1728
23.7806,1755
23.7833,1759
23.7861,1755
23.7889,1755
23.7917,1751
23.7944,1752
23.7972,1763
23.8000,1774
23.8028,1781
23.8056,1781
23.8083,1782
23.8111,1780
23.8139,1789
23.8167,1804
23.8194,1819
23.8222,1830
23.8250,1847
23.8278,1848
23.8306,1848
23.8333,1854
23.8361,1864
23.8389,1888
23.8417,1892
23.8444,1905
23.8472,1910
23.8500,1915
23.8528,1910
23.8556,1741
23.8583,1749
23.8611,1734
23.8639,1715
23.8667,1692
23.8694,1670
23.8722,1654
23.8750,1653
23.8778,1663
23.8806,1660
23.8833,1646
23.8861,1631
23.8889,1610
23.8917,1603
23.8944,1602
23.8972,1592
23.9000,1615
23.9028,1623
23.9056,1610
23.9083,1599
23.9111,1593
23.9139,1593
23.9167,1613
23.9194,1612
23.9222,1623
23.9250,1618
23.9278,1605
23.9306,1592
23.9333,1594
23.9361,1607
23.9389,1609
23.9417,1621
23.9444,1621
23.9472,1618
23.9500,1612
23.9528,1609
23.9556,1622
23.9583,1631
23.9611,1641
23.9639,1639
23.9667,1640
23.9694,1638
23.9722,1642
23.9750,1636
23.9778,1644
23.9806,1639
23.9833,1635
23.9861,1639
23.9889,1630
23.9917,1629
23.9944,1635
23.9972,1636
24.0000,1646
24.0028,1647
24.0056,1641
24.0083,1632
24.0111,1632
24.0139,1640
24.0167,1644
24.0194,1651
24.0222,1642
24.0250,1641
24.0278,1628
24.0306,1627
24.0333,1628
24.0361,1636
24.0389,1638
24.0417,1638
24.0444,1644
24.0472,1630
24.0500,1631
24.0528,1628
24.0556,1623
24.0583,1628
24.0611,1619
24.0639,1619
24.0667,1613
24.0694,1604
24.0722,1614
24.0750,1611
24.0778,1622
24.0806,1622
24.0833,1625
24.0861,1623
24.0889,1618
24.0917,1615
24.0944,1611
24.0972,1610
24.1000,1614
24.1028,1607
24.1056,1612
24.1083,1607
24.1111,1609
24.1139,1612
24.1167,1614
24.1194,1614
24.1222,1616
24.1250,1613
24.1278,1614
24.1306,1610
24.1333,1613
24.1361,1617
24.1389,1620
24.1417,1615
24.1444,1615
24.1472,1613
24.1500,1608
24.1528,1613
24.1556,1614
24.1583,1622
24.1611,1625
24.1639,1626
24.1667,1618
24.1694,1613
24.1722,1621
24.1750,1613
24.1778,1621
24.1806,1617
24.1833,1618
24.1861,1617
24.1889,1604
24.1917,1617
24.1944,1607
24.1972,1616
24.2000,1621
24.2028,1618
24.2056,1618
24.2083,1610
24.2111,1613
24.2139,1613
24.2167,1624
24.2194,1626
24.2222,1634
24.2250,1640
24.2278,1629
24.2306,1628
24.2333,1625
24.2361,1622
24.2389,1634
24.2417,1634
24.2444,1627
24.2472,1627
24.2500,1621
24.2528,1618
24.2556,1622
24.2583,1624
24.2611,1629
24.2639,1634
24.2667,1630
24.2694,1630
24.2722,1637
24.2750,1643
24.2778,1637
24.2806,1629
24.2833,1630
24.2861,1636
24.2889,1626
24.2917,1631
24.2944,1620
24.2972,1633
24.3000,1642
24.3028,1644
24.3056,1648
24.3083,1650
24.3111,1655
24.3139,1643
24.3167,1646
24.3194,1663
24.3222,1683
24.3250,1710
24.3278,1729
24.3306,1760
24.3333,1784
24.3361,1785
24.3389,1785
24.3417,1780
24.3444,1772
24.3472,1779
24.3500,1819
24.3528,1864
24.3556,1888
24.3583,1919
24.3611,1924
24.3639,1916
24.3667,1905
24.3694,1871
24.3722,1839
24.3750,1804
24.3778,1772
24.3806,1736
24.3833,1708
24.3861,1670
24.3889,1632
24.3917,1607
24.3944,1598
24.3972,1594
24.4000,1594
24.4028,1597
24.4056,1603
24.4083,1600
24.4111,1592
24.4139,1586
24.4167,1594
24.4194,1602
24.4222,1605
24.4250,1603
24.4278,1603
24.4306,1604
24.4333,1597
24.4361,1594
24.4389,1610
24.4417,1610
24.4444,1615
24.4472,1616
24.4500,1609
24.4528,1611
24.4556,1601
24.4583,1602
24.4611,1573
24.4639,1521
24.4667,1468
24.4694,1445
24.4722,1464
24.4750,1528
24.4778,1647
24.4806,1815
24.4833,1997
24.4861,2189
24.4889,2358
24.4917,2508
24.4944,2653
24.4972,2811
24.5000,2985
24.5028,3095
24.5056,2979
24.5083,2646
24.5111,2197
24.5139,1746
24.5167,1356
24.5194,1088
24.5222,943
24.5250,907
24.5278,982
24.5306,1111
24.5333,1253
24.5361,1376
24.5389,1465
24.5417,1522
24.5444,1545
24.5472,1560
24.5500,1580
24.5528,1594
24.5556,1608
24.5583,1602
24.5611,1593
24.5639,1591
24.5667,1587
24.5694,1598
24.5722,1620
24.5750,1631
24.5778,1638
24.5806,1631
24.5833,1627
24.5861,1626
24.5889,1653
24.5917,1659
24.5944,1664
24.5972,1666
24.6000,1662
24.6028,1652
24.6056,1646
24.6083,1654
24.6111,1666
24.6139,1680
24.6167,1687
24.6194,1690
24.6222,1681
24.6250,1692
24.6278,1693
24.6306,1703
24.6333,1717
24.6361,1724
24.6389,1727
24.6417,1726
24.6444,1720
24.6472,1720
24.6500,1743
24.6528,1751
24.6556,1762
24.6583,1773
24.6611,1771
24.6639,1774
24.6667,1776
24.6694,1791
24.6722,1805
24.6750,1816
24.6778,1831
24.6806,1835
24.6833,1834
24.6861,1849
24.6889,1866
24.6917,1881
24.6944,1895
24.6972,1898
24.7000,1911
24.7028,1918
24.7056,1922
24.7083,1748
24.7111,1759
24.7139,1751
24.7167,1739
24.7194,1706
24.7222,1690
24.7250,1672
24.7278,1673
24.7306,1668
24.7333,1664
24.7361,1658
24.7389,1646
24.7417,1631
24.7444,1631
24.7472,1636
24.7500,1631
24.7528,1639
24.7556,1639
24.7583,1634
24.7611,1629
24.7639,1624
24.7667,1641
24.7694,1641
24.7722,1658
24.7750,1657
24.7778,1655
24.7806,1649
24.7833,1650
24.7861,1649
24.7889,1660
24.7917,1664
24.7944,1671
24.7972,1673
24.8000,1674
24.8028,1671
24.8056,1668
24.8083,1687
24.8111,1693
24.8139,1691
24.8167,1694
24.8194,1686
24.8222,1690
24.8250,1691
24.8278,1693
24.8306,1703
24.8333,1706
24.8361,1708
24.8389,1710
24.8417,1700
24.8444,1705
24.8472,1711
24.8500,1718
24.8528,1718
24.8556,1725
24.8583,1726
24.8611,1713
24.8639,1715
24.8667,1721
24.8694,1723
24.8722,1729
24.8750,1726
24.8778,1714
24.8806,1719
24.8833,1711
24.8861,1709
24.8889,1710
24.8917,1721
24.8944,1725
24.8972,1712
24.9000,1707
24.9028,1696
24.9056,1699
24.9083,1699
24.9111,1710
24.9139,1716
24.9167,1715
24.9194,1700
24.9222,1696
24.9250,1697
24.9278,1699
24.9306,1698
24.9333,1696
24.9361,1703
24.9389,1702
24.9417,1701
24.9444,1702
24.9472,1699
24.9500,1700
24.9528,1702
24.9556,1708
24.9583,1696
24.9611,1686
24.9639,1688
24.9667,1682
24.9694,1682
24.9722,1690
24.9750,1688
24.9778,1689
24.9806,1678
24.9833,1681
24.9861,1690
24.9889,1693
24.9917,1696
24.9944,1702
24.9972,1690
25.0000,1690
25.0028,1681
25.0056,1686
25.0083,1687
25.0111,1684
25.0139,1690
25.0167,1690
25.0194,1682
25.0222,1678
25.0250,1677
25.0278,1680
25.0306,1682
25.0333,1682
25.0361,1676
25.0389,1677
25.0417,1668
25.0444,1665
25.0472,1660
25.0500,1668
25.0528,1679
25.0556,1682
25.0583,1681
25.0611,1680
25.0639,1676
25.0667,1675
25.0694,1680
25.0722,1689
25.0750,1693
25.0778,1686
25.0806,1681
25.0833,1682
25.0861,1682
25.0889,1688
25.0917,1700
25.0944,1697
25.0972,1695
25.1000,1693
25.1028,1697
25.1056,1689
25.1083,1692
25.1111,1692
25.1139,1693
25.1167,1698
25.1194,1702
25.1222,1704
25.1250,1700
25.1278,1695
25.1306,1703
25.1333,1699
25.1361,1701
25.1389,1702
25.1417,1692
25.1444,1692
25.1472,1703
25.1500,1703
25.1528,1706
25.1556,1704
25.1583,1703
25.1611,1702
25.1639,1702
25.1667,1701
25.1694,1704
25.1722,1705
25.1750,1728
25.1778,1747
25.1806,1781
25.1833,1807
25.1861,1835
25.1889,1840
25.1917,1831
25.1944,1817
25.1972,1810
25.2000,1821
25.2028,1864
25.2056,1903
25.2083,1931
25.2111,1950
25.2139,1953
25.2167,1959
25.2194,1920
25.2222,1898
25.2250,1845
25.2278,1816
25.2306,1791
25.2333,1759
25.2361,1723
25.2389,1690
25.2417,1661
25.2444,1637
25.2472,1631
25.2500,1640
25.2528,1641
25.2556,1640
25.2583,1636
25.2611,1636
25.2639,1634
25.2667,1640
25.2694,1628
25.2722,1632
25.2750,1628
25.2778,1623
25.2806,1627
25.2833,1623
25.2861,1628
25.2889,1619
25.2917,1627
25.2944,1634
25.2972,1637
25.3000,1639
25.3028,1638
25.3056,1635
25.3083,1631
25.3111,1618
25.3139,1576
25.3167,1527
25.3194,1473
25.3222,1467
25.3250,1508
25.3278,1590
25.3306,1725
25.3333,1905
25.3361,2088
25.3389,2263
25.3417,2421
25.3444,2560
25.3472,2727
25.3500,2884
25.3528,3066
25.3556,3091
25.3583,2865
25.3611,2451
25.3639,1985
25.3667,1549
25.3694,1223
25.3722,1014
25.3750,933
25.3778,955
25.3806,1056
25.3833,1204
25.3861,1348
25.3889,1451
25.3917,1509
25.3944,1545
25.3972,1563
25.4000,1573
25.4028,1601
25.4056,1611
25.4083,1616
25.4111,1606
25.4139,1610
25.4167,1600
25.4194,1608
25.4222,1618
25.4250,1635
25.4278,1649
25.4306,1648
25.4333,1637
25.4361,1639
25.4389,1652
25.4417,1671
25.4444,1677
25.4472,1680
25.4500,1672
25.4528,1660
25.4556,1657
25.4583,1658
25.4611,1678
25.4639,1688
25.4667,1685
25.4694,1694
25.4722,1687
25.4750,1683
25.4778,1686
25.4806,1707
25.4833,1714
25.4861,1718
25.4889,1724
25.4917,1724
25.4944,1725
25.4972,1725
25.5000,1746
25.5028,1756
25.5056,1770
25.5083,1770
25.5111,1770
25.5139,1766
25.5167,1773
25.5194,1787
25.5222,1799
25.5250,1822
25.5278,1833
25.5306,1828
25.5333,1831
25.5361,1833
25.5389,1850
25.5417,1862
25.5444,1876
25.5472,1878
25.5500,1887
25.5528,1896
25.5556,1898
25.5583,1895
25.5611,1735
25.5639,1743
25.5667,1720
25.5694,1706
25.5722,1686
25.5750,1662
25.5778,1661
25.5806,1650
25.5833,1653
25.5861,1646
25.5889,1638
25.5917,1625
25.5944,1612
25.5972,1607
25.6000,1605
25.6028,1614
25.6056,1621
25.6083,1632
25.6111,1619
25.6139,1609
25.6167,1610
25.6194,1620
25.6222,1618
25.6250,1621
25.6278,1623
25.6306,1626
25.6333,1615
25.6361,1624
25.6389,1621
25.6417,1634
25.6444,1634
25.6472,1632
25.6500,1625
25.6528,1632
25.6556,1615
25.6583,1619
25.6611,1626
25.6639,1633
25.6667,1647
25.6694,1629
25.6722,1635
25.6750,1625
25.6778,1631
25.6806,1643
25.6833,1638
25.6861,1655
25.6889,1645
25.6917,1652
25.6944,1647
25.6972,1640
25.7000,1646
25.7028,1651
25.7056,1651
25.7083,1644
25.7111,1634
25.7139,1635
25.7167,1639
25.7194,1644
25.7222,1652
25.7250,1653
25.7278,1655
25.7306,1646
25.7333,1637
25.7361,1633
25.7389,1635
25.7417,1631
25.7444,1631
25.7472,1630
25.7500,1621
25.7528,1618
25.7556,1608
25.7583,1612
25.7611,1619
25.7639,1625
25.7667,1623
25.7694,1626
25.7722,1622
25.7750,1615
25.7778,1622
25.7806,1629
25.7833,1642
25.7861,1639
25.7889,1627
25.7917,1629
25.7944,1621
25.7972,1619
25.8000,1617
25.8028,1619
25.8056,1618
25.8083,1629
25.8111,1624
25.8139,1628
25.8167,1628
25.8194,1619
25.8222,1627
25.8250,1630
25.8278,1631
25.8306,1633
25.8333,1630
25.8361,1632
25.8389,1624
25.8417,1631
25.8444,1634
25.8472,1636
25.8500,1632
25.8528,1630
25.8556,1639
25.8583,1641
25.8611,1645
25.8639,1636
25.8667,1633
25.8694,1635
25.8722,1625
25.8750,1629
25.8778,1632
25.8806,1631
25.8833,1635
25.8861,1644
25.8889,1633
25.8917,1637
25.8944,1620
25.8972,1636
25.9000,1628
25.9028,1639
25.9056,1644
25.9083,1651
25.9111,1633
25.9139,1630
25.9167,1628
25.9194,1634
25.9222,1649
25.9250,1656
25.9278,1654
25.9306,1660
25.9333,1663
25.9361,1655
25.9389,1661
25.9417,1661
25.9444,1659
25.9472,1655
25.9500,1649
25.9528,1650
25.9556,1649
25.9583,1665
25.9611,1669
25.9639,1663
25.9667,1668
25.9694,1657
25.9722,1666
25.9750,1670
25.9778,1663
25.9806,1673
25.9833,1674
25.9861,1671
25.9889,1686
25.9917,1678
25.9944,1675
25.9972,1678
26.0000,1682
26.0028,1694
26.0056,1703
26.0083,1722
26.0111,1740
26.0139,1766
26.0167,1789
26.0194,1799
26.0222,1801
26.0250,1803
26.0278,1780
26.0306,1775
26.0333,1801
26.0361,1830
26.0389,1862
26.0417,1886
26.0444,1900
26.0472,1917
26.0500,1910
26.0528,1901
26.0556,1871
26.0583,1814
26.0611,1758
26.0639,1723
26.0667,1692
26.0694,1663
26.0722,1646
26.0750,1632
26.0778,1630
26.0806,1627
26.0833,1636
26.0861,1636
26.0889,1641
26.0917,1642
26.0944,1632
26.0972,1632
26.1000,1628
26.1028,1625
26.1056,1633
26.1083,1625
26.1111,1621
26.1139,1623
26.1167,1628
26.1194,1632
26.1222,1633
26.1250,1636
26.1278,1639
26.1306,1642
26.1333,1633
26.1361,1632
26.1389,1627
26.1417,1619
26.1444,1596
26.1472,1558
26.1500,1505
26.1528,1483
26.1556,1481
26.1583,1530
26.1611,1635
26.1639,1801
26.1667,1981
26.1694,2173
26.1722,2347
26.1750,2493
26.1778,2633
26.1806,2792
26.1833,2966
26.1861,3098
26.1889,3016
26.1917,2710
26.1944,2272
26.1972,1816
26.2000,1423
26.2028,1133
26.2056,979
26.2083,928
26.2111,991
26.2139,1108
26.2167,1254
26.2194,1379
26.2222,1465
26.2250,1515
26.2278,1549
26.2306,1564
26.2333,1583
26.2361,1612
26.2389,1614
26.2417,1614
26.2444,1604
26.2472,1604
26.2500,1609
26.2528,1612
26.2556,1630
26.2583,1635
26.2611,1635
26.2639,1627
26.2667,1633
26.2694,1631
26.2722,1637
26.2750,1657
26.2778,1667
26.2806,1671
26.2833,1663
26.2861,1658
26.2889,1654
26.2917,1656
26.2944,1662
26.2972,1681
26.3000,1682
26.3028,1673
26.3056,1678
26.3083,1674
26.3111,1676
26.3139,1684
26.3167,1695
26.3194,1693
26.3222,1697
26.3250,1692
26.3278,1692
26.3306,1704
26.3333,1711
26.3361,1722
26.3389,1735
26.3417,1742
26.3444,1740
26.3472,1749
26.3500,1753
26.3528,1764
26.3556,1780
26.3583,1796
26.3611,1802
26.3639,1806
26.3667,1807
26.3694,1808
26.3722,1831
26.3750,1831
26.3778,1854
26.3806,1866
26.3833,1863
26.3861,1864
26.3889,1877
26.3917,1730
26.3944,1726
26.3972,1712
26.4000,1689
26.4028,1657
26.4056,1640
26.4083,1620
26.4111,1617
26.4139,1613
26.4167,1609
26.4194,1608
26.4222,1597
26.4250,1582
26.4278,1579
26.4306,1581
26.4333,1567
26.4361,1580
26.4389,1579
26.4417,1579
26.4444,1578
26.4472,1573
26.4500,1581
26.4528,1574
26.4556,1588
26.4583,1588
26.4611,1578
26.4639,1569
26.4667,1561
26.4694,1564
26.4722,1577
26.4750,1588
26.4778,1590
26.4806,1591
26.4833,1581
26.4861,1579
26.4889,1573
26.4917,1574
