Tiempo(s),Valor_ADC
0.0028,1044
0.0056,932
0.0083,879
0.0111,920
0.0139,1055
0.0167,1318
0.0194,1720
0.0222,2000
0.0250,2027
0.0278,1953
0.0306,1877
0.0333,1820
0.0361,1729
0.0389,1460
0.0417,1111
0.0444,826
0.0472,626
0.0500,514
0.0528,437
0.0556,379
0.0583,375
0.0611,408
0.0639,448
0.0667,521
0.0694,622
0.0722,754
0.0750,896
0.0778,1025
0.0806,1156
0.0833,1286
0.0861,1388
0.0889,1479
0.0917,1542
0.0944,1587
0.0972,1631
0.1000,1674
0.1028,1714
0.1056,1736
0.1083,1761
0.1111,1772
0.1139,1766
0.1167,1768
0.1194,1803
0.1222,1856
0.1250,1903
0.1278,1937
0.1306,1947
0.1333,1968
0.1361,1969
0.1389,1983
0.1417,2022
0.1444,2047
0.1472,2078
0.1500,2094
0.1528,2119
0.1556,2160
0.1583,2210
0.1611,2255
0.1639,2309
0.1667,2344
0.1694,2380
0.1722,2403
0.1750,2388
0.1778,2401
0.1806,2409
0.1833,2433
0.1861,2454
0.1889,2469
0.1917,2472
0.1944,2468
0.1972,2463
0.2000,2454
0.2028,2442
0.2056,2425
0.2083,2401
0.2111,2387
0.2139,2347
0.2167,2303
0.2194,2257
0.2222,2219
0.2250,2175
0.2278,2150
0.2306,2131
0.2333,2118
0.2361,2093
0.2389,2059
0.2417,2031
0.2444,1999
0.2472,1987
0.2500,1966
0.2528,1946
0.2556,1918
0.2583,1892
0.2611,1869
0.2639,1876
0.2667,1873
0.2694,1869
0.2722,1864
0.2750,1861
0.2778,1874
0.2806,1892
0.2833,1919
0.2861,1920
0.2889,1901
0.2917,1864
0.2944,1844
0.2972,1857
0.3000,1893
0.3028,1938
0.3056,1984
0.3083,2031
0.3111,2058
0.3139,2067
0.3167,2059
0.3194,2059
0.3222,2057
0.3250,2054
0.3278,2035
0.3306,2011
0.3333,1957
0.3361,1894
0.3389,1803
0.3417,1716
0.3444,1639
0.3472,1566
0.3500,1497
0.3528,1435
0.3556,1406
0.3583,1373
0.3611,1351
0.3639,1335
0.3667,1351
0.3694,1370
0.3722,1381
0.3750,1373
0.3778,1361
0.3806,1354
0.3833,1362
0.3861,1370
0.3889,1364
0.3917,1372
0.3944,1378
0.3972,1393
0.4000,1386
0.4028,1337
0.4056,1251
0.4083,1129
0.4111,1010
0.4139,903
0.4167,864
0.4194,914
0.4222,1074
0.4250,1356
0.4278,1778
0.4306,2022
0.4333,2030
0.4361,1929
0.4389,1808
0.4417,1711
0.4444,1563
0.4472,1218
0.4500,826
0.4528,527
0.4556,344
0.4583,267
0.4611,249
0.4639,271
0.4667,311
0.4694,372
0.4722,461
0.4750,574
0.4778,686
0.4806,798
0.4833,914
0.4861,1049
0.4889,1193
0.4917,1315
0.4944,1429
0.4972,1518
0.5000,1576
0.5028,1619
0.5056,1649
0.5083,1690
0.5111,1722
0.5139,1752
0.5167,1775
0.5194,1797
0.5222,1816
0.5250,1831
0.5278,1848
0.5306,1881
0.5333,1917
0.5361,1930
0.5389,1954
0.5417,1969
0.5444,1976
0.5472,2010
0.5500,2043
0.5528,2091
0.5556,2142
0.5583,2179
0.5611,2213
0.5639,2234
0.5667,2264
0.5694,2309
0.5722,2347
0.5750,2381
0.5778,2415
0.5806,2424
0.5833,2443
0.5861,2455
0.5889,2471
0.5917,2504
0.5944,2506
0.5972,2515
0.6000,2523
0.6028,2517
0.6056,2501
0.6083,2480
0.6111,2462
0.6139,2455
0.6167,2424
0.6194,2387
0.6222,2343
0.6250,2287
0.6278,2246
0.6306,2214
0.6333,2182
0.6361,2149
0.6389,2124
0.6417,2085
0.6444,2054
0.6472,2022
0.6500,1999
0.6528,1981
0.6556,1951
0.6583,1925
0.6611,1904
0.6639,1878
0.6667,1856
0.6694,1842
0.6722,1836
0.6750,1842
0.6778,1836
0.6806,1836
0.6833,1821
0.6861,1830
0.6889,1851
0.6917,1873
0.6944,1876
0.6972,1889
0.7000,1872
0.7028,1851
0.7056,1833
0.7083,1840
0.7111,1864
0.7139,1888
0.7167,1935
0.7194,1966
0.7222,1996
0.7250,2021
0.7278,2040
0.7306,2047
0.7333,2068
0.7361,2049
0.7389,2020
0.7417,1981
0.7444,1928
0.7472,1871
0.7500,1806
0.7528,1728
0.7556,1645
0.7583,1576
0.7611,1515
0.7639,1464
0.7667,1431
0.7694,1406
0.7722,1383
0.7750,1368
0.7778,1371
0.7806,1377
0.7833,1380
0.7861,1374
0.7889,1381
0.7917,1378
0.7944,1370
0.7972,1371
0.8000,1381
0.8028,1397
0.8056,1401
0.8083,1419
0.8111,1432
0.8139,1425
0.8167,1360
0.8194,1265
0.8222,1150
0.8250,1026
0.8278,968
0.8306,990
0.8333,1111
0.8361,1353
0.8389,1726
0.8417,1924
0.8444,1941
0.8472,1889
0.8500,1827
0.8528,1779
0.8556,1641
0.8583,1359
0.8611,1106
0.8639,929
0.8667,801
0.8694,713
0.8722,620
0.8750,525
0.8778,450
0.8806,428
0.8833,448
0.8861,521
0.8889,603
0.8917,702
0.8944,811
0.8972,911
0.9000,1024
0.9028,1141
0.9056,1247
0.9083,1344
0.9111,1424
0.9139,1481
0.9167,1511
0.9194,1554
0.9222,1590
0.9250,1627
0.9278,1667
0.9306,1689
0.9333,1715
0.9361,1738
0.9389,1757
0.9417,1778
0.9444,1797
0.9472,1801
0.9500,1817
0.9528,1829
0.9556,1848
0.9583,1874
0.9611,1904
0.9639,1947
0.9667,1989
0.9694,2030
0.9722,2053
0.9750,2068
0.9778,2100
0.9806,2131
0.9833,2175
0.9861,2221
0.9889,2270
0.9917,2299
0.9944,2333
0.9972,2354
1.0000,2377
1.0028,2400
1.0056,2420
1.0083,2441
1.0111,2448
1.0139,2452
1.0167,2442
1.0194,2430
1.0222,2419
1.0250,2408
1.0278,2371
1.0306,2337
1.0333,2297
1.0361,2283
1.0389,2253
1.0417,2232
1.0444,2202
1.0472,2168
1.0500,2133
1.0528,2102
1.0556,2057
1.0583,2022
1.0611,1974
1.0639,1939
1.0667,1908
1.0694,1895
1.0722,1880
1.0750,1855
1.0778,1829
1.0806,1811
1.0833,1799
1.0861,1792
1.0889,1787
1.0917,1786
1.0944,1795
1.0972,1820
1.1000,1840
1.1028,1847
1.1056,1849
1.1083,1850
1.1111,1821
1.1139,1791
1.1167,1755
1.1194,1772
1.1222,1814
1.1250,1866
1.1278,1912
1.1306,1953
1.1333,1992
1.1361,2003
1.1389,2001
1.1417,1999
1.1444,1998
1.1472,1997
1.1500,1984
1.1528,1956
1.1556,1911
1.1583,1845
1.1611,1770
1.1639,1694
1.1667,1614
1.1694,1554
1.1722,1496
1.1750,1460
1.1778,1412
1.1806,1393
1.1833,1383
1.1861,1383
1.1889,1366
1.1917,1356
1.1944,1349
1.1972,1359
1.2000,1366
1.2028,1378
1.2056,1388
1.2083,1405
1.2111,1387
1.2139,1393
1.2167,1383
1.2194,1403
1.2222,1419
1.2250,1413
1.2278,1356
1.2306,1271
1.2333,1151
1.2361,1040
1.2389,979
1.2417,1004
1.2444,1133
1.2472,1402
1.2500,1749
1.2528,1928
1.2556,1937
1.2583,1885
1.2611,1854
1.2639,1803
1.2667,1648
1.2694,1413
1.2722,1224
1.2750,1106
1.2778,996
1.2806,869
1.2833,745
1.2861,624
1.2889,517
1.2917,450
1.2944,462
1.2972,531
1.3000,624
1.3028,744
1.3056,856
1.3083,964
1.3111,1055
1.3139,1138
1.3167,1226
1.3194,1310
1.3222,1387
1.3250,1457
1.3278,1504
1.3306,1558
1.3333,1618
1.3361,1664
1.3389,1704
1.3417,1735
1.3444,1734
1.3472,1739
1.3500,1746
1.3528,1762
1.3556,1794
1.3583,1817
1.3611,1831
1.3639,1848
1.3667,1867
1.3694,1895
1.3722,1932
1.3750,1970
1.3778,2014
1.3806,2036
1.3833,2062
1.3861,2089
1.3889,2120
1.3917,2148
1.3944,2201
1.3972,2254
1.4000,2291
1.4028,2318
1.4056,2347
1.4083,2372
1.4111,2394
1.4139,2417
1.4167,2422
1.4194,2423
1.4222,2419
1.4250,2420
1.4278,2418
1.4306,2410
1.4333,2405
1.4361,2395
1.4389,2355
1.4417,2341
1.4444,2289
1.4472,2258
1.4500,2213
1.4528,2181
1.4556,2148
1.4583,2115
1.4611,2080
1.4639,2047
1.4667,2004
1.4694,1964
1.4722,1937
1.4750,1928
1.4778,1901
1.4806,1886
1.4833,1865
1.4861,1840
1.4889,1830
1.4917,1821
1.4944,1813
1.4972,1806
1.5000,1808
1.5028,1814
1.5056,1819
1.5083,1818
1.5111,1845
1.5139,1870
1.5167,1878
1.5194,1872
1.5222,1850
1.5250,1834
1.5278,1843
1.5306,1860
1.5333,1893
1.5361,1939
1.5389,1981
1.5417,2022
1.5444,2052
1.5472,2058
1.5500,2060
1.5528,2063
1.5556,2047
1.5583,2035
1.5611,2002
1.5639,1958
1.5667,1909
1.5694,1845
1.5722,1784
1.5750,1711
1.5778,1643
1.5806,1584
1.5833,1525
1.5861,1487
1.5889,1451
1.5917,1422
1.5944,1404
1.5972,1404
1.6000,1408
1.6028,1401
1.6056,1404
1.6083,1404
1.6111,1403
1.6139,1407
1.6167,1417
1.6194,1419
1.6222,1413
1.6250,1412
1.6278,1420
1.6306,1426
1.6333,1411
1.6361,1356
1.6389,1268
1.6417,1147
1.6444,1017
1.6472,921
1.6500,889
1.6528,965
1.6556,1161
1.6583,1491
1.6611,1849
1.6639,1989
1.6667,1963
1.6694,1911
1.6722,1856
1.6750,1803
1.6778,1632
1.6806,1320
1.6833,1031
1.6861,823
1.6889,682
1.6917,592
1.6944,516
1.6972,454
1.7000,424
1.7028,441
1.7056,484
1.7083,553
1.7111,654
1.7139,776
1.7167,892
1.7194,1011
1.7222,1130
1.7250,1235
1.7278,1331
1.7306,1411
1.7333,1487
1.7361,1544
1.7389,1588
1.7417,1624
1.7444,1654
1.7472,1696
1.7500,1717
1.7528,1739
1.7556,1747
1.7583,1775
1.7611,1792
1.7639,1824
1.7667,1860
1.7694,1886
1.7722,1891
1.7750,1904
1.7778,1926
1.7806,1946
1.7833,1988
1.7861,2017
1.7889,2048
1.7917,2089
1.7944,2130
1.7972,2174
1.8000,2211
1.8028,2252
1.8056,2289
1.8083,2328
1.8111,2354
1.8139,2372
1.8167,2383
1.8194,2370
1.8222,2378
1.8250,2417
1.8278,2445
1.8306,2457
1.8333,2474
1.8361,2461
1.8389,2443
1.8417,2432
1.8444,2421
1.8472,2397
1.8500,2369
1.8528,2341
1.8556,2296
1.8583,2241
1.8611,2214
1.8639,2189
1.8667,2165
1.8694,2135
1.8722,2106
1.8750,2058
1.8778,2009
1.8806,1979
1.8833,1954
1.8861,1949
1.8889,1937
1.8917,1911
1.8944,1876
1.8972,1851
1.9000,1834
1.9028,1833
1.9056,1846
1.9083,1850
1.9111,1864
1.9139,1851
1.9167,1841
1.9194,1848
1.9222,1872
1.9250,1886
1.9278,1882
1.9306,1861
1.9333,1846
1.9361,1838
1.9389,1855
1.9417,1885
1.9444,1917
1.9472,1961
1.9500,1999
1.9528,2022
1.9556,2023
1.9583,2015
1.9611,2005
1.9639,1995
1.9667,2000
1.9694,1978
1.9722,1947
1.9750,1882
1.9778,1820
1.9806,1727
1.9833,1646
1.9861,1577
1.9889,1505
1.9917,1466
1.9944,1430
1.9972,1399
2.0000,1371
2.0028,1351
2.0056,1356
2.0083,1336
2.0111,1329
2.0139,1324
2.0167,1320
2.0194,1324
2.0222,1335
2.0250,1351
2.0278,1361
2.0306,1354
2.0333,1342
2.0361,1332
2.0389,1337
2.0417,1319
2.0444,1272
2.0472,1177
2.0500,1069
2.0528,950
2.0556,850
2.0583,808
2.0611,858
2.0639,1032
2.0667,1322
2.0694,1737
2.0722,1984
2.0750,1981
2.0778,1896
2.0806,1819
2.0833,1775
2.0861,1643
2.0889,1292
2.0917,869
2.0944,530
2.0972,325
2.1000,231
2.1028,211
2.1056,210
2.1083,241
2.1111,305
2.1139,385
2.1167,481
2.1194,611
2.1222,738
2.1250,868
2.1278,990
2.1306,1127
2.1333,1241
2.1361,1342
2.1389,1426
2.1417,1473
2.1444,1512
2.1472,1553
2.1500,1595
2.1528,1632
2.1556,1673
2.1583,1703
2.1611,1713
2.1639,1716
2.1667,1726
2.1694,1743
2.1722,1778
2.1750,1811
2.1778,1838
2.1806,1851
2.1833,1871
2.1861,1884
2.1889,1900
2.1917,1914
2.1944,1959
2.1972,1995
2.2000,2036
2.2028,2077
2.2056,2112
2.2083,2146
2.2111,2190
2.2139,2223
2.2167,2265
2.2194,2300
2.2222,2327
2.2250,2342
2.2278,2352
2.2306,2363
2.2333,2383
2.2361,2407
2.2389,2426
2.2417,2441
2.2444,2416
2.2472,2396
2.2500,2386
2.2528,2375
2.2556,2352
2.2583,2336
2.2611,2302
2.2639,2259
2.2667,2212
2.2694,2172
2.2722,2136
2.2750,2094
2.2778,2060
2.2806,2043
2.2833,2030
2.2861,2005
2.2889,1758
2.2917,1765
2.2944,1801
2.2972,1835
2.3000,1861
2.3028,1897
2.3056,1924
2.3083,1952
2.3111,1968
2.3139,1976
2.3167,1977
2.3194,1977
2.3222,1952
2.3250,1914
2.3278,1871
2.3306,1807
2.3333,1749
2.3361,1679
2.3389,1598
2.3417,1517
2.3444,1447
2.3472,1393
2.3500,1359
2.3528,1342
2.3556,1327
2.3583,1315
2.3611,1301
2.3639,1283
2.3667,1295
2.3694,1295
2.3722,1302
2.3750,1302
2.3778,1312
2.3806,1322
2.3833,1329
2.3861,1329
2.3889,1329
2.3917,1336
2.3944,1358
2.3972,1341
2.4000,1277
2.4028,1165
2.4056,1046
2.4083,935
2.4111,870
2.4139,899
2.4167,1020
2.4194,1247
2.4222,1607
2.4250,1926
2.4278,1996
2.4306,1937
2.4333,1844
2.4361,1750
2.4389,1650
2.4417,1377
2.4444,997
2.4472,688
2.4500,495
2.4528,405
2.4556,343
2.4583,305
2.4611,289
2.4639,313
2.4667,377
2.4694,465
2.4722,582
2.4750,705
2.4778,814
2.4806,912
2.4833,1027
2.4861,1152
2.4889,1262
2.4917,1369
2.4944,1453
2.4972,1521
2.5000,1577
2.5028,1605
2.5056,1631
2.5083,1659
2.5111,1695
2.5139,1732
2.5167,1745
2.5194,1760
2.5222,1765
2.5250,1791
2.5278,1824
2.5306,1859
2.5333,1879
2.5361,1894
2.5389,1908
2.5417,1932
2.5444,1952
2.5472,1988
2.5500,2037
2.5528,2076
2.5556,2127
2.5583,2166
2.5611,2185
2.5639,2227
2.5667,2263
2.5694,2316
2.5722,2347
2.5750,2373
2.5778,2391
2.5806,2394
2.5833,2415
2.5861,2440
2.5889,2478
2.5917,2488
2.5944,2503
2.5972,2503
2.6000,2486
2.6028,2462
2.6056,2445
2.6083,2433
2.6111,2410
2.6139,2399
2.6167,2364
2.6194,2319
2.6222,2271
2.6250,2240
2.6278,2207
2.6306,2172
2.6333,2147
2.6361,2094
2.6389,2053
2.6417,2021
2.6444,1989
2.6472,1967
2.6500,1951
2.6528,1941
2.6556,1916
2.6583,1885
2.6611,1853
2.6639,1825
2.6667,1803
2.6694,1783
2.6722,1788
2.6750,1790
2.6778,1785
2.6806,1787
2.6833,1793
2.6861,1800
2.6889,1814
2.6917,1830
2.6944,1848
2.6972,1836
2.7000,1824
2.7028,1799
2.7056,1787
2.7083,1805
2.7111,1831
2.7139,1866
2.7167,1899
2.7194,1940
2.7222,1975
2.7250,2001
2.7278,2028
2.7306,2039
2.7333,2040
2.7361,2033
2.7389,2009
2.7417,1974
2.7444,1940
2.7472,1873
2.7500,1798
2.7528,1702
2.7556,1626
2.7583,1551
2.7611,1477
2.7639,1443
2.7667,1413
2.7694,1394
2.7722,1370
2.7750,1361
2.7778,1359
2.7806,1358
2.7833,1374
2.7861,1375
2.7889,1388
2.7917,1392
2.7944,1394
2.7972,1384
2.8000,1380
2.8028,1372
2.8056,1371
2.8083,1386
2.8111,1404
2.8139,1409
2.8167,1350
2.8194,1248
2.8222,1137
2.8250,1017
2.8278,966
2.8306,988
2.8333,1118
2.8361,1354
2.8389,1735
2.8417,2001
2.8444,2033
2.8472,1978
2.8500,1887
2.8528,1819
2.8556,1714
2.8583,1469
2.8611,1188
2.8639,980
2.8667,828
2.8694,720
2.8722,630
2.8750,544
2.8778,481
2.8806,458
2.8833,481
2.8861,562
2.8889,657
2.8917,761
2.8944,867
2.8972,956
2.9000,1047
2.9028,1145
2.9056,1260
2.9083,1373
2.9111,1461
2.9139,1534
2.9167,1582
2.9194,1627
2.9222,1669
2.9250,1695
2.9278,1730
2.9306,1749
2.9333,1763
2.9361,1767
2.9389,1781
2.9417,1802
2.9444,1840
2.9472,1871
2.9500,1894
2.9528,1909
2.9556,1930
2.9583,1946
2.9611,1975
2.9639,1998
2.9667,2038
2.9694,2085
2.9722,2112
2.9750,2136
2.9778,2178
2.9806,2210
2.9833,2262
2.9861,2306
2.9889,2350
2.9917,2374
2.9944,2409
2.9972,2424
3.0000,2452
3.0028,2477
3.0056,2484
3.0083,2501
3.0111,2514
3.0139,2519
3.0167,2509
3.0194,2485
3.0222,2465
3.0250,2456
3.0278,2445
3.0306,2428
3.0333,1849
3.0361,1849
3.0389,1844
3.0417,1837
3.0444,1844
3.0472,1849
3.0500,1889
3.0528,1908
3.0556,1894
3.0583,1890
3.0611,1869
3.0639,1864
3.0667,1883
3.0694,1920
3.0722,1956
3.0750,1991
3.0778,2020
3.0806,2045
3.0833,2061
3.0861,2073
3.0889,2089
3.0917,2109
3.0944,2098
3.0972,2079
3.1000,2017
3.1028,1953
3.1056,1873
3.1083,1787
3.1111,1722
3.1139,1659
3.1167,1608
3.1194,1569
3.1222,1535
3.1250,1501
3.1278,1481
3.1306,1475
3.1333,1454
3.1361,1446
3.1389,1435
3.1417,1448
3.1444,1455
3.1472,1478
3.1500,1500
3.1528,1512
3.1556,1520
3.1583,1508
3.1611,1496
3.1639,1496
3.1667,1505
3.1694,1510
3.1722,1481
3.1750,1420
3.1778,1325
3.1806,1205
3.1833,1095
3.1861,1068
3.1889,1136
3.1917,1329
3.1944,1671
3.1972,1950
3.2000,2023
3.2028,2004
3.2056,1972
3.2083,1951
3.2111,1897
3.2139,1704
3.2167,1482
3.2194,1304
3.2222,1172
3.2250,1052
3.2278,931
3.2306,819
3.2333,718
3.2361,662
3.2389,628
3.2417,648
3.2444,703
3.2472,787
3.2500,883
3.2528,984
3.2556,1072
3.2583,1153
3.2611,1250
3.2639,1369
3.2667,1472
3.2694,1555
3.2722,1619
3.2750,1661
3.2778,1697
3.2806,1741
3.2833,1783
3.2861,1810
3.2889,1847
3.2917,1850
3.2944,1863
3.2972,1885
3.3000,1913
3.3028,1935
3.3056,1970
3.3083,1975
3.3111,1983
3.3139,2000
3.3167,2022
3.3194,2055
3.3222,2081
3.3250,2117
3.3278,2149
3.3306,2189
3.3333,2222
3.3361,2258
3.3389,2300
3.3417,2341
3.3444,2373
3.3472,2404
3.3500,2432
3.3528,2439
3.3556,2457
3.3583,2486
3.3611,2501
3.3639,2520
3.3667,2546
3.3694,2564
3.3722,2576
3.3750,2566
3.3778,2531
3.3806,2496
3.3833,2465
3.3861,2429
3.3889,2400
3.3917,2372
3.3944,2337
3.3972,2297
3.4000,2256
3.4028,2219
3.4056,2180
3.4083,2153
3.4111,2116
3.4139,2091
3.4167,2073
3.4194,2052
3.4222,2023
3.4250,1987
3.4278,1965
3.4306,1945
3.4333,1936
3.4361,1922
3.4389,1910
3.4417,1892
3.4444,1896
3.4472,1908
3.4500,1916
3.4528,1901
3.4556,1904
3.4583,1898
3.4611,1899
3.4639,1906
3.4667,1917
3.4694,1925
3.4722,1904
3.4750,1887
3.4778,1880
3.4806,1887
3.4833,1928
3.4861,1965
3.4889,2000
3.4917,2038
3.4944,2094
3.4972,2123
3.5000,2138
3.5028,2137
3.5056,2142
3.5083,2138
3.5111,2134
3.5139,2103
3.5167,2046
3.5194,1969
3.5222,1886
3.5250,1792
3.5278,1724
3.5306,1675
3.5333,1629
3.5361,1596
3.5389,1553
3.5417,1527
3.5444,1491
3.5472,1473
3.5500,1471
3.5528,1466
3.5556,1468
3.5583,1462
3.5611,1449
3.5639,1456
3.5667,1453
3.5694,1457
3.5722,1469
3.5750,1470
3.5778,1475
3.5806,1472
3.5833,1485
3.5861,1489
3.5889,1444
3.5917,1370
3.5944,1278
3.5972,1171
3.6000,1068
3.6028,1029
3.6056,1070
3.6083,1218
3.6111,1525
3.6139,1838
3.6167,1960
3.6194,1966
3.6222,1947
3.6250,1917
3.6278,1890
3.6306,1765
3.6333,1529
3.6361,1315
3.6389,1166
3.6417,1023
3.6444,907
3.6472,777
3.6500,647
3.6528,532
3.6556,488
3.6583,516
3.6611,582
3.6639,676
3.6667,786
3.6694,877
3.6722,973
3.6750,1088
3.6778,1190
3.6806,1285
3.6833,1397
3.6861,1482
3.6889,1544
3.6917,1586
3.6944,1626
3.6972,1667
3.7000,1712
3.7028,1760
3.7056,1770
3.7083,1745
3.7111,1735
3.7139,1755
3.7167,1785
3.7194,1816
3.7222,1825
3.7250,1828
3.7278,1844
3.7306,1873
3.7333,1934
3.7361,1979
3.7389,2021
3.7417,2039
3.7444,2055
3.7472,2078
3.7500,2110
3.7528,2130
3.7556,2134
3.7583,2182
3.7611,2229
3.7639,2247
3.7667,2280
3.7694,2307
3.7722,2300
3.7750,2300
3.7778,2332
3.7806,2362
3.7833,2391
3.7861,2419
3.7889,2426
3.7917,2383
3.7944,2329
3.7972,2296
3.8000,2257
3.8028,2258
3.8056,2238
3.8083,1649
3.8111,1648
3.8139,1694
3.8167,1736
3.8194,1774
3.8222,1785
3.8250,1793
3.8278,1764
3.8306,1736
3.8333,1715
3.8361,1751
3.8389,1775
3.8417,1813
3.8444,1832
3.8472,1869
3.8500,1889
3.8528,1896
3.8556,1885
3.8583,1870
3.8611,1879
3.8639,1896
3.8667,1879
3.8694,1831
3.8722,1777
3.8750,1716
3.8778,1649
3.8806,1578
3.8833,1511
3.8861,1432
3.8889,1397
3.8917,1352
3.8944,1343
3.8972,1314
3.9000,1282
3.9028,1258
3.9056,1275
3.9083,1289
3.9111,1318
3.9139,1316
3.9167,1304
3.9194,1266
3.9222,1241
3.9250,1227
3.9278,1253
3.9306,1339
3.9333,1433
3.9361,1439
3.9389,1434
3.9417,1371
3.9444,1244
3.9472,1103
3.9500,945
3.9528,864
3.9556,881
3.9583,1011
3.9611,1225
3.9639,1518
3.9667,1918
3.9694,2173
3.9722,2171
3.9750,2058
3.9778,1914
3.9806,1841
3.9833,1765
3.9861,1469
3.9889,1039
3.9917,661
3.9944,442
3.9972,363
4.0000,356
4.0028,365
4.0056,408
4.0083,490
4.0111,596
4.0139,720
4.0167,821
4.0194,909
4.0222,1025
4.0250,1160
4.0278,1322
4.0306,1473
4.0333,1586
4.0361,1657
4.0389,1702
4.0417,1700
4.0444,1708
4.0472,1721
4.0500,1766
4.0528,1817
4.0556,1869
4.0583,1902
4.0611,1920
4.0639,1930
4.0667,1937
4.0694,1959
4.0722,1996
4.0750,2039
4.0778,2069
4.0806,2089
4.0833,2115
4.0861,2109
4.0889,2139
4.0917,2156
4.0944,2180
4.0972,2222
4.1000,2259
4.1028,2299
4.1056,2324
4.1083,2381
4.1111,2433
4.1139,2488
4.1167,2522
4.1194,2534
4.1222,2522
4.1250,2504
4.1278,2521
4.1306,2579
4.1333,2629
4.1361,2647
4.1389,2636
4.1417,2640
4.1444,2626
4.1472,2597
4.1500,2585
4.1528,2559
4.1556,2536
4.1583,2501
4.1611,2473
4.1639,2444
4.1667,2409
4.1694,2370
4.1722,2307
4.1750,2265
4.1778,2230
4.1806,2236
4.1833,2252
4.1861,2254
4.1889,2242
4.1917,2217
4.1944,2166
4.1972,2113
4.2000,2080
4.2028,2050
4.2056,2034
4.2083,2028
4.2111,2012
4.2139,2007
4.2167,2015
4.2194,2001
4.2222,1971
4.2250,1956
4.2278,1970
4.2306,1979
4.2333,1970
4.2361,1968
4.2389,1981
4.2417,1997
4.2444,2035
4.2472,2055
4.2500,2046
4.2528,2020
4.2556,1977
4.2583,1958
4.2611,1977
4.2639,2010
4.2667,2066
4.2694,2140
4.2722,2202
4.2750,2225
4.2778,2214
4.2806,2186
4.2833,2155
4.2861,2126
4.2889,2110
4.2917,2064
4.2944,1997
4.2972,1902
4.3000,1795
4.3028,1704
4.3056,1621
4.3083,1581
4.3111,1554
4.3139,1572
4.3167,1593
4.3194,1580
4.3222,1560
4.3250,1538
4.3278,1517
4.3306,1519
4.3333,1529
4.3361,1541
4.3389,1533
4.3417,1530
4.3444,1531
4.3472,1529
4.3500,1542
4.3528,1539
4.3556,1542
4.3583,1532
4.3611,1497
4.3639,1438
4.3667,1337
4.3694,1218
4.3722,1108
4.3750,1060
4.3778,1088
4.3806,1228
4.3833,1467
4.3861,1836
4.3889,2085
4.3917,2127
4.3944,2087
4.3972,2020
4.4000,1942
4.4028,1832
4.4056,1503
4.4083,1093
4.4111,753
4.4139,568
4.4167,479
4.4194,448
4.4222,442
4.4250,461
4.4278,522
4.4306,622
4.4333,753
4.4361,873
4.4389,973
4.4417,1062
4.4444,1157
4.4472,1287
4.4500,1420
4.4528,1548
4.4556,1645
4.4583,1724
4.4611,1779
4.4639,1817
4.4667,1835
4.4694,1858
4.4722,1900
4.4750,1928
4.4778,1943
4.4806,1960
4.4833,1970
4.4861,1974
4.4889,1997
4.4917,2034
4.4944,2069
4.4972,2098
4.5000,2112
4.5028,2131
4.5056,2140
4.5083,2160
4.5111,2197
4.5139,2237
4.5167,2270
4.5194,2300
4.5222,2317
4.5250,2346
4.5278,2390
4.5306,2427
4.5333,2462
4.5361,2497
4.5389,2513
4.5417,2530
4.5444,2531
4.5472,2553
4.5500,2568
4.5528,2587
4.5556,2611
4.5583,2604
4.5611,2574
4.5639,2557
4.5667,2545
4.5694,2550
4.5722,2523
4.5750,2501
4.5778,2456
4.5806,2403
4.5833,2354
4.5861,2314
4.5889,2274
4.5917,2258
4.5944,2238
4.5972,2203
4.6000,2172
4.6028,2154
4.6056,1889
4.6083,1889
4.6111,1864
4.6139,1849
4.6167,1836
4.6194,1851
4.6222,1872
4.6250,1916
4.6278,1962
4.6306,2017
4.6333,2054
4.6361,2062
4.6389,2054
4.6417,2041
4.6444,2020
4.6472,1988
4.6500,1946
4.6528,1914
4.6556,1843
4.6583,1762
4.6611,1679
4.6639,1606
4.6667,1548
4.6694,1506
4.6722,1462
4.6750,1447
4.6778,1418
4.6806,1403
4.6833,1387
4.6861,1391
4.6889,1390
4.6917,1408
4.6944,1401
4.6972,1386
4.7000,1376
4.7028,1368
4.7056,1371
4.7083,1376
4.7111,1387
4.7139,1417
4.7167,1434
4.7194,1454
4.7222,1430
4.7250,1380
4.7278,1291
4.7306,1182
4.7333,1095
4.7361,1054
4.7389,1083
4.7417,1217
4.7444,1503
4.7472,1834
4.7500,1990
4.7528,1987
4.7556,1949
4.7583,1881
4.7611,1827
4.7639,1665
4.7667,1411
4.7694,1201
4.7722,1061
4.7750,942
4.7778,831
4.7806,724
4.7833,613
4.7861,529
4.7889,485
4.7917,493
4.7944,566
4.7972,644
4.8000,722
4.8028,820
4.8056,908
4.8083,999
4.8111,1096
4.8139,1202
4.8167,1299
4.8194,1363
4.8222,1438
4.8250,1501
4.8278,1560
4.8306,1601
4.8333,1636
4.8361,1662
4.8389,1677
4.8417,1690
4.8444,1705
4.8472,1725
4.8500,1744
4.8528,1776
4.8556,1794
4.8583,1812
4.8611,1816
4.8639,1840
4.8667,1865
4.8694,1879
4.8722,1908
4.8750,1944
4.8778,1974
4.8806,2006
4.8833,2030
4.8861,2065
4.8889,2101
4.8917,2129
4.8944,2161
4.8972,2189
4.9000,2218
4.9028,2242
4.9056,2272
4.9083,2307
4.9111,2345
4.9139,2374
4.9167,2392
4.9194,2395
4.9222,2366
4.9250,2350
4.9278,2343
4.9306,2331
4.9333,2332
4.9361,2309
4.9389,2291
4.9417,2270
4.9444,2225
4.9472,2193
4.9500,2156
4.9528,2121
4.9556,2104
4.9583,2066
4.9611,2030
4.9639,1991
4.9667,1962
4.9694,1937
4.9722,1923
4.9750,1909
4.9778,1872
4.9806,1836
4.9833,1801
4.9861,1780
4.9889,1769
4.9917,1769
4.9944,1766
4.9972,1756
5.0000,1742
5.0028,1736
5.0056,1750
5.0083,1752
5.0111,1770
5.0139,1772
5.0167,1781
5.0194,1787
5.0222,1796
5.0250,1798
5.0278,1796
5.0306,1782
5.0333,1781
5.0361,1775
5.0389,1793
5.0417,1833
5.0444,1875
5.0472,1912
5.0500,1959
5.0528,1981
5.0556,1993
5.0583,1994
5.0611,1991
5.0639,1984
5.0667,1954
5.0694,1911
5.0722,1865
5.0750,1823
5.0778,1758
5.0806,1690
5.0833,1615
5.0861,1556
5.0889,1496
5.0917,1452
5.0944,1415
5.0972,1395
5.1000,1366
5.1028,1357
5.1056,1355
5.1083,1355
5.1111,1347
5.1139,1343
5.1167,1338
5.1194,1335
5.1222,1334
5.1250,1339
5.1278,1339
5.1306,1349
5.1333,1352
5.1361,1364
5.1389,1369
5.1417,1366
5.1444,1320
5.1472,1241
5.1500,1147
5.1528,1032
5.1556,951
5.1583,916
5.1611,995
5.1639,1198
5.1667,1548
5.1694,1824
5.1722,1906
5.1750,1893
5.1778,1861
5.1806,1840
5.1833,1789
5.1861,1577
5.1889,1330
5.1917,1160
5.1944,1026
5.1972,910
5.2000,806
5.2028,687
5.2056,584
5.2083,505
5.2111,478
5.2139,494
5.2167,562
5.2194,652
5.2222,746
5.2250,840
5.2278,943
5.2306,1040
5.2333,1148
5.2361,1261
5.2389,1343
5.2417,1407
5.2444,1467
5.2472,1520
5.2500,1578
5.2528,1625
5.2556,1666
5.2583,1684
5.2611,1693
5.2639,1698
5.2667,1710
5.2694,1728
5.2722,1768
5.2750,1810
5.2778,1836
5.2806,1832
5.2833,1833
5.2861,1849
5.2889,1887
5.2917,1926
5.2944,1964
5.2972,2005
5.3000,2037
5.3028,2061
5.3056,2081
5.3083,2105
5.3111,2131
5.3139,2157
5.3167,2178
5.3194,2211
5.3222,2233
5.3250,2257
5.3278,2286
5.3306,2323
5.3333,2351
5.3361,2372
5.3389,2379
5.3417,2350
5.3444,2337
5.3472,2312
5.3500,2298
5.3528,2299
5.3556,2295
5.3583,2275
5.3611,2246
5.3639,1769
5.3667,1778
5.3694,1786
5.3722,1794
5.3750,1806
5.3778,1821
5.3806,1834
5.3833,1842
5.3861,1832
5.3889,1812
5.3917,1801
5.3944,1799
5.3972,1814
5.4000,1850
5.4028,1900
5.4056,1943
5.4083,1985
5.4111,2006
5.4139,2022
5.4167,2024
5.4194,2017
5.4222,2000
5.4250,1972
5.4278,1936
5.4306,1893
5.4333,1836
5.4361,1765
5.4389,1695
5.4417,1622
5.4444,1546
5.4472,1479
5.4500,1435
5.4528,1398
5.4556,1377
5.4583,1354
5.4611,1355
5.4639,1344
5.4667,1347
5.4694,1354
5.4722,1347
5.4750,1351
5.4778,1337
5.4806,1350
5.4833,1342
5.4861,1334
5.4889,1324
5.4917,1315
5.4944,1311
5.4972,1317
5.5000,1311
5.5028,1277
5.5056,1203
5.5083,1106
5.5111,985
5.5139,879
5.5167,856
5.5194,944
5.5222,1140
5.5250,1492
5.5278,1854
5.5306,1995
5.5333,1984
5.5361,1934
5.5389,1873
5.5417,1814
5.5444,1668
5.5472,1358
5.5500,1044
5.5528,807
5.5556,660
5.5583,566
5.5611,492
5.5639,440
5.5667,413
5.5694,427
5.5722,474
5.5750,557
5.5778,659
5.5806,766
5.5833,870
5.5861,959
5.5889,1077
5.5917,1199
5.5944,1310
5.5972,1400
5.6000,1477
5.6028,1532
5.6056,1574
5.6083,1603
5.6111,1654
5.6139,1686
5.6167,1713
5.6194,1736
5.6222,1753
5.6250,1758
5.6278,1777
5.6306,1809
5.6333,1843
5.6361,1863
5.6389,1877
5.6417,1901
5.6444,1918
5.6472,1948
5.6500,1983
5.6528,2026
5.6556,2058
5.6583,2088
5.6611,2121
5.6639,2139
5.6667,2191
5.6694,2225
5.6722,2275
5.6750,2328
5.6778,2347
5.6806,2335
5.6833,2319
5.6861,2339
5.6889,2352
5.6917,2378
5.6944,2397
5.6972,2399
5.7000,2391
5.7028,2391
5.7056,2387
5.7083,2381
5.7111,2375
5.7139,2361
5.7167,2340
5.7194,2300
5.7222,2261
5.7250,2215
5.7278,2197
5.7306,2170
5.7333,2136
5.7361,2114
5.7389,2081
5.7417,2056
5.7444,2032
5.7472,2001
5.7500,1980
5.7528,1968
5.7556,1950
5.7583,1923
5.7611,1889
5.7639,1864
5.7667,1855
5.7694,1832
5.7722,1834
5.7750,1830
5.7778,1835
5.7806,1832
5.7833,1816
5.7861,1808
5.7889,1817
5.7917,1829
5.7944,1845
5.7972,1844
5.8000,1867
5.8028,1871
5.8056,1871
5.8083,1837
5.8111,1825
5.8139,1829
5.8167,1844
5.8194,1857
5.8222,1891
5.8250,1930
5.8278,1978
5.8306,2023
5.8333,2033
5.8361,2005
5.8389,1986
5.8417,1974
5.8444,1972
5.8472,1987
5.8500,1956
5.8528,1926
5.8556,1855
5.8583,1764
5.8611,1668
5.8639,1589
5.8667,1531
5.8694,1468
5.8722,1417
5.8750,1388
5.8778,1369
5.8806,1343
5.8833,1337
5.8861,1340
5.8889,1347
5.8917,1366
5.8944,1374
5.8972,1382
5.9000,1362
5.9028,1351
5.9056,1335
5.9083,1346
5.9111,1353
5.9139,1368
5.9167,1382
5.9194,1360
5.9222,1325
5.9250,1239
5.9278,1127
5.9306,1006
5.9333,895
5.9361,846
5.9389,892
5.9417,1031
5.9444,1290
5.9472,1703
5.9500,2008
5.9528,2082
5.9556,2037
5.9583,1932
5.9611,1847
5.9639,1737
5.9667,1424
5.9694,996
5.9722,632
5.9750,409
5.9778,312
5.9806,269
5.9833,258
5.9861,283
5.9889,313
5.9917,378
5.9944,463
5.9972,579
6.0000,709
6.0028,836
6.0056,964
6.0083,1103
6.0111,1228
6.0139,1343
6.0167,1428
6.0194,1493
6.0222,1531
6.0250,1559
6.0278,1575
6.0306,1603
6.0333,1647
6.0361,1682
6.0389,1699
6.0417,1700
6.0444,1699
6.0472,1718
6.0500,1767
6.0528,1833
6.0556,1878
6.0583,1891
6.0611,1894
6.0639,1889
6.0667,1907
6.0694,1948
6.0722,1993
6.0750,2025
6.0778,2065
6.0806,2092
6.0833,2130
6.0861,2179
6.0889,2216
6.0917,2252
6.0944,2288
6.0972,2315
6.1000,2332
6.1028,2328
6.1056,2312
6.1083,2324
6.1111,2356
6.1139,2384
6.1167,2402
6.1194,2414
6.1222,2409
6.1250,2395
6.1278,2377
6.1306,2362
6.1333,2349
6.1361,2331
6.1389,2315
6.1417,2280
6.1444,2234
6.1472,2195
6.1500,2159
6.1528,2142
6.1556,2130
6.1583,2110
6.1611,2070
6.1639,2041
6.1667,1848
6.1694,1846
6.1722,1870
6.1750,1871
6.1778,1849
6.1806,1818
6.1833,1817
6.1861,1826
6.1889,1865
6.1917,1916
6.1944,1958
6.1972,2003
6.2000,2020
6.2028,2022
6.2056,2026
6.2083,2025
6.2111,2033
6.2139,2037
6.2167,2017
6.2194,1964
6.2222,1880
6.2250,1805
6.2278,1714
6.2306,1638
6.2333,1569
6.2361,1523
6.2389,1487
6.2417,1457
6.2444,1421
6.2472,1400
6.2500,1399
6.2528,1411
6.2556,1414
6.2583,1417
6.2611,1421
6.2639,1410
6.2667,1411
6.2694,1426
6.2722,1425
6.2750,1427
6.2778,1416
6.2806,1420
6.2833,1412
6.2861,1412
6.2889,1403
6.2917,1350
6.2944,1265
6.2972,1161
6.3000,1049
6.3028,987
6.3056,998
6.3083,1134
6.3111,1373
6.3139,1763
6.3167,2093
6.3194,2182
6.3222,2135
6.3250,2044
6.3278,1940
6.3306,1843
6.3333,1579
6.3361,1204
6.3389,861
6.3417,644
6.3444,529
6.3472,467
6.3500,428
6.3528,410
6.3556,442
6.3583,497
6.3611,576
6.3639,690
6.3667,793
6.3694,889
6.3722,979
6.3750,1096
6.3778,1206
6.3806,1309
6.3833,1403
6.3861,1486
6.3889,1560
6.3917,1624
6.3944,1668
6.3972,1701
6.4000,1737
6.4028,1759
6.4056,1778
6.4083,1786
6.4111,1799
6.4139,1811
6.4167,1831
6.4194,1864
6.4222,1884
6.4250,1915
6.4278,1927
6.4306,1939
6.4333,1956
6.4361,1973
6.4389,2004
6.4417,2046
6.4444,2086
6.4472,2117
6.4500,2145
6.4528,2173
6.4556,2220
6.4583,2256
6.4611,2295
6.4639,2324
6.4667,2351
6.4694,2363
6.4722,2355
6.4750,2358
6.4778,2382
6.4806,2408
6.4833,2439
6.4861,2456
6.4889,2455
6.4917,2449
6.4944,2438
6.4972,2434
6.5000,2428
6.5028,2420
6.5056,2387
6.5083,2337
6.5111,2293
6.5139,2253
6.5167,2219
6.5194,2202
6.5222,2180
6.5250,2163
6.5278,2131
6.5306,2104
6.5333,2074
6.5361,2048
6.5389,2025
6.5417,2000
6.5444,1975
6.5472,1953
6.5500,1920
6.5528,1892
6.5556,1886
6.5583,1877
6.5611,1877
6.5639,1865
6.5667,1841
6.5694,1813
6.5722,1788
6.5750,1767
6.5778,1751
6.5806,1754
6.5833,1759
6.5861,1770
6.5889,1768
6.5917,1755
6.5944,1764
6.5972,1773
6.6000,1801
6.6028,1802
6.6056,1809
6.6083,1801
6.6111,1778
6.6139,1780
6.6167,1789
6.6194,1813
6.6222,1851
6.6250,1883
6.6278,1924
6.6306,1965
6.6333,1995
6.6361,2013
6.6389,2020
6.6417,2017
6.6444,2007
6.6472,1986
6.6500,1960
6.6528,1918
6.6556,1853
6.6583,1773
6.6611,1688
6.6639,1610
6.6667,1534
6.6694,1487
6.6722,1444
6.6750,1404
6.6778,1391
6.6806,1376
6.6833,1380
6.6861,1367
6.6889,1361
6.6917,1359
6.6944,1365
6.6972,1378
6.7000,1385
6.7028,1396
6.7056,1388
6.7083,1388
6.7111,1393
6.7139,1384
6.7167,1389
6.7194,1395
6.7222,1370
6.7250,1331
6.7278,1270
6.7306,1179
6.7333,1065
6.7361,1000
6.7389,996
6.7417,1090
6.7444,1314
6.7472,1679
6.7500,1925
6.7528,1972
6.7556,1956
6.7583,1913
6.7611,1890
6.7639,1810
6.7667,1571
6.7694,1326
6.7722,1139
6.7750,1001
6.7778,891
6.7806,781
6.7833,674
6.7861,561
6.7889,501
6.7917,479
6.7944,506
6.7972,581
6.8000,679
6.8028,791
6.8056,885
6.8083,971
6.8111,1066
6.8139,1174
6.8167,1273
6.8194,1363
6.8222,1436
6.8250,1498
6.8278,1546
6.8306,1594
6.8333,1637
6.8361,1661
6.8389,1695
6.8417,1704
6.8444,1719
6.8472,1732
6.8500,1769
6.8528,1800
6.8556,1836
6.8583,1860
6.8611,1876
6.8639,1884
6.8667,1889
6.8694,1910
6.8722,1945
6.8750,1986
6.8778,2035
6.8806,2067
6.8833,2087
6.8861,2109
6.8889,2136
6.8917,2165
6.8944,2197
6.8972,2229
6.9000,2251
6.9028,2271
6.9056,2290
6.9083,2313
6.9111,2357
6.9139,2394
6.9167,2433
6.9194,2456
6.9222,2456
6.9250,2443
6.9278,2410
6.9306,2396
6.9333,2377
6.9361,2363
6.9389,2353
6.9417,1795
6.9444,1799
6.9472,1785
6.9500,1767
6.9528,1756
6.9556,1766
6.9583,1774
6.9611,1779
6.9639,1776
6.9667,1766
6.9694,1764
6.9722,1779
6.9750,1793
6.9778,1808
6.9806,1806
6.9833,1795
6.9861,1790
6.9889,1797
6.9917,1826
6.9944,1869
6.9972,1899
7.0000,1942
7.0028,1973
7.0056,2005
7.0083,2011
7.0111,2031
7.0139,2033
7.0167,2047
7.0194,2037
7.0222,1998
7.0250,1954
7.0278,1898
7.0306,1819
7.0333,1738
7.0361,1675
7.0389,1603
7.0417,1547
7.0444,1499
7.0472,1455
7.0500,1426
7.0528,1402
7.0556,1404
7.0583,1414
7.0611,1427
7.0639,1434
7.0667,1433
7.0694,1431
7.0722,1414
7.0750,1420
7.0778,1426
7.0806,1423
7.0833,1416
7.0861,1412
7.0889,1414
7.0917,1425
7.0944,1419
7.0972,1401
7.1000,1354
7.1028,1282
7.1056,1179
7.1083,1074
7.1111,1004
7.1139,1011
7.1167,1163
7.1194,1469
7.1222,1815
7.1250,1967
7.1278,1983
7.1306,1955
7.1333,1949
7.1361,1930
7.1389,1801
7.1417,1557
7.1444,1336
7.1472,1191
7.1500,1057
7.1528,940
7.1556,829
7.1583,700
7.1611,600
7.1639,539
7.1667,537
7.1694,581
7.1722,655
7.1750,762
7.1778,882
7.1806,992
7.1833,1102
7.1861,1190
7.1889,1280
7.1917,1346
7.1944,1413
7.1972,1500
7.2000,1557
7.2028,1612
7.2056,1662
7.2083,1695
7.2111,1713
7.2139,1718
7.2167,1746
7.2194,1762
7.2222,1787
7.2250,1804
7.2278,1824
7.2306,1856
7.2333,1878
7.2361,1890
7.2389,1894
7.2417,1914
7.2444,1956
7.2472,2001
7.2500,2035
7.2528,2064
7.2556,2087
7.2583,2108
7.2611,2135
7.2639,2159
7.2667,2197
7.2694,2218
7.2722,2242
7.2750,2262
7.2778,2278
7.2806,2290
7.2833,2331
7.2861,2357
7.2889,2385
7.2917,2379
7.2944,2360
7.2972,2323
7.3000,2311
7.3028,2318
7.3056,2307
7.3083,2259
7.3111,2206
7.3139,2193
7.3167,2192
7.3194,2174
7.3222,2124
7.3250,2059
7.3278,2013
7.3306,1973
7.3333,1933
7.3361,1900
7.3389,1864
7.3417,1828
7.3444,1806
7.3472,1765
7.3500,1739
7.3528,1691
7.3556,1624
7.3583,1605
7.3611,1580
7.3639,1523
7.3667,1470
7.3694,1427
7.3722,1401
7.3750,1383
7.3778,1398
7.3806,1420
7.3833,1473
7.3861,1507
7.3889,1514
7.3917,1551
7.3944,1611
7.3972,1614
7.4000,1576
7.4028,1514
7.4056,1467
7.4083,1482
7.4111,1502
7.4139,1514
7.4167,1492
7.4194,1460
7.4222,1513
7.4250,1618
7.4278,1702
7.4306,1767
7.4333,1778
7.4361,1708
7.4389,1704
7.4417,1732
7.4444,1761
7.4472,1754
7.4500,1719
7.4528,1705
7.4556,1724
7.4583,1743
7.4611,1737
7.4639,1704
7.4667,1567
7.4694,1441
7.4722,1358
7.4750,1306
7.4778,1322
7.4806,1334
7.4833,1320
7.4861,1298
7.4889,1288
7.4917,1243
7.4944,1210
7.4972,1184
7.5000,1180
7.5028,1212
7.5056,1247
7.5083,1311
7.5111,1343
7.5139,1326
7.5167,1309
7.5194,1254
7.5222,1215
7.5250,1258
7.5278,1302
7.5306,1296
7.5333,1193
7.5361,1064
7.5389,929
7.5417,838
7.5444,873
7.5472,1021
7.5500,1230
7.5528,1535
7.5556,1966
7.5583,2251
7.5611,2296
7.5639,2160
7.5667,2024
7.5694,1928
7.5722,1830
7.5750,1553
7.5778,1180
7.5806,853
7.5833,646
7.5861,504
7.5889,397
7.5917,347
7.5944,363
7.5972,420
7.6000,500
7.6028,618
7.6056,718
7.6083,801
7.6111,865
7.6139,983
7.6167,1122
7.6194,1281
7.6222,1436
7.6250,1568
7.6278,1631
7.6306,1659
7.6333,1675
7.6361,1726
7.6389,1777
7.6417,1822
7.6444,1864
7.6472,1898
7.6500,1907
7.6528,1902
7.6556,1899
7.6583,1921
7.6611,1933
7.6639,1938
7.6667,1971
7.6694,2047
7.6722,2121
7.6750,2180
7.6778,2206
7.6806,2226
7.6833,2251
7.6861,2291
7.6889,2339
7.6917,2366
7.6944,2377
7.6972,2402
7.7000,2464
7.7028,2540
7.7056,2585
7.7083,2599
7.7111,2584
7.7139,2569
7.7167,2561
7.7194,2586
7.7222,2621
7.7250,2646
7.7278,2654
7.7306,2642
7.7333,2631
7.7361,2613
7.7389,2621
7.7417,2626
7.7444,2601
7.7472,2539
7.7500,1922
7.7528,1927
7.7556,1913
7.7583,1888
7.7611,1852
7.7639,1814
7.7667,1824
7.7694,1834
7.7722,1856
7.7750,1840
7.7778,1849
7.7806,1868
7.7833,1900
7.7861,1947
7.7889,1969
7.7917,1966
7.7944,1937
7.7972,1912
7.8000,1891
7.8028,1878
7.8056,1927
7.8083,1985
7.8111,2048
7.8139,2102
7.8167,2116
7.8194,2109
7.8222,2094
7.8250,2084
7.8278,2078
7.8306,2068
7.8333,2040
7.8361,1976
7.8389,1892
7.8417,1806
7.8444,1732
7.8472,1654
7.8500,1604
7.8528,1565
7.8556,1544
7.8583,1522
7.8611,1483
7.8639,1476
7.8667,1486
7.8694,1497
7.8722,1504
7.8750,1492
7.8778,1476
7.8806,1477
7.8833,1493
7.8861,1504
7.8889,1517
7.8917,1507
7.8944,1498
7.8972,1502
7.9000,1497
7.9028,1500
7.9056,1487
7.9083,1432
7.9111,1331
7.9139,1219
7.9167,1121
7.9194,1100
7.9222,1185
7.9250,1366
7.9278,1662
7.9306,2013
7.9333,2174
7.9361,2170
7.9389,2111
7.9417,2021
7.9444,1929
7.9472,1749
7.9500,1358
7.9528,924
7.9556,621
7.9583,466
7.9611,401
7.9639,380
7.9667,405
7.9694,448
7.9722,527
7.9750,624
7.9778,717
7.9806,828
7.9833,923
7.9861,1033
7.9889,1154
7.9917,1297
7.9944,1412
7.9972,1511
8.0000,1608
8.0028,1677
8.0056,1726
8.0083,1759
8.0111,1798
8.0139,1827
8.0167,1858
8.0194,1862
8.0222,1859
8.0250,1855
8.0278,1857
8.0306,1878
8.0333,1900
8.0361,1914
8.0389,1948
8.0417,1960
8.0444,1972
8.0472,1997
8.0500,2026
8.0528,2064
8.0556,2099
8.0583,2137
8.0611,2159
8.0639,2181
8.0667,2206
8.0694,2240
8.0722,2293
8.0750,2320
8.0778,2346
8.0806,2360
8.0833,2365
8.0861,2375
8.0889,2386
8.0917,2405
8.0944,2419
8.0972,2420
8.1000,2417
8.1028,2391
8.1056,2380
8.1083,2374
8.1111,2364
8.1139,2365
8.1167,2371
8.1194,2343
8.1222,2317
8.1250,2275
8.1278,2228
8.1306,2162
8.1333,2135
8.1361,2121
8.1389,2104
8.1417,2092
8.1444,2072
8.1472,2032
8.1500,2004
8.1528,1990
8.1556,1980
8.1583,1957
8.1611,1937
8.1639,1906
8.1667,1876
8.1694,1861
8.1722,1840
8.1750,1822
8.1778,1817
8.1806,1807
8.1833,1811
8.1861,1801
8.1889,1789
8.1917,1749
8.1944,1735
8.1972,1709
8.2000,1695
8.2028,1701
8.2056,1701
8.2083,1706
8.2111,1706
8.2139,1719
8.2167,1717
8.2194,1722
8.2222,1712
8.2250,1724
8.2278,1735
8.2306,1764
8.2333,1783
8.2361,1773
8.2389,1749
8.2417,1733
8.2444,1737
8.2472,1770
8.2500,1813
8.2528,1873
8.2556,1918
8.2583,1959
8.2611,1971
8.2639,1973
8.2667,1962
8.2694,1940
8.2722,1910
8.2750,1858
8.2778,1822
8.2806,1788
8.2833,1731
8.2861,1663
8.2889,1591
8.2917,1522
8.2944,1486
8.2972,1468
8.3000,1467
8.3028,1470
8.3056,1481
8.3083,1464
8.3111,1462
8.3139,1454
8.3167,1460
8.3194,1465
8.3222,1462
8.3250,1444
8.3278,1426
8.3306,1426
8.3333,1441
8.3361,1462
8.3389,1480
8.3417,1498
8.3444,1501
8.3472,1469
8.3500,1422
8.3528,1355
8.3556,1278
8.3583,1199
8.3611,1141
8.3639,1146
8.3667,1242
8.3694,1460
8.3722,1809
8.3750,2027
8.3778,2051
8.3806,1995
8.3833,1960
8.3861,1938
8.3889,1870
8.3917,1676
8.3944,1440
8.3972,1275
8.4000,1169
8.4028,1071
8.4056,964
8.4083,847
8.4111,733
8.4139,644
8.4167,590
8.4194,589
8.4222,628
8.4250,713
8.4278,810
8.4306,932
8.4333,1039
8.4361,1138
8.4389,1240
8.4417,1330
8.4444,1388
8.4472,1440
8.4500,1492
8.4528,1557
8.4556,1622
8.4583,1671
8.4611,1700
8.4639,1734
8.4667,1745
8.4694,1760
8.4722,1779
8.4750,1810
8.4778,1828
8.4806,1838
8.4833,1847
8.4861,1860
8.4889,1885
8.4917,1904
8.4944,1939
8.4972,1971
8.5000,1990
8.5028,2004
8.5056,2012
8.5083,2024
8.5111,2049
8.5139,2077
8.5167,2109
8.5194,2156
8.5222,2202
8.5250,2241
8.5278,2263
8.5306,2297
8.5333,2325
8.5361,2345
8.5389,2356
8.5417,2361
8.5444,2370
8.5472,2368
8.5500,2370
8.5528,2381
8.5556,2378
8.5583,2378
8.5611,2367
8.5639,2342
8.5667,1722
8.5694,1724
8.5722,1714
8.5750,1710
8.5778,1693
8.5806,1695
8.5833,1674
8.5861,1652
8.5889,1657
8.5917,1684
8.5944,1678
8.5972,1665
8.6000,1659
8.6028,1673
8.6056,1706
8.6083,1747
8.6111,1756
8.6139,1749
8.6167,1727
8.6194,1699
8.6222,1701
8.6250,1726
8.6278,1765
8.6306,1793
8.6333,1819
8.6361,1849
8.6389,1878
8.6417,1910
8.6444,1923
8.6472,1894
8.6500,1849
8.6528,1800
8.6556,1738
8.6583,1682
8.6611,1613
8.6639,1559
8.6667,1496
8.6694,1414
8.6722,1319
8.6750,1255
8.6778,1192
8.6806,1172
8.6833,1168
8.6861,1185
8.6889,1171
8.6917,1160
8.6944,1154
8.6972,1144
8.7000,1134
8.7028,1114
8.7056,1098
8.7083,1109
8.7111,1151
8.7139,1174
8.7167,1170
8.7194,1149
8.7222,1136
8.7250,1133
8.7278,1085
8.7306,1027
8.7333,948
8.7361,856
8.7389,770
8.7417,734
8.7444,789
8.7472,938
8.7500,1191
8.7528,1590
8.7556,1853
8.7583,1881
8.7611,1832
8.7639,1765
8.7667,1697
8.7694,1576
8.7722,1307
8.7750,995
8.7778,760
8.7806,589
8.7833,474
8.7861,377
8.7889,279
8.7917,219
8.7944,186
8.7972,218
8.8000,301
8.8028,408
8.8056,514
8.8083,651
8.8111,773
8.8139,882
8.8167,997
8.8194,1103
8.8222,1209
8.8250,1301
8.8278,1367
8.8306,1430
8.8333,1498
8.8361,1558
8.8389,1612
8.8417,1643
8.8444,1661
8.8472,1681
8.8500,1703
8.8528,1732
8.8556,1751
8.8583,1758
8.8611,1789
8.8639,1818
8.8667,1833
8.8694,1846
8.8722,1872
8.8750,1908
8.8778,1945
8.8806,1999
8.8833,2057
8.8861,2091
8.8889,2141
8.8917,2185
8.8944,2240
8.8972,2257
8.9000,2293
8.9028,2359
8.9056,2384
8.9083,2407
8.9111,2395
8.9139,2401
8.9167,2423
8.9194,2467
8.9222,2519
8.9250,2550
8.9278,2537
8.9306,2495
8.9333,2455
8.9361,2430
8.9389,2426
8.9417,2439
8.9444,2432
8.9472,2402
8.9500,2379
8.9528,2353
8.9556,2329
8.9583,2308
8.9611,2276
8.9639,2239
8.9667,2180
8.9694,2134
8.9722,2099
8.9750,2059
8.9778,2038
8.9806,2021
8.9833,2020
8.9861,2011
8.9889,1976
8.9917,1943
8.9944,1925
8.9972,1909
9.0000,1886
9.0028,1862
9.0056,1852
9.0083,1872
9.0111,1883
9.0139,1912
9.0167,1907
9.0194,1879
9.0222,1851
9.0250,1824
9.0278,1814
9.0306,1816
9.0333,1809
9.0361,1814
9.0389,1828
9.0417,1847
9.0444,1872
9.0472,1872
9.0500,1869
9.0528,1863
9.0556,1871
9.0583,1902
9.0611,1919
9.0639,1955
9.0667,1979
9.0694,2003
9.0722,2010
9.0750,2031
9.0778,2045
9.0806,2034
9.0833,2031
9.0861,2026
9.0889,2036
9.0917,2025
9.0944,1999
9.0972,1951
9.1000,1856
9.1028,1761
9.1056,1655
9.1083,1564
9.1111,1497
9.1139,1459
9.1167,1429
9.1194,1422
9.1222,1425
9.1250,1448
9.1278,1443
9.1306,1443
9.1333,1446
9.1361,1454
9.1389,1467
9.1417,1486
9.1444,1479
9.1472,1458
9.1500,1441
9.1528,1428
9.1556,1450
9.1583,1462
9.1611,1471
9.1639,1477
9.1667,1447
9.1694,1387
9.1722,1277
9.1750,1174
9.1778,1072
9.1806,1058
9.1833,1152
9.1861,1372
9.1889,1711
9.1917,2074
9.1944,2218
9.1972,2202
9.2000,2124
9.2028,2019
9.2056,1924
9.2083,1727
9.2111,1325
9.2139,876
9.2167,567
9.2194,390
9.2222,322
9.2250,306
9.2278,338
9.2306,410
9.2333,496
9.2361,592
9.2389,700
9.2417,817
9.2444,914
9.2472,1018
9.2500,1167
9.2528,1321
9.2556,1468
9.2583,1575
9.2611,1660
9.2639,1719
9.2667,1752
9.2694,1776
9.2722,1800
9.2750,1817
9.2778,1839
9.2806,1868
9.2833,1901
9.2861,1907
9.2889,1932
9.2917,1951
9.2944,1976
9.2972,2006
9.3000,2035
9.3028,2056
9.3056,2069
9.3083,2089
9.3111,2103
9.3139,2145
9.3167,2197
9.3194,2233
9.3222,2268
9.3250,2294
9.3278,2315
9.3306,2338
9.3333,2379
9.3361,2429
9.3389,2469
9.3417,2501
9.3444,2518
9.3472,2508
9.3500,2496
9.3528,2501
9.3556,2536
9.3583,2576
9.3611,2603
9.3639,2592
9.3667,2558
9.3694,2544
9.3722,2527
9.3750,2521
9.3778,2513
9.3806,2483
9.3833,2452
9.3861,2416
9.3889,2375
9.3917,2339
9.3944,2313
9.3972,2302
9.4000,2278
9.4028,2260
9.4056,2222
9.4083,1841
9.4111,1842
9.4139,1851
9.4167,1853
9.4194,1860
9.4222,1870
9.4250,1873
9.4278,1889
9.4306,1915
9.4333,1922
9.4361,1921
9.4389,1905
9.4417,1900
9.4444,1902
9.4472,1919
9.4500,1958
9.4528,1988
9.4556,2026
9.4583,2059
9.4611,2074
9.4639,2083
9.4667,2085
9.4694,2093
9.4722,2097
9.4750,2091
9.4778,2073
9.4806,2039
9.4833,1985
9.4861,1901
9.4889,1809
9.4917,1729
9.4944,1658
9.4972,1591
9.5000,1534
9.5028,1501
9.5056,1467
9.5083,1442
9.5111,1434
9.5139,1442
9.5167,1447
9.5194,1448
9.5222,1459
9.5250,1461
9.5278,1465
9.5306,1470
9.5333,1480
9.5361,1475
9.5389,1484
9.5417,1480
9.5444,1459
9.5472,1457
9.5500,1455
9.5528,1431
9.5556,1389
9.5583,1324
9.5611,1236
9.5639,1158
9.5667,1133
9.5694,1202
9.5722,1377
9.5750,1690
9.5778,2068
9.5806,2261
9.5833,2274
9.5861,2215
9.5889,2112
9.5917,2026
9.5944,1856
9.5972,1539
9.6000,1197
9.6028,953
9.6056,802
9.6083,716
9.6111,651
9.6139,591
9.6167,556
9.6194,554
9.6222,593
9.6250,653
9.6278,732
9.6306,832
9.6333,934
9.6361,1035
9.6389,1122
9.6417,1230
9.6444,1327
9.6472,1411
9.6500,1487
9.6528,1542
9.6556,1598
9.6583,1640
9.6611,1688
9.6639,1734
9.6667,1750
9.6694,1768
9.6722,1772
9.6750,1787
9.6778,1814
9.6806,1844
9.6833,1867
9.6861,1890
9.6889,1907
9.6917,1918
9.6944,1948
9.6972,1968
9.7000,1999
9.7028,2036
9.7056,2075
9.7083,2120
9.7111,2164
9.7139,2189
9.7167,2211
9.7194,2230
9.7222,2256
9.7250,2287
9.7278,2340
9.7306,2356
9.7333,2356
9.7361,2360
9.7389,2375
9.7417,2409
9.7444,2456
9.7472,2476
9.7500,2489
9.7528,2482
9.7556,2470
9.7583,2465
9.7611,2452
9.7639,2439
9.7667,2429
9.7694,2396
9.7722,2372
9.7750,2329
9.7778,2294
9.7806,2261
9.7833,2239
9.7861,2213
9.7889,2171
9.7917,2132
9.7944,2105
9.7972,2068
9.8000,2049
9.8028,2033
9.8056,2025
9.8083,2001
9.8111,1960
9.8139,1924
9.8167,1897
9.8194,1911
9.8222,1924
9.8250,1909
9.8278,1877
9.8306,1852
9.8333,1825
9.8361,1812
9.8389,1810
9.8417,1811
9.8444,1804
9.8472,1795
9.8500,1785
9.8528,1778
9.8556,1768
9.8583,1775
9.8611,1777
9.8639,1777
9.8667,1783
9.8694,1781
9.8722,1779
9.8750,1785
9.8778,1811
9.8806,1812
9.8833,1796
9.8861,1767
9.8889,1764
9.8917,1776
9.8944,1819
9.8972,1901
9.9000,1956
9.9028,2004
9.9056,2025
9.9083,2018
9.9111,2012
9.9139,2007
9.9167,2005
9.9194,2000
9.9222,1982
9.9250,1946
9.9278,1895
9.9306,1823
9.9333,1731
9.9361,1652
9.9389,1597
9.9417,1549
9.9444,1501
9.9472,1457
9.9500,1414
9.9528,1376
9.9556,1371
9.9583,1370
9.9611,1385
9.9639,1395
9.9667,1380
9.9694,1391
9.9722,1392
9.9750,1374
9.9778,1376
9.9806,1387
9.9833,1408
9.9861,1419
9.9889,1435
9.9917,1415
9.9944,1398
9.9972,1366
10.0000,1319
10.0028,1259
10.0056,1181
10.0083,1104
10.0111,1056
10.0139,1041
10.0167,1105
10.0194,1288
10.0222,1636
10.0250,1917
10.0278,1992
10.0306,1941
10.0333,1888
10.0361,1866
10.0389,1831
10.0417,1661
10.0444,1437
10.0472,1240
10.0500,1106
10.0528,986
10.0556,857
10.0583,737
10.0611,613
10.0639,518
10.0667,476
10.0694,499
10.0722,551
10.0750,634
10.0778,728
10.0806,821
10.0833,914
10.0861,1001
10.0889,1110
10.0917,1223
10.0944,1322
10.0972,1413
10.1000,1479
10.1028,1557
10.1056,1608
10.1083,1640
10.1111,1663
10.1139,1683
10.1167,1697
10.1194,1724
10.1222,1747
10.1250,1773
10.1278,1796
10.1306,1819
10.1333,1818
10.1361,1823
10.1389,1817
10.1417,1844
10.1444,1873
10.1472,1925
10.1500,1992
10.1528,2043
10.1556,2062
10.1583,2082
10.1611,2101
10.1639,2132
10.1667,2161
10.1694,2213
10.1722,2275
10.1750,2310
10.1778,2337
10.1806,2359
10.1833,2384
10.1861,2402
10.1889,2441
10.1917,2454
10.1944,2479
10.1972,2498
10.2000,2489
10.2028,2472
10.2056,2461
10.2083,2437
10.2111,2411
10.2139,2383
10.2167,2365
10.2194,1770
10.2222,1780
10.2250,1768
10.2278,1745
10.2306,1719
10.2333,1707
10.2361,1692
10.2389,1700
10.2417,1693
10.2444,1698
10.2472,1703
10.2500,1708
10.2528,1741
10.2556,1758
10.2583,1784
10.2611,1811
10.2639,1802
10.2667,1784
10.2694,1776
10.2722,1765
10.2750,1782
10.2778,1818
10.2806,1874
10.2833,1912
10.2861,1941
10.2889,1947
10.2917,1945
10.2944,1951
10.2972,1965
10.3000,1957
10.3028,1956
10.3056,1942
10.3083,1914
10.3111,1853
10.3139,1775
10.3167,1694
10.3194,1606
10.3222,1509
10.3250,1432
10.3278,1360
10.3306,1337
10.3333,1314
10.3361,1291
10.3389,1289
10.3417,1304
10.3444,1306
10.3472,1299
10.3500,1289
10.3528,1268
10.3556,1261
10.3583,1269
10.3611,1284
10.3639,1290
10.3667,1294
10.3694,1308
10.3722,1294
10.3750,1284
10.3778,1262
10.3806,1225
10.3833,1173
10.3861,1108
10.3889,1036
10.3917,938
10.3944,872
10.3972,867
10.4000,994
10.4028,1251
10.4056,1642
10.4083,2022
10.4111,2152
10.4139,2101
10.4167,2007
10.4194,1931
10.4222,1862
10.4250,1638
10.4278,1208
10.4306,773
10.4333,449
10.4361,273
10.4389,201
10.4417,164
10.4444,144
10.4472,170
10.4500,229
10.4528,314
10.4556,413
10.4583,534
10.4611,669
10.4639,800
10.4667,939
10.4694,1050
10.4722,1169
10.4750,1284
10.4778,1363
10.4806,1421
10.4833,1466
10.4861,1491
10.4889,1527
10.4917,1546
10.4944,1566
10.4972,1589
10.5000,1593
10.5028,1607
10.5056,1629
10.5083,1669
10.5111,1707
10.5139,1758
10.5167,1787
10.5194,1780
10.5222,1769
10.5250,1768
10.5278,1807
10.5306,1882
10.5333,1954
10.5361,2003
10.5389,2029
10.5417,2041
10.5444,2069
10.5472,2093
10.5500,2140
10.5528,2191
10.5556,2229
10.5583,2239
10.5611,2259
10.5639,2265
10.5667,2269
10.5694,2275
10.5722,2295
10.5750,2321
10.5778,2337
10.5806,2355
10.5833,2362
10.5861,2347
10.5889,2337
10.5917,2333
10.5944,2330
10.5972,2306
10.6000,2269
10.6028,2234
10.6056,2189
10.6083,2163
10.6111,2151
10.6139,2142
10.6167,2101
10.6194,2049
10.6222,2012
10.6250,1976
10.6278,1967
10.6306,1969
10.6333,1959
10.6361,1945
10.6389,1914
10.6417,1884
10.6444,1839
10.6472,1814
10.6500,1825
10.6528,1825
10.6556,1833
10.6583,1812
10.6611,1789
10.6639,1777
10.6667,1768
10.6694,1744
10.6722,1735
10.6750,1745
10.6778,1740
10.6806,1705
10.6833,1687
10.6861,1674
10.6889,1681
10.6917,1682
10.6944,1685
10.6972,1693
10.7000,1709
10.7028,1753
10.7056,1774
10.7083,1794
10.7111,1803
10.7139,1792
10.7167,1785
10.7194,1783
10.7222,1797
10.7250,1818
10.7278,1865
10.7306,1914
10.7333,1961
10.7361,2004
10.7389,2023
10.7417,2027
10.7444,2027
10.7472,2034
10.7500,2032
10.7528,2004
10.7556,1989
10.7583,1930
10.7611,1852
10.7639,1756
10.7667,1652
10.7694,1569
10.7722,1514
10.7750,1479
10.7778,1448
10.7806,1420
10.7833,1392
10.7861,1372
10.7889,1371
10.7917,1383
10.7944,1382
10.7972,1377
10.8000,1372
10.8028,1387
10.8056,1378
10.8083,1370
10.8111,1378
10.8139,1387
10.8167,1406
10.8194,1406
10.8222,1403
10.8250,1392
10.8278,1380
10.8306,1351
10.8333,1277
10.8361,1187
10.8389,1083
10.8417,998
10.8444,1008
10.8472,1129
10.8500,1356
10.8528,1713
10.8556,2117
10.8583,2295
10.8611,2283
10.8639,2175
10.8667,2032
10.8694,1918
10.8722,1698
10.8750,1275
10.8778,864
10.8806,580
10.8833,427
10.8861,364
10.8889,334
10.8917,336
10.8944,356
10.8972,414
10.9000,497
10.9028,598
10.9056,706
10.9083,827
10.9111,945
10.9139,1082
10.9167,1220
10.9194,1339
10.9222,1449
10.9250,1540
10.9278,1598
10.9306,1627
10.9333,1655
10.9361,1701
10.9389,1734
10.9417,1763
10.9444,1788
10.9472,1801
10.9500,1824
10.9528,1829
10.9556,1854
10.9583,1881
10.9611,1919
10.9639,1931
10.9667,1937
10.9694,1949
10.9722,1973
10.9750,2016
10.9778,2062
10.9806,2110
10.9833,2156
10.9861,2173
10.9889,2188
10.9917,2205
10.9944,2241
10.9972,2284
11.0000,2321
11.0028,2373
11.0056,2417
11.0083,2445
11.0111,2458
11.0139,2450
11.0167,2448
11.0194,2467
11.0222,2487
11.0250,2485
11.0278,2498
11.0306,2494
11.0333,2499
11.0361,2499
11.0389,2491
11.0417,2471
11.0444,2434
11.0472,2397
11.0500,2353
11.0528,2320
11.0556,2312
11.0583,2309
11.0611,2293
11.0639,2263
11.0667,2224
11.0694,2181
11.0722,1807
11.0750,1812
11.0778,1811
11.0806,1804
11.0833,1807
11.0861,1802
11.0889,1802
11.0917,1827
11.0944,1848
11.0972,1858
11.1000,1871
11.1028,1856
11.1056,1836
11.1083,1826
11.1111,1823
11.1139,1853
11.1167,1892
11.1194,1935
11.1222,1977
11.1250,2015
11.1278,2045
11.1306,2054
11.1333,2062
11.1361,2068
11.1389,2060
11.1417,2055
11.1444,2030
11.1472,1996
11.1500,1929
11.1528,1848
11.1556,1770
11.1583,1694
11.1611,1623
11.1639,1581
11.1667,1541
11.1694,1512
11.1722,1475
11.1750,1468
11.1778,1456
11.1806,1453
11.1833,1439
11.1861,1429
11.1889,1427
11.1917,1442
11.1944,1458
11.1972,1472
11.2000,1478
11.2028,1466
11.2056,1445
11.2083,1434
11.2111,1430
11.2139,1451
11.2167,1462
11.2194,1444
11.2222,1409
11.2250,1333
11.2278,1240
11.2306,1155
11.2333,1111
11.2361,1143
11.2389,1257
11.2417,1504
11.2444,1848
11.2472,2073
11.2500,2092
11.2528,2036
11.2556,1964
11.2583,1918
11.2611,1824
11.2639,1604
11.2667,1368
11.2694,1214
11.2722,1098
11.2750,997
11.2778,895
11.2806,784
11.2833,682
11.2861,623
11.2889,597
11.2917,629
11.2944,677
11.2972,757
11.3000,836
11.3028,927
11.3056,1016
11.3083,1099
11.3111,1205
11.3139,1302
11.3167,1382
11.3194,1442
11.3222,1518
11.3250,1581
11.3278,1634
11.3306,1692
11.3333,1726
11.3361,1738
11.3389,1721
11.3417,1717
11.3444,1732
11.3472,1755
11.3500,1798
11.3528,1828
11.3556,1861
11.3583,1873
11.3611,1878
11.3639,1905
11.3667,1936
11.3694,1962
11.3722,2007
11.3750,2062
11.3778,2089
11.3806,2115
11.3833,2139
11.3861,2148
11.3889,2175
11.3917,2218
11.3944,2256
11.3972,2297
11.4000,2329
11.4028,2356
11.4056,2385
11.4083,2407
11.4111,2415
11.4139,2427
11.4167,2438
11.4194,2433
11.4222,2438
11.4250,2443
11.4278,2441
11.4306,2430
11.4333,2420
11.4361,2401
11.4389,2362
11.4417,2332
11.4444,2285
11.4472,2249
11.4500,2214
11.4528,2188
11.4556,2178
11.4583,2159
11.4611,2127
11.4639,2085
11.4667,2054
11.4694,2046
11.4722,2024
11.4750,1987
11.4778,1942
11.4806,1905
11.4833,1873
11.4861,1846
11.4889,1842
11.4917,1830
11.4944,1838
11.4972,1824
11.5000,1803
11.5028,1785
11.5056,1774
11.5083,1770
11.5111,1774
11.5139,1771
11.5167,1748
11.5194,1722
11.5222,1701
11.5250,1684
11.5278,1691
11.5306,1690
11.5333,1713
11.5361,1716
11.5389,1729
11.5417,1746
11.5444,1752
11.5472,1774
11.5500,1782
11.5528,1783
11.5556,1772
11.5583,1770
11.5611,1787
11.5639,1806
11.5667,1846
11.5694,1892
11.5722,1938
11.5750,1975
11.5778,1998
11.5806,1997
11.5833,1990
11.5861,1995
11.5889,1998
11.5917,1989
11.5944,1955
11.5972,1909
11.6000,1861
11.6028,1800
11.6056,1725
11.6083,1653
11.6111,1581
11.6139,1522
11.6167,1473
11.6194,1434
11.6222,1406
11.6250,1394
11.6278,1381
11.6306,1373
11.6333,1379
11.6361,1386
11.6389,1387
11.6417,1390
11.6444,1379
11.6472,1378
11.6500,1379
11.6528,1383
11.6556,1384
11.6583,1381
11.6611,1368
11.6639,1384
11.6667,1385
11.6694,1383
11.6722,1348
11.6750,1275
11.6778,1176
11.6806,1058
11.6833,982
11.6861,1003
11.6889,1114
11.6917,1343
11.6944,1702
11.6972,1971
11.7000,2033
11.7028,2012
11.7056,1961
11.7083,1918
11.7111,1814
11.7139,1573
11.7167,1306
11.7194,1105
11.7222,967
11.7250,862
11.7278,763
11.7306,654
11.7333,560
11.7361,517
11.7389,517
11.7417,558
11.7444,629
11.7472,706
11.7500,807
11.7528,901
11.7556,975
11.7583,1062
11.7611,1167
11.7639,1273
11.7667,1366
11.7694,1448
11.7722,1531
11.7750,1592
11.7778,1633
11.7806,1667
11.7833,1679
11.7861,1674
11.7889,1697
11.7917,1721
11.7944,1754
11.7972,1792
11.8000,1828
11.8028,1861
11.8056,1880
11.8083,1908
11.8111,1917
11.8139,1928
11.8167,1951
11.8194,1958
11.8222,1986
11.8250,2026
11.8278,2071
11.8306,2096
11.8333,2125
11.8361,2170
11.8389,2228
11.8417,2268
11.8444,2306
11.8472,2313
11.8500,2324
11.8528,2349
11.8556,2390
11.8583,2428
11.8611,2460
11.8639,2485
11.8667,2495
11.8694,2472
11.8722,2454
11.8750,2436
11.8778,2429
11.8806,2426
11.8833,2405
11.8861,2391
11.8889,1820
11.8917,1814
11.8944,1792
11.8972,1766
11.9000,1751
11.9028,1744
11.9056,1741
11.9083,1749
11.9111,1753
11.9139,1731
11.9167,1712
11.9194,1700
11.9222,1742
11.9250,1806
11.9278,1872
11.9306,1902
11.9333,1901
11.9361,1894
11.9389,1861
11.9417,1836
11.9444,1838
11.9472,1847
11.9500,1884
11.9528,1920
11.9556,1963
11.9583,2000
11.9611,2028
11.9639,2044
11.9667,2041
11.9694,2042
11.9722,2035
11.9750,2029
11.9778,2026
11.9806,1979
11.9833,1929
11.9861,1857
11.9889,1752
11.9917,1679
11.9944,1605
11.9972,1532
12.0000,1467
12.0028,1434
12.0056,1417
12.0083,1391
12.0111,1370
12.0139,1353
12.0167,1337
12.0194,1353
12.0222,1364
12.0250,1367
12.0278,1357
12.0306,1353
12.0333,1340
12.0361,1316
12.0389,1304
12.0417,1315
12.0444,1346
12.0472,1354
12.0500,1345
12.0528,1319
12.0556,1252
12.0583,1172
12.0611,1079
12.0639,983
12.0667,900
12.0694,898
12.0722,1009
12.0750,1240
12.0778,1606
12.0806,2019
12.0833,2223
12.0861,2216
12.0889,2148
12.0917,2067
12.0944,1979
12.0972,1789
12.1000,1372
12.1028,905
12.1056,527
12.1083,307
12.1111,230
12.1139,215
12.1167,222
12.1194,256
12.1222,305
12.1250,380
12.1278,477
12.1306,611
12.1333,741
12.1361,851
12.1389,971
12.1417,1104
12.1444,1230
12.1472,1354
12.1500,1457
12.1528,1518
12.1556,1536
12.1583,1525
12.1611,1542
12.1639,1579
12.1667,1634
12.1694,1681
12.1722,1691
12.1750,1705
12.1778,1713
12.1806,1727
12.1833,1770
12.1861,1815
12.1889,1843
12.1917,1854
12.1944,1861
12.1972,1868
12.2000,1885
12.2028,1915
12.2056,1956
12.2083,1994
12.2111,2028
12.2139,2054
12.2167,2094
12.2194,2141
12.2222,2194
12.2250,2240
12.2278,2259
12.2306,2266
12.2333,2266
12.2361,2274
12.2389,2294
12.2417,2316
12.2444,2340
12.2472,2348
12.2500,2356
12.2528,2367
12.2556,2364
12.2583,2338
12.2611,2330
12.2639,2326
12.2667,2315
12.2694,2304
12.2722,2277
12.2750,2235
12.2778,2179
12.2806,2131
12.2833,2103
12.2861,2099
12.2889,2094
12.2917,2067
12.2944,2022
12.2972,1985
12.3000,1944
12.3028,1925
12.3056,1909
12.3083,1900
12.3111,1903
12.3139,1879
12.3167,1862
12.3194,1837
12.3222,1817
12.3250,1805
12.3278,1785
12.3306,1769
12.3333,1738
12.3361,1707
12.3389,1682
12.3417,1658
12.3444,1650
12.3472,1652
12.3500,1640
12.3528,1625
12.3556,1621
12.3583,1625
12.3611,1631
12.3639,1632
12.3667,1633
12.3694,1624
12.3722,1602
12.3750,1603
12.3778,1627
12.3806,1669
12.3833,1712
12.3861,1737
12.3889,1746
12.3917,1724
12.3944,1683
12.3972,1661
12.4000,1661
12.4028,1687
12.4056,1747
12.4083,1811
12.4111,1854
12.4139,1867
12.4167,1860
12.4194,1856
12.4222,1876
12.4250,1882
12.4278,1885
12.4306,1864
12.4333,1829
12.4361,1799
12.4389,1744
12.4417,1655
12.4444,1574
12.4472,1499
12.4500,1424
12.4528,1362
12.4556,1304
12.4583,1268
12.4611,1256
12.4639,1249
12.4667,1255
12.4694,1257
12.4722,1258
12.4750,1257
12.4778,1250
12.4806,1234
12.4833,1254
12.4861,1261
12.4889,1251
12.4917,1223
12.4944,1218
12.4972,1227
12.5000,1240
12.5028,1237
12.5056,1229
12.5083,1201
12.5111,1124
12.5139,1031
12.5167,950
12.5194,877
12.5222,866
12.5250,950
12.5278,1154
12.5306,1487
12.5333,1894
12.5361,2108
12.5389,2111
12.5417,2019
12.5444,1886
12.5472,1779
12.5500,1601
12.5528,1244
12.5556,841
12.5583,544
12.5611,386
12.5639,315
12.5667,277
12.5694,239
12.5722,230
12.5750,255
12.5778,324
12.5806,419
12.5833,518
12.5861,627
12.5889,734
12.5917,849
12.5944,978
12.5972,1114
12.6000,1234
12.6028,1331
12.6056,1413
12.6083,1453
12.6111,1486
12.6139,1524
12.6167,1560
12.6194,1585
12.6222,1616
12.6250,1632
12.6278,1652
12.6306,1662
12.6333,1678
12.6361,1718
12.6389,1759
12.6417,1797
12.6444,1818
12.6472,1821
12.6500,1821
12.6528,1813
12.6556,1843
12.6583,1876
12.6611,1937
12.6639,1973
12.6667,2010
12.6694,2045
12.6722,2076
12.6750,2102
12.6778,2134
12.6806,2169
12.6833,2200
12.6861,2215
12.6889,2225
12.6917,2251
12.6944,2284
12.6972,2299
12.7000,2321
12.7028,2322
12.7056,2330
12.7083,2310
12.7111,2306
12.7139,2285
12.7167,2262
12.7194,2258
12.7222,2245
12.7250,2234
12.7278,1676
12.7306,1673
12.7333,1672
12.7361,1648
12.7389,1631
12.7417,1604
12.7444,1599
12.7472,1579
12.7500,1569
12.7528,1556
12.7556,1549
12.7583,1544
12.7611,1550
12.7639,1564
12.7667,1580
12.7694,1593
12.7722,1607
12.7750,1615
12.7778,1624
12.7806,1616
12.7833,1611
12.7861,1612
12.7889,1598
12.7917,1611
12.7944,1632
12.7972,1653
12.8000,1686
12.8028,1730
12.8056,1787
12.8083,1835
12.8111,1863
12.8139,1864
12.8167,1857
12.8194,1847
12.8222,1836
12.8250,1840
12.8278,1810
12.8306,1759
12.8333,1686
12.8361,1592
12.8389,1505
12.8417,1425
12.8444,1380
12.8472,1345
12.8500,1315
12.8528,1296
12.8556,1280
12.8583,1257
12.8611,1260
12.8639,1263
12.8667,1278
12.8694,1268
12.8722,1263
12.8750,1262
12.8778,1262
12.8806,1265
12.8833,1269
12.8861,1265
12.8889,1256
12.8917,1270
12.8944,1283
12.8972,1302
12.9000,1297
12.9028,1265
12.9056,1212
12.9083,1123
12.9111,1014
12.9139,924
12.9167,897
12.9194,962
12.9222,1140
12.9250,1483
12.9278,1859
12.9306,1995
12.9333,1969
12.9361,1900
12.9389,1841
12.9417,1801
12.9444,1654
12.9472,1395
12.9500,1146
12.9528,960
12.9556,825
12.9583,719
12.9611,621
12.9639,530
12.9667,464
12.9694,444
12.9722,469
12.9750,521
12.9778,597
12.9806,689
12.9833,778
12.9861,877
12.9889,965
12.9917,1069
12.9944,1182
12.9972,1291
13.0000,1377
13.0028,1443
13.0056,1502
13.0083,1553
13.0111,1606
13.0139,1655
13.0167,1703
13.0194,1730
13.0222,1756
13.0250,1767
13.0278,1798
13.0306,1832
13.0333,1866
13.0361,1873
13.0389,1881
13.0417,1896
13.0444,1919
13.0472,1940
13.0500,1977
13.0528,2027
13.0556,2055
13.0583,2074
13.0611,2097
13.0639,2119
13.0667,2146
13.0694,2184
13.0722,2219
13.0750,2253
13.0778,2281
13.0806,2300
13.0833,2322
13.0861,2344
13.0889,2378
13.0917,2398
13.0944,2447
13.0972,2477
13.1000,2489
13.1028,2483
13.1056,2484
13.1083,2466
13.1111,2472
13.1139,2450
13.1167,2408
13.1194,2353
13.1222,2296
13.1250,2237
13.1278,2209
13.1306,2214
13.1333,2218
13.1361,2190
13.1389,2155
13.1417,2122
13.1444,2082
13.1472,2054
13.1500,2034
13.1528,1999
13.1556,1970
13.1583,1927
13.1611,1898
13.1639,1850
13.1667,1832
13.1694,1837
13.1722,1849
13.1750,1837
13.1778,1832
13.1806,1816
13.1833,1808
13.1861,1798
13.1889,1800
13.1917,1776
13.1944,1736
13.1972,1717
13.2000,1714
13.2028,1728
13.2056,1760
13.2083,1786
13.2111,1799
13.2139,1791
13.2167,1786
13.2194,1771
13.2222,1753
13.2250,1761
13.2278,1772
13.2306,1792
13.2333,1820
13.2361,1841
13.2389,1858
13.2417,1852
13.2444,1839
13.2472,1826
13.2500,1815
13.2528,1825
13.2556,1863
13.2583,1931
13.2611,2010
13.2639,2073
13.2667,2101
13.2694,2123
13.2722,2137
13.2750,2140
13.2778,2142
13.2806,2117
13.2833,2095
13.2861,2061
13.2889,2006
13.2917,1920
13.2944,1809
13.2972,1726
13.3000,1672
13.3028,1633
13.3056,1606
13.3083,1579
13.3111,1549
13.3139,1535
13.3167,1528
13.3194,1515
13.3222,1499
13.3250,1501
13.3278,1494
13.3306,1496
13.3333,1505
13.3361,1532
13.3389,1549
13.3417,1565
13.3444,1565
13.3472,1566
13.3500,1575
13.3528,1576
13.3556,1562
13.3583,1536
13.3611,1491
13.3639,1431
13.3667,1355
13.3694,1267
13.3722,1206
13.3750,1190
13.3778,1258
13.3806,1421
13.3833,1705
13.3861,2010
13.3889,2139
13.3917,2166
13.3944,2156
13.3972,2136
13.4000,2090
13.4028,1930
13.4056,1658
13.4083,1415
13.4111,1248
13.4139,1117
13.4167,1006
13.4194,912
13.4222,826
13.4250,735
13.4278,689
13.4306,686
13.4333,726
13.4361,781
13.4389,857
13.4417,951
13.4444,1048
13.4472,1139
13.4500,1237
13.4528,1334
13.4556,1443
13.4583,1532
13.4611,1617
13.4639,1676
13.4667,1732
13.4694,1788
13.4722,1816
13.4750,1839
13.4778,1846
13.4806,1845
13.4833,1831
13.4861,1839
13.4889,1881
13.4917,1928
13.4944,1962
13.4972,1988
13.5000,2011
13.5028,2032
13.5056,2051
13.5083,2088
13.5111,2132
13.5139,2176
13.5167,2219
13.5194,2237
13.5222,2274
13.5250,2303
13.5278,2336
13.5306,2363
13.5333,2395
13.5361,2403
13.5389,2399
13.5417,2424
13.5444,2453
13.5472,2487
13.5500,2509
13.5528,2511
13.5556,2520
13.5583,2513
13.5611,2513
13.5639,2507
13.5667,2496
13.5694,2484
13.5722,2462
13.5750,2451
13.5778,2419
13.5806,1817
13.5833,1810
13.5861,1805
13.5889,1795
13.5917,1790
13.5944,1780
13.5972,1779
13.6000,1759
13.6028,1752
13.6056,1739
13.6083,1724
13.6111,1715
13.6139,1719
13.6167,1735
13.6194,1752
13.6222,1767
13.6250,1772
13.6278,1767
13.6306,1762
13.6333,1772
13.6361,1789
13.6389,1800
13.6417,1796
13.6444,1790
13.6472,1811
13.6500,1840
13.6528,1898
13.6556,1944
13.6583,1982
13.6611,2010
13.6639,2015
13.6667,2016
13.6694,2003
13.6722,1977
13.6750,1951
13.6778,1934
13.6806,1903
13.6833,1863
13.6861,1808
13.6889,1721
13.6917,1645
13.6944,1568
13.6972,1485
13.7000,1437
13.7028,1394
13.7056,1344
13.7083,1313
13.7111,1295
13.7139,1296
13.7167,1296
13.7194,1297
13.7222,1303
13.7250,1294
13.7278,1276
13.7306,1260
13.7333,1243
13.7361,1229
13.7389,1211
13.7417,1199
13.7444,1190
13.7472,1178
13.7500,1184
13.7528,1167
13.7556,1127
13.7583,1046
13.7611,947
13.7639,823
13.7667,717
13.7694,673
13.7722,715
13.7750,861
13.7778,1149
13.7806,1517
13.7833,1736
13.7861,1748
13.7889,1690
13.7917,1607
13.7944,1528
13.7972,1393
13.8000,1118
13.8028,808
13.8056,566
13.8083,379
13.8111,262
13.8139,166
13.8167,73
13.8194,87
13.8222,192
13.8250,312
13.8278,425
13.8306,511
13.8333,585
13.8361,631
13.8389,667
13.8417,721
13.8444,758
13.8472,798
13.8500,813
13.8528,834
13.8556,833
13.8583,843
13.8611,855
13.8639,866
13.8667,891
13.8694,894
13.8722,897
13.8750,883
13.8778,882
13.8806,894
13.8833,933
13.8861,975
13.8889,1011
13.8917,1055
13.8944,1075
13.8972,1108
13.9000,1155
13.9028,1198
13.9056,1235
13.9083,1255
13.9111,1283
13.9139,1312
13.9167,1329
13.9194,1329
13.9222,1332
13.9250,1343
13.9278,1366
13.9306,1371
13.9333,1360
13.9361,1334
13.9389,1319
13.9417,1296
13.9444,1260
13.9472,1254
13.9500,1246
13.9528,1249
13.9556,1228
13.9583,1209
13.9611,1181
13.9639,1154
13.9667,1114
13.9694,1086
13.9722,1055
13.9750,1029
13.9778,1014
13.9806,1014
13.9833,1005
13.9861,1017
13.9889,1001
13.9917,984
13.9944,955
13.9972,954
14.0000,962
14.0028,984
14.0056,990
14.0083,990
14.0111,990
14.0139,993
14.0167,991
14.0194,1005
14.0222,1020
14.0250,1024
14.0278,1039
14.0306,1056
14.0333,1080
14.0361,1086
14.0389,1059
14.0417,1043
14.0444,1052
14.0472,1070
14.0500,1087
14.0528,1105
14.0556,1141
14.0583,1171
14.0611,1196
14.0639,1240
14.0667,1279
14.0694,1325
14.0722,1356
14.0750,1365
14.0778,1360
14.0806,1372
14.0833,1382
14.0861,1428
14.0889,1493
14.0917,1571
14.0944,1634
14.0972,1683
14.1000,1743
14.1028,1776
14.1056,1802
14.1083,1793
14.1111,1788
14.1139,1807
14.1167,1818
14.1194,1824
14.1222,1809
14.1250,1761
14.1278,1708
14.1306,1665
14.1333,1629
14.1361,1593
14.1389,1593
14.1417,1590
14.1444,1606
14.1472,1629
14.1500,1649
14.1528,1676
14.1556,1706
14.1583,1748
14.1611,1787
14.1639,1838
14.1667,1868
14.1694,1919
14.1722,1973
14.1750,2011
14.1778,2043
14.1806,2078
14.1833,2111
14.1861,2165
14.1889,2216
14.1917,2240
14.1944,2264
14.1972,2270
14.2000,2243
14.2028,2198
14.2056,2144
14.2083,2160
14.2111,2273
14.2139,2506
14.2167,2869
14.2194,3296
14.2222,3342
14.2250,3355
14.2278,3377
14.2306,3373
14.2333,3366
14.2361,3335
14.2389,3107
14.2417,2743
14.2444,2415
14.2472,2224
14.2500,2134
14.2528,2075
14.2556,2021
14.2583,2003
14.2611,2027
14.2639,2078
14.2667,2148
14.2694,2214
14.2722,2280
14.2750,2335
14.2778,2399
14.2806,2501
14.2833,2617
14.2861,2733
14.2889,2838
14.2917,2915
14.2944,2973
14.2972,3011
14.3000,3068
14.3028,3117
14.3056,3173
14.3083,3216
14.3111,3242
14.3139,3215
14.3167,3200
14.3194,3206
14.3222,3234
14.3250,3284
14.3278,3300
14.3306,3318
14.3333,3312
14.3361,3306
14.3389,3318
14.3417,3325
14.3444,3342
14.3472,3364
14.3500,3374
14.3528,3357
14.3556,3352
14.3583,3347
14.3611,3346
14.3639,3370
14.3667,3375
14.3694,3382
14.3722,3365
14.3750,3369
14.3778,3344
14.3806,3357
14.3833,3368
14.3861,3387
14.3889,3375
14.3917,3380
14.3944,3367
14.3972,3354
14.4000,3357
14.4028,3367
14.4056,3378
14.4083,3381
14.4111,2624
14.4139,2618
14.4167,2586
14.4194,2565
14.4222,2551
14.4250,2541
14.4278,2554
14.4306,2540
14.4333,2519
14.4361,2475
14.4389,2420
14.4417,2389
14.4444,2362
14.4472,2358
14.4500,2350
14.4528,2345
14.4556,2346
14.4583,2346
14.4611,2341
14.4639,2358
14.4667,2374
14.4694,2389
14.4722,2401
14.4750,2394
14.4778,2355
14.4806,2308
14.4833,2286
14.4861,2297
14.4889,2347
14.4917,2397
14.4944,2433
14.4972,2446
14.5000,2445
14.5028,2454
14.5056,2461
14.5083,2461
14.5111,2457
14.5139,2448
14.5167,2416
14.5194,2380
14.5222,2323
14.5250,2236
14.5278,2154
14.5306,2076
14.5333,1995
14.5361,1911
14.5389,1841
14.5417,1771
14.5444,1731
14.5472,1709
14.5500,1684
14.5528,1681
14.5556,1661
14.5583,1659
14.5611,1642
14.5639,1640
14.5667,1638
14.5694,1629
14.5722,1621
14.5750,1604
14.5778,1587
14.5806,1586
14.5833,1584
14.5861,1578
14.5889,1586
14.5917,1575
14.5944,1543
14.5972,1487
14.6000,1389
14.6028,1288
14.6056,1189
14.6083,1130
14.6111,1177
14.6139,1315
14.6167,1565
14.6194,1949
14.6222,2334
14.6250,2469
14.6278,2447
14.6306,2343
14.6333,2202
14.6361,2061
14.6389,1784
14.6417,1368
14.6444,1002
14.6472,751
14.6500,615
14.6528,541
14.6556,481
14.6583,441
14.6611,422
14.6639,444
14.6667,501
14.6694,593
14.6722,707
14.6750,811
14.6778,903
14.6806,986
14.6833,1091
14.6861,1213
14.6889,1325
14.6917,1419
14.6944,1486
14.6972,1537
14.7000,1562
14.7028,1584
14.7056,1609
14.7083,1640
14.7111,1687
14.7139,1698
14.7167,1681
14.7194,1673
14.7222,1702
14.7250,1739
14.7278,1778
14.7306,1812
14.7333,1841
14.7361,1852
14.7389,1868
14.7417,1883
14.7444,1909
14.7472,1947
14.7500,1981
14.7528,2006
14.7556,2032
14.7583,2073
14.7611,2114
14.7639,2165
14.7667,2208
14.7694,2238
14.7722,2248
14.7750,2254
14.7778,2248
14.7806,2255
14.7833,2281
14.7861,2288
14.7889,2293
14.7917,2298
14.7944,2305
14.7972,2304
14.8000,2316
14.8028,2312
14.8056,2286
14.8083,2254
14.8111,2225
14.8139,2199
14.8167,2163
14.8194,2146
14.8222,2124
14.8250,2110
14.8278,2091
14.8306,2073
14.8333,2028
14.8361,1985
14.8389,1947
14.8417,1915
14.8444,1884
14.8472,1874
14.8500,1866
14.8528,1840
14.8556,1817
14.8583,1783
14.8611,1763
14.8639,1753
14.8667,1739
14.8694,1716
14.8722,1691
14.8750,1665
14.8778,1646
14.8806,1646
14.8833,1648
14.8861,1651
14.8889,1632
14.8917,1605
14.8944,1572
14.8972,1546
14.9000,1545
14.9028,1543
14.9056,1543
14.9083,1544
14.9111,1557
14.9139,1535
14.9167,1506
14.9194,1471
14.9222,1448
14.9250,1456
14.9278,1467
14.9306,1483
14.9333,1505
14.9361,1522
14.9389,1552
14.9417,1567
14.9444,1593
14.9472,1603
14.9500,1573
14.9528,1549
14.9556,1548
14.9583,1552
14.9611,1578
14.9639,1620
14.9667,1692
14.9694,1753
14.9722,1808
14.9750,1827
14.9778,1821
14.9806,1816
14.9833,1809
14.9861,1801
14.9889,1770
14.9917,1731
14.9944,1658
14.9972,1559
15.0000,1484
15.0028,1406
15.0056,1333
15.0083,1283
15.0111,1241
15.0139,1201
15.0167,1168
15.0194,1150
15.0222,1151
15.0250,1155
15.0278,1156
15.0306,1161
15.0333,1150
15.0361,1148
15.0389,1141
15.0417,1147
15.0444,1152
15.0472,1173
15.0500,1185
15.0528,1193
15.0556,1185
15.0583,1180
15.0611,1170
15.0639,1147
15.0667,1129
15.0694,1078
15.0722,1011
15.0750,921
15.0778,860
15.0806,867
15.0833,975
15.0861,1189
15.0889,1536
15.0917,1891
15.0944,2026
15.0972,2004
15.1000,1914
15.1028,1826
15.1056,1728
15.1083,1521
15.1111,1178
15.1139,869
15.1167,634
15.1194,491
15.1222,418
15.1250,358
15.1278,303
15.1306,275
15.1333,292
15.1361,333
15.1389,403
15.1417,490
15.1444,581
15.1472,666
15.1500,755
15.1528,842
15.1556,956
15.1583,1064
15.1611,1160
15.1639,1245
15.1667,1307
15.1694,1355
15.1722,1391
15.1750,1415
15.1778,1445
15.1806,1471
15.1833,1489
15.1861,1518
15.1889,1549
15.1917,1579
15.1944,1629
15.1972,1652
15.2000,1653
15.2028,1651
15.2056,1660
15.2083,1683
15.2111,1726
15.2139,1768
15.2167,1819
15.2194,1858
15.2222,1887
15.2250,1926
15.2278,1965
15.2306,1997
15.2333,2031
15.2361,2070
15.2389,2097
15.2417,2127
15.2444,2151
15.2472,2153
15.2500,2167
15.2528,2200
15.2556,2228
15.2583,2253
15.2611,2259
15.2639,2259
15.2667,2271
15.2694,2274
15.2722,2265
15.2750,2263
15.2778,2240
15.2806,2233
15.2833,2212
15.2861,1653
15.2889,1656
15.2917,1626
15.2944,1605
15.2972,1590
15.3000,1581
15.3028,1578
15.3056,1574
15.3083,1577
15.3111,1583
15.3139,1578
15.3167,1559
15.3194,1537
15.3222,1520
15.3250,1516
15.3278,1519
15.3306,1518
15.3333,1511
15.3361,1505
15.3389,1503
15.3417,1520
15.3444,1543
15.3472,1567
15.3500,1588
15.3528,1604
15.3556,1606
15.3583,1604
15.3611,1608
15.3639,1606
15.3667,1595
15.3694,1596
15.3722,1611
15.3750,1641
15.3778,1705
15.3806,1761
15.3833,1828
15.3861,1868
15.3889,1885
15.3917,1891
15.3944,1895
15.3972,1898
15.4000,1880
15.4028,1862
15.4056,1817
15.4083,1758
15.4111,1693
15.4139,1631
15.4167,1571
15.4194,1509
15.4222,1457
15.4250,1397
15.4278,1344
15.4306,1310
15.4333,1280
15.4361,1270
15.4389,1265
15.4417,1268
15.4444,1254
15.4472,1246
15.4500,1236
15.4528,1244
15.4556,1272
15.4583,1289
15.4611,1304
15.4639,1310
15.4667,1309
15.4694,1320
15.4722,1323
15.4750,1310
15.4778,1296
15.4806,1270
15.4833,1247
15.4861,1222
15.4889,1174
15.4917,1074
15.4944,982
15.4972,974
15.5000,1062
15.5028,1267
15.5056,1599
15.5083,1881
15.5111,1980
15.5139,1979
15.5167,1936
15.5194,1898
15.5222,1849
15.5250,1657
15.5278,1396
15.5306,1178
15.5333,1021
15.5361,904
15.5389,797
15.5417,687
15.5444,589
15.5472,496
15.5500,448
15.5528,435
15.5556,470
15.5583,560
15.5611,672
15.5639,804
15.5667,930
15.5694,1038
15.5722,1132
15.5750,1222
15.5778,1278
15.5806,1344
15.5833,1408
15.5861,1475
15.5889,1533
15.5917,1583
15.5944,1624
15.5972,1661
15.6000,1694
15.6028,1714
15.6056,1723
15.6083,1736
15.6111,1746
15.6139,1750
15.6167,1769
15.6194,1812
15.6222,1843
15.6250,1867
15.6278,1903
15.6306,1933
15.6333,1967
15.6361,2012
15.6389,2042
15.6417,2073
15.6444,2110
15.6472,2152
15.6500,2196
15.6528,2229
15.6556,2271
15.6583,2301
15.6611,2321
15.6639,2336
15.6667,2360
15.6694,2389
15.6722,2424
15.6750,2449
15.6778,2478
15.6806,2474
15.6833,2470
15.6861,2439
15.6889,2414
15.6917,2388
15.6944,2374
15.6972,2362
15.7000,2350
15.7028,2329
15.7056,2285
15.7083,2239
15.7111,2212
15.7139,2190
15.7167,2172
15.7194,2125
15.7222,2084
15.7250,2053
15.7278,1685
15.7306,1699
15.7333,1697
15.7361,1693
15.7389,1670
15.7417,1645
15.7444,1637
15.7472,1628
15.7500,1648
15.7528,1662
15.7556,1693
15.7583,1709
15.7611,1735
15.7639,1755
15.7667,1789
15.7694,1828
15.7722,1853
15.7750,1837
15.7778,1814
15.7806,1777
15.7833,1788
15.7861,1835
15.7889,1889
15.7917,1952
15.7944,1991
15.7972,2014
15.8000,2027
15.8028,2040
15.8056,2051
15.8083,2057
15.8111,2052
15.8139,2026
15.8167,1977
15.8194,1915
15.8222,1834
15.8250,1753
15.8278,1675
15.8306,1594
15.8333,1514
15.8361,1468
15.8389,1423
15.8417,1387
15.8444,1366
15.8472,1381
15.8500,1393
15.8528,1403
15.8556,1402
15.8583,1387
15.8611,1379
15.8639,1376
15.8667,1383
15.8694,1384
15.8722,1385
15.8750,1380
15.8778,1379
15.8806,1371
15.8833,1374
15.8861,1389
15.8889,1399
15.8917,1386
15.8944,1336
15.8972,1250
15.9000,1154
15.9028,1067
15.9056,1024
15.9083,1076
15.9111,1239
15.9139,1493
15.9167,1872
15.9194,2212
15.9222,2328
15.9250,2277
15.9278,2194
15.9306,2093
15.9333,1996
15.9361,1722
15.9389,1302
15.9417,895
15.9444,608
15.9472,452
15.9500,379
15.9528,338
15.9556,323
15.9583,358
15.9611,411
15.9639,486
15.9667,587
15.9694,699
15.9722,833
15.9750,956
15.9778,1073
15.9806,1170
15.9833,1287
15.9861,1401
15.9889,1492
15.9917,1541
15.9944,1581
15.9972,1610
16.0000,1652
16.0028,1688
16.0056,1741
16.0083,1782
16.0111,1775
16.0139,1769
16.0167,1778
16.0194,1809
16.0222,1840
16.0250,1871
16.0278,1907
16.0306,1929
16.0333,1935
16.0361,1948
16.0389,1977
16.0417,2020
16.0444,2052
16.0472,2098
16.0500,2124
16.0528,2158
16.0556,2200
16.0583,2246
16.0611,2298
16.0639,2331
16.0667,2366
16.0694,2390
16.0722,2385
16.0750,2384
16.0778,2381
16.0806,2417
16.0833,2457
16.0861,2496
16.0889,2518
16.0917,2522
16.0944,2504
16.0972,2492
16.1000,2483
16.1028,2477
16.1056,2474
16.1083,2455
16.1111,2424
16.1139,2384
16.1167,2342
16.1194,2315
16.1222,2286
16.1250,2269
16.1278,2231
16.1306,2202
16.1333,2184
16.1361,2155
16.1389,2121
16.1417,2088
16.1444,2077
16.1472,2063
16.1500,2033
16.1528,2004
16.1556,1970
16.1583,1964
16.1611,1943
16.1639,1938
16.1667,1926
16.1694,1724
16.1722,1727
16.1750,1743
16.1778,1746
16.1806,1774
16.1833,1793
16.1861,1827
16.1889,1857
16.1917,1840
16.1944,1808
16.1972,1776
16.2000,1770
16.2028,1806
16.2056,1861
16.2083,1917
16.2111,1963
16.2139,1988
16.2167,2005
16.2194,2006
16.2222,2017
16.2250,2050
16.2278,2082
16.2306,2091
16.2333,2069
16.2361,2015
16.2389,1947
16.2417,1861
16.2444,1789
16.2472,1721
16.2500,1644
16.2528,1556
16.2556,1495
16.2583,1441
16.2611,1410
16.2639,1400
16.2667,1418
16.2694,1410
16.2722,1396
16.2750,1399
16.2778,1386
16.2806,1374
16.2833,1375
16.2861,1394
16.2889,1401
16.2917,1415
16.2944,1425
16.2972,1426
16.3000,1422
16.3028,1414
16.3056,1412
16.3083,1401
16.3111,1368
16.3139,1336
16.3167,1268
16.3194,1202
16.3222,1109
16.3250,1076
16.3278,1124
16.3306,1260
16.3333,1518
16.3361,1911
16.3389,2257
16.3417,2350
16.3444,2294
16.3472,2191
16.3500,2086
16.3528,1957
16.3556,1635
16.3583,1190
16.3611,809
16.3639,569
16.3667,447
16.3694,395
16.3722,361
16.3750,341
16.3778,349
16.3806,409
16.3833,500
16.3861,604
16.3889,715
16.3917,827
16.3944,921
16.3972,1039
16.4000,1170
16.4028,1292
16.4056,1412
16.4083,1496
16.4111,1559
16.4139,1614
16.4167,1638
16.4194,1682
16.4222,1719
16.4250,1756
16.4278,1777
16.4306,1789
16.4333,1797
16.4361,1810
16.4389,1837
16.4417,1860
16.4444,1884
16.4472,1897
16.4500,1909
16.4528,1932
16.4556,1961
16.4583,1998
16.4611,2047
16.4639,2077
16.4667,2119
16.4694,2159
16.4722,2186
16.4750,2225
16.4778,2264
16.4806,2319
16.4833,2354
16.4861,2369
16.4889,2391
16.4917,2395
16.4944,2403
16.4972,2429
16.5000,2462
16.5028,2511
16.5056,2539
16.5083,2557
16.5111,2567
16.5139,2562
16.5167,2535
16.5194,2519
16.5222,2506
16.5250,2484
16.5278,2480
16.5306,2461
16.5333,2437
16.5361,2392
16.5389,2362
16.5417,2342
16.5444,2309
16.5472,2280
16.5500,2240
16.5528,2198
16.5556,2149
16.5583,2121
16.5611,2098
16.5639,2083
16.5667,2052
16.5694,2033
16.5722,1996
16.5750,1960
16.5778,1950
16.5806,1935
16.5833,1928
16.5861,1904
16.5889,1875
16.5917,1847
16.5944,1798
16.5972,1779
16.6000,1783
16.6028,1807
16.6056,1809
16.6083,1807
16.6111,1785
16.6139,1748
16.6167,1728
16.6194,1708
16.6222,1702
16.6250,1691
16.6278,1687
16.6306,1680
16.6333,1669
16.6361,1666
16.6389,1665
16.6417,1658
16.6444,1637
16.6472,1624
16.6500,1624
16.6528,1629
16.6556,1652
16.6583,1686
16.6611,1723
16.6639,1750
16.6667,1778
16.6694,1805
16.6722,1814
16.6750,1797
16.6778,1761
16.6806,1748
16.6833,1747
16.6861,1775
16.6889,1826
16.6917,1882
16.6944,1923
16.6972,1949
16.7000,1977
16.7028,1999
16.7056,2016
16.7083,2032
16.7111,2035
16.7139,2021
16.7167,2008
16.7194,1954
16.7222,1873
16.7250,1779
16.7278,1682
16.7306,1599
16.7333,1530
16.7361,1487
16.7389,1448
16.7417,1415
16.7444,1389
16.7472,1370
16.7500,1347
16.7528,1350
16.7556,1359
16.7583,1370
16.7611,1377
16.7639,1382
16.7667,1372
16.7694,1364
16.7722,1364
16.7750,1369
16.7778,1381
16.7806,1392
16.7833,1399
16.7861,1398
16.7889,1397
16.7917,1383
16.7944,1351
16.7972,1304
16.8000,1240
16.8028,1168
16.8056,1106
16.8083,1098
16.8111,1147
16.8139,1299
16.8167,1561
16.8194,1954
16.8222,2243
16.8250,2308
16.8278,2224
16.8306,2103
16.8333,1991
16.8361,1821
16.8389,1496
16.8417,1152
16.8444,913
16.8472,760
16.8500,666
16.8528,583
16.8556,517
16.8583,464
16.8611,471
16.8639,508
16.8667,559
16.8694,639
16.8722,730
16.8750,839
16.8778,926
16.8806,1008
16.8833,1121
16.8861,1220
16.8889,1303
16.8917,1385
16.8944,1467
16.8972,1539
16.9000,1595
16.9028,1647
16.9056,1683
16.9083,1718
16.9111,1723
16.9139,1737
16.9167,1759
16.9194,1782
16.9222,1799
16.9250,1833
16.9278,1861
16.9306,1881
16.9333,1881
16.9361,1884
16.9389,1909
16.9417,1928
16.9444,1973
16.9472,2004
16.9500,2057
16.9528,2089
16.9556,2128
16.9583,2159
16.9611,2190
16.9639,2229
16.9667,2292
16.9694,2325
16.9722,2350
16.9750,2359
16.9778,2382
16.9806,2402
16.9833,2421
16.9861,2460
16.9889,2487
16.9917,2503
16.9944,2520
16.9972,2521
17.0000,2518
17.0028,2507
17.0056,2485
17.0083,2443
17.0111,2410
17.0139,1766
17.0167,1769
17.0194,1761
17.0222,1753
17.0250,1725
17.0278,1716
17.0306,1716
17.0333,1715
17.0361,1701
17.0389,1686
17.0417,1662
17.0444,1640
17.0472,1625
17.0500,1609
17.0528,1605
17.0556,1594
17.0583,1587
17.0611,1596
17.0639,1602
17.0667,1605
17.0694,1608
17.0722,1606
17.0750,1601
17.0778,1615
17.0806,1617
17.0833,1609
17.0861,1616
17.0889,1640
17.0917,1673
17.0944,1686
17.0972,1701
17.1000,1699
17.1028,1688
17.1056,1684
17.1083,1684
17.1111,1715
17.1139,1751
17.1167,1798
17.1194,1838
17.1222,1875
17.1250,1908
17.1278,1936
17.1306,1962
17.1333,1985
17.1361,1988
17.1389,1972
17.1417,1969
17.1444,1925
17.1472,1867
17.1500,1788
17.1528,1719
17.1556,1666
17.1583,1598
17.1611,1523
17.1639,1471
17.1667,1429
17.1694,1405
17.1722,1383
17.1750,1383
17.1778,1376
17.1806,1369
17.1833,1366
17.1861,1375
17.1889,1374
17.1917,1375
17.1944,1359
17.1972,1361
17.2000,1351
17.2028,1353
17.2056,1362
17.2083,1367
17.2111,1373
17.2139,1390
17.2167,1390
17.2194,1389
17.2222,1363
17.2250,1314
17.2278,1256
17.2306,1172
17.2333,1109
17.2361,1090
17.2389,1161
17.2417,1350
17.2444,1662
17.2472,1964
17.2500,2070
17.2528,2041
17.2556,1990
17.2583,1946
17.2611,1897
17.2639,1756
17.2667,1523
17.2694,1312
17.2722,1170
17.2750,1054
17.2778,955
17.2806,829
17.2833,704
17.2861,589
17.2889,521
17.2917,516
17.2944,561
17.2972,638
17.3000,722
17.3028,818
17.3056,898
17.3083,967
17.3111,1047
17.3139,1149
17.3167,1239
17.3194,1320
17.3222,1385
17.3250,1451
17.3278,1502
17.3306,1579
17.3333,1639
17.3361,1665
17.3389,1687
17.3417,1707
17.3444,1702
17.3472,1711
17.3500,1734
17.3528,1761
17.3556,1798
17.3583,1816
17.3611,1838
17.3639,1841
17.3667,1865
17.3694,1880
17.3722,1913
17.3750,1939
17.3778,1973
17.3806,1995
17.3833,2031
17.3861,2070
17.3889,2105
17.3917,2142
17.3944,2152
17.3972,2177
17.4000,2204
17.4028,2243
17.4056,2293
17.4083,2330
17.4111,2358
17.4139,2395
17.4167,2418
17.4194,2435
17.4222,2433
17.4250,2434
17.4278,2414
17.4306,2410
17.4333,2393
17.4361,2367
17.4389,2338
17.4417,2287
17.4444,2260
17.4472,2229
17.4500,2203
17.4528,2185
17.4556,2153
17.4583,2095
17.4611,2046
17.4639,1623
17.4667,1632
17.4694,1635
17.4722,1630
17.4750,1615
17.4778,1592
17.4806,1559
17.4833,1546
17.4861,1548
17.4889,1561
17.4917,1575
17.4944,1564
17.4972,1559
17.5000,1547
17.5028,1548
17.5056,1548
17.5083,1555
17.5111,1584
17.5139,1632
17.5167,1674
17.5194,1695
17.5222,1693
17.5250,1662
17.5278,1639
17.5306,1640
17.5333,1678
17.5361,1733
17.5389,1776
17.5417,1801
17.5444,1846
17.5472,1880
17.5500,1908
17.5528,1918
17.5556,1936
17.5583,1910
17.5611,1885
17.5639,1852
17.5667,1812
17.5694,1749
17.5722,1680
17.5750,1599
17.5778,1534
17.5806,1466
17.5833,1403
17.5861,1369
17.5889,1341
17.5917,1321
17.5944,1302
17.5972,1292
17.6000,1278
17.6028,1273
17.6056,1273
17.6083,1288
17.6111,1285
17.6139,1286
17.6167,1272
17.6194,1261
17.6222,1255
17.6250,1245
17.6278,1252
17.6306,1254
17.6333,1272
17.6361,1284
17.6389,1301
17.6417,1298
17.6444,1274
17.6472,1215
17.6500,1132
17.6528,1035
17.6556,967
17.6583,959
17.6611,1056
17.6639,1275
17.6667,1630
17.6694,1883
17.6722,1936
17.6750,1911
17.6778,1881
17.6806,1848
17.6833,1806
17.6861,1633
17.6889,1373
17.6917,1163
17.6944,986
17.6972,845
17.7000,735
17.7028,624
17.7056,512
17.7083,422
17.7111,393
17.7139,415
17.7167,486
17.7194,569
17.7222,659
17.7250,758
17.7278,851
17.7306,947
17.7333,1039
17.7361,1126
17.7389,1209
17.7417,1275
17.7444,1331
17.7472,1412
17.7500,1493
17.7528,1563
17.7556,1623
17.7583,1640
17.7611,1652
17.7639,1657
17.7667,1679
17.7694,1698
17.7722,1704
17.7750,1726
17.7778,1754
17.7806,1783
17.7833,1833
17.7861,1857
17.7889,1889
17.7917,1914
17.7944,1929
17.7972,1947
17.8000,1976
17.8028,2018
17.8056,2067
17.8083,2122
17.8111,2166
17.8139,2199
17.8167,2236
17.8194,2255
17.8222,2269
17.8250,2286
17.8278,2303
17.8306,2319
17.8333,2347
17.8361,2387
17.8389,2408
17.8417,2407
17.8444,2403
17.8472,2407
17.8500,2406
17.8528,2392
17.8556,2383
17.8583,2353
17.8611,2333
17.8639,2293
17.8667,2258
17.8694,2227
17.8722,2197
17.8750,2159
17.8778,2134
17.8806,2106
17.8833,2049
17.8861,2007
17.8889,1973
17.8917,1962
17.8944,1949
17.8972,1943
17.9000,1921
17.9028,1886
17.9056,1849
17.9083,1814
17.9111,1790
17.9139,1766
17.9167,1744
17.9194,1725
17.9222,1707
17.9250,1701
17.9278,1719
17.9306,1736
17.9333,1738
17.9361,1718
17.9389,1690
17.9417,1677
17.9444,1662
17.9472,1655
17.9500,1651
17.9528,1626
17.9556,1629
17.9583,1641
17.9611,1636
17.9639,1625
17.9667,1611
17.9694,1596
17.9722,1578
17.9750,1549
17.9778,1550
17.9806,1555
17.9833,1570
17.9861,1587
17.9889,1631
17.9917,1674
17.9944,1714
17.9972,1732
18.0000,1727
18.0028,1716
18.0056,1683
18.0083,1685
18.0111,1699
18.0139,1721
18.0167,1782
18.0194,1818
18.0222,1858
18.0250,1903
18.0278,1924
18.0306,1951
18.0333,1961
18.0361,1960
18.0389,1932
18.0417,1882
18.0444,1837
18.0472,1797
18.0500,1739
18.0528,1677
18.0556,1607
18.0583,1539
18.0611,1464
18.0639,1420
18.0667,1381
18.0694,1359
18.0722,1332
18.0750,1305
18.0778,1290
18.0806,1278
18.0833,1269
18.0861,1279
18.0889,1297
18.0917,1309
18.0944,1310
18.0972,1318
18.1000,1323
18.1028,1321
18.1056,1308
18.1083,1299
18.1111,1303
18.1139,1297
18.1167,1294
18.1194,1293
18.1222,1280
18.1250,1239
18.1278,1166
18.1306,1081
18.1333,996
18.1361,978
18.1389,1065
18.1417,1286
18.1444,1614
18.1472,2014
18.1500,2253
18.1528,2263
18.1556,2190
18.1583,2071
18.1611,1954
18.1639,1777
18.1667,1405
18.1694,1015
18.1722,697
18.1750,506
18.1778,404
18.1806,343
18.1833,295
18.1861,269
18.1889,298
18.1917,356
18.1944,450
18.1972,558
18.2000,676
18.2028,787
18.2056,895
18.2083,1011
18.2111,1145
18.2139,1253
18.2167,1356
18.2194,1433
18.2222,1473
18.2250,1498
18.2278,1532
18.2306,1580
18.2333,1631
18.2361,1681
18.2389,1710
18.2417,1708
18.2444,1715
18.2472,1732
18.2500,1740
18.2528,1757
18.2556,1786
18.2583,1830
18.2611,1866
18.2639,1902
18.2667,1934
18.2694,1976
18.2722,2027
18.2750,2064
18.2778,2106
18.2806,2124
18.2833,2144
18.2861,2169
18.2889,2208
18.2917,2256
18.2944,2290
18.2972,2306
18.3000,2320
18.3028,2338
18.3056,2366
18.3083,2400
18.3111,2405
18.3139,2431
18.3167,2430
18.3194,2443
18.3222,2436
18.3250,2423
18.3278,2420
18.3306,2431
18.3333,2426
18.3361,2420
18.3389,2382
18.3417,2331
18.3444,2276
18.3472,2241
18.3500,2223
18.3528,2204
18.3556,2177
18.3583,2149
18.3611,2106
18.3639,2065
18.3667,1734
18.3694,1740
18.3722,1724
18.3750,1705
18.3778,1678
18.3806,1648
18.3833,1636
18.3861,1636
18.3889,1640
18.3917,1651
18.3944,1647
18.3972,1633
18.4000,1607
18.4028,1593
18.4056,1611
18.4083,1638
18.4111,1708
18.4139,1771
18.4167,1805
18.4194,1811
18.4222,1796
18.4250,1760
18.4278,1738
18.4306,1751
18.4333,1775
18.4361,1811
18.4389,1863
18.4417,1912
18.4444,1952
18.4472,2002
18.4500,2018
18.4528,2026
18.4556,2031
18.4583,2038
18.4611,2024
18.4639,2000
18.4667,1954
18.4694,1890
18.4722,1810
18.4750,1730
18.4778,1675
18.4806,1607
18.4833,1540
18.4861,1501
18.4889,1464
18.4917,1419
18.4944,1384
18.4972,1377
18.5000,1391
18.5028,1412
18.5056,1423
18.5083,1417
18.5111,1416
18.5139,1412
18.5167,1410
18.5194,1401
18.5222,1403
18.5250,1411
18.5278,1437
18.5306,1452
18.5333,1445
18.5361,1445
18.5389,1425
18.5417,1407
18.5444,1383
18.5472,1326
18.5500,1252
18.5528,1185
18.5556,1150
18.5583,1186
18.5611,1320
18.5639,1523
18.5667,1863
18.5694,2206
18.5722,2357
18.5750,2334
18.5778,2264
18.5806,2143
18.5833,2025
18.5861,1818
18.5889,1444
18.5917,1052
18.5944,793
18.5972,655
18.6000,586
18.6028,540
18.6056,496
18.6083,488
18.6111,511
18.6139,556
18.6167,616
18.6194,705
18.6222,796
18.6250,909
18.6278,1014
18.6306,1146
18.6333,1262
18.6361,1357
18.6389,1439
18.6417,1501
18.6444,1568
18.6472,1625
18.6500,1681
18.6528,1745
18.6556,1791
18.6583,1820
18.6611,1834
18.6639,1831
18.6667,1839
18.6694,1852
18.6722,1888
18.6750,1926
18.6778,1971
18.6806,1981
18.6833,1993
18.6861,1988
18.6889,2009
18.6917,2039
18.6944,2097
18.6972,2143
18.7000,2182
18.7028,2193
18.7056,2215
18.7083,2247
18.7111,2290
18.7139,2343
18.7167,2373
18.7194,2389
18.7222,2401
18.7250,2416
18.7278,2430
18.7306,2455
18.7333,2482
18.7361,2489
18.7389,2502
18.7417,2517
18.7444,2521
18.7472,2527
18.7500,2524
18.7528,2512
18.7556,2498
18.7583,2471
18.7611,2426
18.7639,2394
18.7667,2362
18.7694,2342
18.7722,2330
18.7750,2309
18.7778,2273
18.7806,2227
18.7833,2188
18.7861,2151
18.7889,2122
18.7917,2106
18.7944,2087
18.7972,2065
18.8000,2032
18.8028,1986
18.8056,1963
18.8083,1945
18.8111,1928
18.8139,1915
18.8167,1908
18.8194,1896
18.8222,1875
18.8250,1856
18.8278,1856
18.8306,1872
18.8333,1876
18.8361,1870
18.8389,1859
18.8417,1837
18.8444,1815
18.8472,1800
18.8500,1787
18.8528,1780
18.8556,1772
18.8583,1756
18.8611,1744
18.8639,1727
18.8667,1728
18.8694,1739
18.8722,1733
18.8750,1737
18.8778,1716
18.8806,1696
18.8833,1686
18.8861,1701
18.8889,1724
18.8917,1748
18.8944,1778
18.8972,1813
18.9000,1841
18.9028,1837
18.9056,1819
18.9083,1799
18.9111,1772
18.9139,1779
18.9167,1831
18.9194,1893
18.9222,1939
18.9250,1984
18.9278,2025
18.9306,2046
18.9333,2060
18.9361,2065
18.9389,2065
18.9417,2066
18.9444,2055
18.9472,2013
18.9500,1962
18.9528,1893
18.9556,1818
18.9583,1734
18.9611,1664
18.9639,1614
18.9667,1553
18.9694,1493
18.9722,1460
18.9750,1439
18.9778,1426
18.9806,1431
18.9833,1441
18.9861,1435
18.9889,1440
18.9917,1440
18.9944,1427
18.9972,1431
19.0000,1437
19.0028,1443
19.0056,1445
19.0083,1446
19.0111,1454
19.0139,1455
19.0167,1455
19.0194,1460
19.0222,1474
19.0250,1457
19.0278,1422
19.0306,1372
19.0333,1295
19.0361,1217
19.0389,1181
19.0417,1191
19.0444,1294
19.0472,1508
19.0500,1842
19.0528,2066
19.0556,2107
19.0583,2104
19.0611,2068
19.0639,2049
19.0667,1988
19.0694,1790
19.0722,1539
19.0750,1328
19.0778,1183
19.0806,1057
19.0833,948
19.0861,831
19.0889,716
19.0917,622
19.0944,588
19.0972,612
19.1000,674
19.1028,763
19.1056,864
19.1083,953
19.1111,1036
19.1139,1114
19.1167,1196
19.1194,1288
19.1222,1381
19.1250,1475
19.1278,1564
19.1306,1648
19.1333,1711
19.1361,1753
19.1389,1766
19.1417,1760
19.1444,1771
19.1472,1800
19.1500,1846
19.1528,1876
19.1556,1912
19.1583,1923
19.1611,1939
19.1639,1934
19.1667,1936
19.1694,1950
19.1722,1995
19.1750,2059
19.1778,2109
19.1806,2149
19.1833,2160
19.1861,2173
19.1889,2178
19.1917,2209
19.1944,2261
19.1972,2304
19.2000,2340
19.2028,2368
19.2056,2386
19.2083,2402
19.2111,2430
19.2139,2453
19.2167,2468
19.2194,2483
19.2222,2504
19.2250,2510
19.2278,2512
19.2306,2523
19.2333,2500
19.2361,2486
19.2389,2455
19.2417,2412
19.2444,1842
19.2472,1831
19.2500,1823
19.2528,1808
19.2556,1792
19.2583,1791
19.2611,1790
19.2639,1800
19.2667,1809
19.2694,1801
19.2722,1780
19.2750,1769
19.2778,1753
19.2806,1742
19.2833,1729
19.2861,1713
19.2889,1701
19.2917,1697
19.2944,1688
19.2972,1701
19.3000,1713
19.3028,1715
19.3056,1729
19.3083,1745
19.3111,1770
19.3139,1796
19.3167,1823
19.3194,1816
19.3222,1795
19.3250,1778
19.3278,1779
19.3306,1807
19.3333,1845
19.3361,1892
19.3389,1934
19.3417,1974
19.3444,2001
19.3472,2018
19.3500,2025
19.3528,2020
19.3556,2019
19.3583,2011
19.3611,2005
19.3639,1979
19.3667,1932
19.3694,1856
19.3722,1770
19.3750,1689
19.3778,1635
19.3806,1579
19.3833,1546
19.3861,1523
19.3889,1484
19.3917,1463
19.3944,1449
19.3972,1431
19.4000,1423
19.4028,1420
19.4056,1424
19.4083,1428
19.4111,1438
19.4139,1427
19.4167,1436
19.4194,1435
19.4222,1441
19.4250,1425
19.4278,1427
19.4306,1412
19.4333,1416
19.4361,1424
19.4389,1444
19.4417,1446
19.4444,1423
19.4472,1369
19.4500,1265
19.4528,1165
19.4556,1111
19.4583,1143
19.4611,1283
19.4639,1552
19.4667,1880
19.4694,2069
19.4722,2108
19.4750,2090
19.4778,2071
19.4806,2057
19.4833,1974
19.4861,1737
19.4889,1438
19.4917,1193
19.4944,1034
19.4972,915
19.5000,823
19.5028,709
19.5056,588
19.5083,527
19.5111,546
19.5139,601
19.5167,680
19.5194,776
19.5222,871
19.5250,969
19.5278,1046
19.5306,1143
19.5333,1228
19.5361,1313
19.5389,1417
19.5417,1513
19.5444,1596
19.5472,1645
19.5500,1693
19.5528,1727
19.5556,1765
19.5583,1803
19.5611,1826
19.5639,1831
19.5667,1839
19.5694,1870
19.5722,1900
19.5750,1928
19.5778,1942
19.5806,1950
19.5833,1969
19.5861,1986
19.5889,2013
19.5917,2051
19.5944,2100
19.5972,2164
19.6000,2213
19.6028,2252
19.6056,2281
19.6083,2306
19.6111,2332
19.6139,2358
19.6167,2384
19.6194,2410
19.6222,2425
19.6250,2453
19.6278,2481
19.6306,2509
19.6333,2512
19.6361,2503
19.6389,2495
19.6417,2477
19.6444,2473
19.6472,2490
19.6500,2480
19.6528,2486
19.6556,2454
19.6583,2422
19.6611,2398
19.6639,2341
19.6667,2293
19.6694,2267
19.6722,2245
19.6750,2213
19.6778,2174
19.6806,2125
19.6833,2095
19.6861,1768
19.6889,1774
19.6917,1767
19.6944,1754
19.6972,1723
19.7000,1690
19.7028,1692
19.7056,1704
19.7083,1717
19.7111,1728
19.7139,1742
19.7167,1755
19.7194,1784
19.7222,1818
19.7250,1827
19.7278,1823
19.7306,1815
19.7333,1794
19.7361,1776
19.7389,1764
19.7417,1790
19.7444,1843
19.7472,1898
19.7500,1954
19.7528,2002
19.7556,2029
19.7583,2026
19.7611,2040
19.7639,2043
19.7667,2036
19.7694,2033
19.7722,2016
19.7750,1962
19.7778,1897
19.7806,1805
19.7833,1716
19.7861,1631
19.7889,1546
19.7917,1487
19.7944,1451
19.7972,1425
19.8000,1404
19.8028,1364
19.8056,1324
19.8083,1313
19.8111,1326
19.8139,1345
19.8167,1350
19.8194,1355
19.8222,1365
19.8250,1371
19.8278,1380
19.8306,1390
19.8333,1388
19.8361,1369
19.8389,1359
19.8417,1344
19.8444,1339
19.8472,1336
19.8500,1343
19.8528,1319
19.8556,1265
19.8583,1187
19.8611,1095
19.8639,1032
19.8667,1058
19.8694,1187
19.8722,1416
19.8750,1772
19.8778,2188
19.8806,2399
19.8833,2418
19.8861,2337
19.8889,2239
19.8917,2133
19.8944,1928
19.8972,1468
19.9000,953
19.9028,565
19.9056,358
19.9083,277
19.9111,271
19.9139,271
19.9167,310
19.9194,373
19.9222,441
19.9250,523
19.9278,638
19.9306,767
19.9333,897
19.9361,1017
19.9389,1134
19.9417,1246
19.9444,1352
19.9472,1440
19.9500,1502
19.9528,1545
19.9556,1577
19.9583,1610
19.9611,1655
19.9639,1696
19.9667,1706
19.9694,1720
19.9722,1732
19.9750,1738
19.9778,1749
19.9806,1770
19.9833,1806
19.9861,1852
19.9889,1877
19.9917,1900
19.9944,1926
19.9972,1957
20.0000,1980
20.0028,2030
20.0056,2078
20.0083,2110
20.0111,2126
20.0139,2147
20.0167,2187
20.0194,2223
20.0222,2269
20.0250,2319
20.0278,2347
20.0306,2370
20.0333,2369
20.0361,2385
20.0389,2398
20.0417,2395
20.0444,2391
20.0472,2398
20.0500,2399
20.0528,2406
20.0556,2396
20.0583,2380
20.0611,2367
20.0639,2352
20.0667,2317
20.0694,2298
20.0722,2268
20.0750,2228
20.0778,2196
20.0806,2177
20.0833,2165
20.0861,2136
20.0889,2090
20.0917,2050
20.0944,2006
20.0972,1980
20.1000,1974
20.1028,1960
20.1056,1950
20.1083,1921
20.1111,1896
20.1139,1865
20.1167,1859
20.1194,1855
20.1222,1850
20.1250,1839
20.1278,1811
20.1306,1792
20.1333,1771
20.1361,1762
20.1389,1772
20.1417,1790
20.1444,1793
20.1472,1796
20.1500,1772
20.1528,1737
20.1556,1707
20.1583,1690
20.1611,1691
20.1639,1696
20.1667,1710
20.1694,1707
20.1722,1693
20.1750,1660
20.1778,1632
20.1806,1635
20.1833,1652
20.1861,1681
20.1889,1697
20.1917,1699
20.1944,1717
20.1972,1740
20.2000,1767
20.2028,1809
20.2056,1839
20.2083,1833
20.2111,1811
20.2139,1779
20.2167,1780
20.2194,1802
20.2222,1851
20.2250,1901
20.2278,1943
20.2306,1982
20.2333,1991
20.2361,1996
20.2389,2006
20.2417,2007
20.2444,1989
20.2472,1975
20.2500,1947
20.2528,1886
20.2556,1819
20.2583,1722
20.2611,1643
20.2639,1568
20.2667,1491
20.2694,1428
20.2722,1375
20.2750,1327
20.2778,1304
20.2806,1299
20.2833,1310
20.2861,1316
20.2889,1323
20.2917,1322
20.2944,1324
20.2972,1326
20.3000,1317
20.3028,1319
20.3056,1326
20.3083,1335
20.3111,1326
20.3139,1306
20.3167,1298
20.3194,1318
20.3222,1333
20.3250,1344
20.3278,1312
20.3306,1259
20.3333,1187
20.3361,1091
20.3389,1026
20.3417,1001
20.3444,1094
20.3472,1295
20.3500,1619
20.3528,2033
20.3556,2257
20.3583,2283
20.3611,2211
20.3639,2104
20.3667,2012
20.3694,1863
20.3722,1523
20.3750,1098
20.3778,753
20.3806,544
20.3833,433
20.3861,378
20.3889,335
20.3917,319
20.3944,353
20.3972,411
20.4000,494
20.4028,585
20.4056,685
20.4083,770
20.4111,874
20.4139,1006
20.4167,1129
20.4194,1242
20.4222,1349
20.4250,1432
20.4278,1484
20.4306,1532
20.4333,1573
20.4361,1619
20.4389,1665
20.4417,1716
20.4444,1749
20.4472,1757
20.4500,1756
20.4528,1756
20.4556,1777
20.4583,1805
20.4611,1851
20.4639,1883
20.4667,1897
20.4694,1912
20.4722,1922
20.4750,1956
20.4778,1990
20.4806,2026
20.4833,2059
20.4861,2088
20.4889,2133
20.4917,2180
20.4944,2229
20.4972,2273
20.5000,2299
20.5028,2319
20.5056,2335
20.5083,2344
20.5111,2361
20.5139,2377
20.5167,2410
20.5194,2430
20.5222,2437
20.5250,2440
20.5278,2430
20.5306,2413
20.5333,2401
20.5361,2390
20.5389,2376
20.5417,2370
20.5444,2344
20.5472,2319
20.5500,2287
20.5528,2252
20.5556,2239
20.5583,2209
20.5611,2186
20.5639,2143
20.5667,2101
20.5694,2055
20.5722,1686
20.5750,1691
20.5778,1692
20.5806,1689
20.5833,1663
20.5861,1655
20.5889,1642
20.5917,1655
20.5944,1665
20.5972,1693
20.6000,1697
20.6028,1695
20.6056,1692
20.6083,1714
20.6111,1731
20.6139,1752
20.6167,1763
20.6194,1780
20.6222,1767
20.6250,1757
20.6278,1760
20.6306,1789
20.6333,1840
20.6361,1895
20.6389,1952
20.6417,1994
20.6444,2010
20.6472,2012
20.6500,2003
20.6528,2000
20.6556,2001
20.6583,1996
20.6611,1973
20.6639,1929
20.6667,1855
20.6694,1755
20.6722,1659
20.6750,1586
20.6778,1518
20.6806,1464
20.6833,1410
20.6861,1372
20.6889,1336
20.6917,1330
20.6944,1324
20.6972,1330
20.7000,1329
20.7028,1333
20.7056,1334
20.7083,1328
20.7111,1335
20.7139,1332
20.7167,1323
20.7194,1309
20.7222,1311
20.7250,1316
20.7278,1317
20.7306,1338
20.7333,1347
20.7361,1336
20.7389,1301
20.7417,1240
20.7444,1167
20.7472,1079
20.7500,1005
20.7528,971
20.7556,1059
20.7583,1232
20.7611,1519
20.7639,1926
20.7667,2197
20.7694,2240
20.7722,2179
20.7750,2077
20.7778,1975
20.7806,1819
20.7833,1486
20.7861,1085
20.7889,757
20.7917,547
20.7944,450
20.7972,418
20.8000,391
20.8028,368
20.8056,375
20.8083,418
20.8111,499
20.8139,600
20.8167,707
20.8194,812
20.8222,917
20.8250,1041
20.8278,1169
20.8306,1274
20.8333,1385
20.8361,1467
20.8389,1524
20.8417,1574
20.8444,1634
20.8472,1676
20.8500,1708
20.8528,1727
20.8556,1722
20.8583,1729
20.8611,1740
20.8639,1751
20.8667,1784
20.8694,1815
20.8722,1858
20.8750,1878
20.8778,1897
20.8806,1911
20.8833,1926
20.8861,1960
20.8889,1990
20.8917,2052
20.8944,2077
20.8972,2112
20.9000,2138
20.9028,2172
20.9056,2217
20.9083,2243
20.9111,2265
20.9139,2289
20.9167,2305
20.9194,2304
20.9222,2314
20.9250,2339
20.9278,2385
20.9306,2430
20.9333,2473
20.9361,2491
20.9389,2488
20.9417,2465
20.9444,2445
20.9472,2414
20.9500,2394
20.9528,2381
20.9556,2369
20.9583,2354
20.9611,2328
20.9639,2304
20.9667,2273
20.9694,2238
20.9722,2207
20.9750,2161
20.9778,2134
20.9806,2108
20.9833,2086
20.9861,2046
20.9889,2022
20.9917,1999
20.9944,1985
20.9972,1968
21.0000,1923
21.0028,1897
21.0056,1870
21.0083,1855
21.0111,1842
21.0139,1835
21.0167,1817
21.0194,1806
21.0222,1799
21.0250,1789
21.0278,1787
21.0306,1780
21.0333,1764
21.0361,1750
21.0389,1724
21.0417,1692
21.0444,1681
21.0472,1691
21.0500,1689
21.0528,1683
21.0556,1664
21.0583,1647
21.0611,1637
21.0639,1635
21.0667,1644
21.0694,1655
21.0722,1667
21.0750,1678
21.0778,1687
21.0806,1695
21.0833,1716
21.0861,1740
21.0889,1745
21.0917,1757
21.0944,1752
21.0972,1753
21.1000,1762
21.1028,1787
21.1056,1826
21.1083,1865
21.1111,1896
21.1139,1935
21.1167,1957
21.1194,1961
21.1222,1975
21.1250,1989
21.1278,1991
21.1306,1961
21.1333,1923
21.1361,1871
21.1389,1805
21.1417,1742
21.1444,1658
21.1472,1577
21.1500,1524
21.1528,1474
21.1556,1426
21.1583,1412
21.1611,1391
21.1639,1392
21.1667,1371
21.1694,1361
21.1722,1364
21.1750,1379
21.1778,1380
21.1806,1375
21.1833,1372
21.1861,1371
21.1889,1393
21.1917,1395
21.1944,1403
21.1972,1395
21.2000,1395
21.2028,1394
21.2056,1392
21.2083,1398
21.2111,1381
21.2139,1344
21.2167,1255
21.2194,1156
21.2222,1071
21.2250,1068
21.2278,1144
21.2306,1345
21.2333,1683
21.2361,1969
21.2389,2063
21.2417,2050
21.2444,1991
21.2472,1951
21.2500,1914
21.2528,1776
21.2556,1559
21.2583,1372
21.2611,1258
21.2639,1140
21.2667,1021
21.2694,910
21.2722,794
21.2750,681
21.2778,586
21.2806,558
21.2833,569
21.2861,652
21.2889,746
21.2917,836
21.2944,933
21.2972,1016
21.3000,1107
21.3028,1202
21.3056,1285
21.3083,1365
21.3111,1433
21.3139,1498
21.3167,1564
21.3194,1613
21.3222,1645
21.3250,1677
21.3278,1705
21.3306,1727
21.3333,1736
21.3361,1737
21.3389,1755
21.3417,1787
21.3444,1824
21.3472,1843
21.3500,1870
21.3528,1905
21.3556,1933
21.3583,1958
21.3611,1987
21.3639,2008
21.3667,2023
21.3694,2039
21.3722,2061
21.3750,2096
21.3778,2138
21.3806,2188
21.3833,2219
21.3861,2238
21.3889,2262
21.3917,2298
21.3944,2328
21.3972,2354
21.4000,2377
21.4028,2387
21.4056,2399
21.4083,2395
21.4111,2410
21.4139,2404
21.4167,2402
21.4194,2405
21.4222,2402
21.4250,2381
21.4278,2347
21.4306,1738
21.4333,1747
21.4361,1749
21.4389,1747
21.4417,1755
21.4444,1753
21.4472,1744
21.4500,1744
21.4528,1739
21.4556,1734
21.4583,1714
21.4611,1702
21.4639,1694
21.4667,1684
21.4694,1689
21.4722,1711
21.4750,1719
21.4778,1728
21.4806,1738
21.4833,1748
21.4861,1753
21.4889,1766
21.4917,1796
21.4944,1818
21.4972,1825
21.5000,1816
21.5028,1816
21.5056,1827
21.5083,1840
21.5111,1878
21.5139,1922
21.5167,1964
21.5194,2013
21.5222,2034
21.5250,2044
21.5278,2053
21.5306,2041
21.5333,2030
21.5361,2003
21.5389,1953
21.5417,1896
21.5444,1858
21.5472,1790
21.5500,1726
21.5528,1644
21.5556,1576
21.5583,1503
21.5611,1454
21.5639,1422
21.5667,1411
21.5694,1411
21.5722,1416
21.5750,1409
21.5778,1400
21.5806,1397
21.5833,1411
21.5861,1423
21.5889,1427
21.5917,1416
21.5944,1396
21.5972,1384
21.6000,1383
21.6028,1385
21.6056,1388
21.6083,1381
21.6111,1376
21.6139,1386
21.6167,1377
21.6194,1344
21.6222,1284
21.6250,1195
21.6278,1109
21.6306,1052
21.6333,1064
21.6361,1179
21.6389,1419
21.6417,1794
21.6444,2103
21.6472,2193
21.6500,2173
21.6528,2094
21.6556,2029
21.6583,1948
21.6611,1742
21.6639,1387
21.6667,1059
21.6694,839
21.6722,698
21.6750,628
21.6778,573
21.6806,505
21.6833,465
21.6861,459
21.6889,503
21.6917,573
21.6944,662
21.6972,761
21.7000,875
21.7028,985
21.7056,1086
21.7083,1199
21.7111,1307
21.7139,1404
21.7167,1482
21.7194,1536
21.7222,1592
21.7250,1640
21.7278,1676
21.7306,1720
21.7333,1735
21.7361,1712
21.7389,1701
21.7417,1730
21.7444,1785
21.7472,1850
21.7500,1917
21.7528,1957
21.7556,1959
21.7583,1954
21.7611,1943
21.7639,1970
21.7667,2007
21.7694,2044
21.7722,2082
21.7750,2119
21.7778,2156
21.7806,2185
21.7833,2224
21.7861,2270
21.7889,2318
21.7917,2357
21.7944,2374
21.7972,2369
21.8000,2371
21.8028,2394
21.8056,2421
21.8083,2448
21.8111,2483
21.8139,2489
21.8167,2475
21.8194,2459
21.8222,2446
21.8250,2426
21.8278,2396
21.8306,2369
21.8333,2349
21.8361,2330
21.8389,2303
21.8417,2261
21.8444,2212
21.8472,2183
21.8500,2146
21.8528,2111
21.8556,2078
21.8583,2069
21.8611,2060
21.8639,2050
21.8667,2032
21.8694,2010
21.8722,1979
21.8750,1934
21.8778,1897
21.8806,1862
21.8833,1842
21.8861,1845
21.8889,1852
21.8917,1852
21.8944,1824
21.8972,1792
21.9000,1759
21.9028,1751
21.9056,1764
21.9083,1767
21.9111,1786
21.9139,1781
21.9167,1757
21.9194,1733
21.9222,1720
21.9250,1700
21.9278,1698
21.9306,1700
21.9333,1713
21.9361,1726
21.9389,1717
21.9417,1693
21.9444,1689
21.9472,1696
21.9500,1728
21.9528,1759
21.9556,1782
21.9583,1780
21.9611,1755
21.9639,1739
21.9667,1717
21.9694,1725
21.9722,1777
21.9750,1837
21.9778,1897
21.9806,1940
21.9833,1973
21.9861,1988
21.9889,1981
21.9917,1980
21.9944,1980
21.9972,1975
22.0000,1946
22.0028,1920
22.0056,1872
22.0083,1820
22.0111,1748
22.0139,1659
22.0167,1553
22.0194,1464
22.0222,1406
22.0250,1364
22.0278,1352
22.0306,1327
22.0333,1301
22.0361,1293
22.0389,1296
22.0417,1293
22.0444,1306
22.0472,1299
22.0500,1307
22.0528,1307
22.0556,1318
22.0583,1311
22.0611,1301
22.0639,1271
22.0667,1275
22.0694,1277
22.0722,1284
22.0750,1279
22.0778,1283
22.0806,1258
22.0833,1206
22.0861,1128
22.0889,1041
22.0917,952
22.0944,902
22.0972,918
22.1000,1059
22.1028,1335
22.1056,1741
22.1083,2126
22.1111,2266
22.1139,2247
22.1167,2135
22.1194,2018
22.1222,1908
22.1250,1655
22.1278,1220
22.1306,786
22.1333,466
22.1361,315
22.1389,250
22.1417,219
22.1444,211
22.1472,246
22.1500,307
22.1528,383
22.1556,479
22.1583,580
22.1611,684
22.1639,785
22.1667,913
22.1694,1045
22.1722,1187
22.1750,1311
22.1778,1386
22.1806,1444
22.1833,1487
22.1861,1515
22.1889,1562
22.1917,1610
22.1944,1649
22.1972,1669
22.2000,1669
22.2028,1683
22.2056,1692
22.2083,1716
22.2111,1740
22.2139,1790
22.2167,1835
22.2194,1848
22.2222,1849
22.2250,1847
22.2278,1849
22.2306,1881
22.2333,1943
22.2361,2012
22.2389,2075
22.2417,2117
22.2444,2148
22.2472,2174
22.2500,2207
22.2528,2247
22.2556,2257
22.2583,2265
22.2611,2275
22.2639,2283
22.2667,2308
22.2694,2326
22.2722,2358
22.2750,2368
22.2778,2370
22.2806,2330
22.2833,2299
22.2861,2293
22.2889,2301
22.2917,2314
22.2944,2344
22.2972,2337
22.3000,2319
22.3028,2289
22.3056,2247
22.3083,2205
22.3111,2177
22.3139,2144
22.3167,2105
22.3194,2069
22.3222,2041
22.3250,1690
22.3278,1701
22.3306,1723
22.3333,1715
22.3361,1699
22.3389,1672
22.3417,1647
22.3444,1641
22.3472,1651
22.3500,1668
22.3528,1684
22.3556,1700
22.3583,1729
22.3611,1747
22.3639,1775
22.3667,1817
22.3694,1806
22.3722,1784
22.3750,1768
22.3778,1762
22.3806,1784
22.3833,1821
22.3861,1870
22.3889,1913
22.3917,1957
22.3944,1971
22.3972,1958
22.4000,1955
22.4028,1960
22.4056,1973
22.4083,1993
22.4111,1984
22.4139,1952
22.4167,1881
22.4194,1806
22.4222,1701
22.4250,1616
22.4278,1537
22.4306,1488
22.4333,1453
22.4361,1423
22.4389,1378
22.4417,1337
22.4444,1337
22.4472,1346
22.4500,1351
22.4528,1376
22.4556,1377
22.4583,1384
22.4611,1384
22.4639,1367
22.4667,1369
22.4694,1368
22.4722,1383
22.4750,1383
22.4778,1387
22.4806,1390
22.4833,1385
22.4861,1390
22.4889,1385
22.4917,1362
22.4944,1296
22.4972,1204
22.5000,1100
22.5028,1037
22.5056,1051
22.5083,1184
22.5111,1410
22.5139,1758
22.5167,2121
22.5194,2260
22.5222,2257
22.5250,2183
22.5278,2086
22.5306,2001
22.5333,1820
22.5361,1481
22.5389,1116
22.5417,867
22.5444,720
22.5472,636
22.5500,595
22.5528,535
22.5556,512
22.5583,528
22.5611,570
22.5639,622
22.5667,692
22.5694,783
22.5722,887
22.5750,985
22.5778,1090
22.5806,1197
22.5833,1310
22.5861,1398
22.5889,1467
22.5917,1506
22.5944,1535
22.5972,1581
22.6000,1647
22.6028,1694
22.6056,1728
22.6083,1745
22.6111,1753
22.6139,1748
22.6167,1762
22.6194,1802
22.6222,1840
22.6250,1889
22.6278,1924
22.6306,1928
22.6333,1933
22.6361,1945
22.6389,1967
22.6417,2007
22.6444,2057
22.6472,2092
22.6500,2123
22.6528,2145
22.6556,2170
22.6583,2206
22.6611,2263
22.6639,2282
22.6667,2286
22.6694,2298
22.6722,2319
22.6750,2329
22.6778,2350
22.6806,2381
22.6833,2417
22.6861,2439
22.6889,2467
22.6917,2468
22.6944,2456
22.6972,2439
22.7000,2435
22.7028,2446
22.7056,2442
22.7083,2430
22.7111,2399
22.7139,2357
22.7167,2316
22.7194,2298
22.7222,2265
22.7250,2234
22.7278,2205
22.7306,2171
22.7333,2133
22.7361,2107
22.7389,2090
22.7417,2071
22.7444,2047
22.7472,2029
22.7500,2009
22.7528,1990
22.7556,1959
22.7583,1937
22.7611,1924
22.7639,1905
22.7667,1892
22.7694,1872
22.7722,1856
22.7750,1858
22.7778,1857
22.7806,1864
22.7833,1860
22.7861,1834
22.7889,1802
22.7917,1755
22.7944,1741
22.7972,1722
22.8000,1731
22.8028,1721
22.8056,1724
22.8083,1731
22.8111,1728
22.8139,1731
22.8167,1734
22.8194,1733
22.8222,1737
22.8250,1744
22.8278,1742
22.8306,1755
22.8333,1781
22.8361,1830
22.8389,1850
22.8417,1828
22.8444,1801
22.8472,1772
22.8500,1769
22.8528,1799
22.8556,1840
22.8583,1902
22.8611,1941
22.8639,1976
22.8667,2001
22.8694,2015
22.8722,2027
22.8750,2034
22.8778,2035
22.8806,2027
22.8833,2004
22.8861,1965
22.8889,1907
22.8917,1849
22.8944,1775
22.8972,1691
22.9000,1615
22.9028,1551
22.9056,1516
22.9083,1487
22.9111,1476
22.9139,1453
22.9167,1440
22.9194,1432
22.9222,1433
22.9250,1436
22.9278,1440
22.9306,1439
22.9333,1449
22.9361,1435
22.9389,1437
22.9417,1436
22.9444,1428
22.9472,1415
22.9500,1407
22.9528,1400
22.9556,1409
22.9583,1432
22.9611,1435
22.9639,1420
22.9667,1376
22.9694,1297
22.9722,1184
22.9750,1105
22.9778,1087
22.9806,1166
22.9833,1327
22.9861,1628
22.9889,1937
22.9917,2065
22.9944,2046
22.9972,2009
23.0000,1983
23.0028,1973
23.0056,1894
23.0083,1682
23.0111,1442
23.0139,1258
23.0167,1116
23.0194,994
23.0222,887
23.0250,769
23.0278,669
23.0306,604
23.0333,583
23.0361,607
23.0389,644
23.0417,732
23.0444,821
23.0472,920
23.0500,1005
23.0528,1111
23.0556,1203
23.0583,1298
23.0611,1368
23.0639,1447
23.0667,1518
23.0694,1578
23.0722,1644
23.0750,1694
23.0778,1724
23.0806,1749
23.0833,1766
23.0861,1771
23.0889,1798
23.0917,1808
23.0944,1823
23.0972,1834
23.1000,1866
23.1028,1896
23.1056,1917
23.1083,1941
23.1111,1975
23.1139,2008
23.1167,2029
23.1194,2068
23.1222,2100
23.1250,2131
23.1278,2151
23.1306,2158
23.1333,2185
23.1361,2217
23.1389,2261
23.1417,2297
23.1444,2335
23.1472,2370
23.1500,2409
23.1528,2459
23.1556,2474
23.1583,2479
23.1611,2472
23.1639,2464
23.1667,2465
23.1694,2456
23.1722,2455
23.1750,2441
23.1778,2427
23.1806,2405
23.1833,1827
23.1861,1829
23.1889,1834
23.1917,1830
23.1944,1822
23.1972,1829
23.2000,1833
23.2028,1823
23.2056,1799
23.2083,1773
23.2111,1760
23.2139,1733
23.2167,1723
23.2194,1728
23.2222,1737
23.2250,1738
23.2278,1744
23.2306,1766
23.2333,1788
23.2361,1800
23.2389,1806
23.2417,1824
23.2444,1836
23.2472,1854
23.2500,1859
23.2528,1843
23.2556,1816
23.2583,1814
23.2611,1822
23.2639,1851
23.2667,1888
23.2694,1925
23.2722,1963
23.2750,1985
23.2778,2017
23.2806,2043
23.2833,2062
23.2861,2070
23.2889,2053
23.2917,2032
23.2944,2011
23.2972,1977
23.3000,1928
23.3028,1865
23.3056,1782
23.3083,1697
23.3111,1632
23.3139,1569
23.3167,1511
23.3194,1479
23.3222,1434
23.3250,1411
23.3278,1392
23.3306,1386
23.3333,1398
23.3361,1409
23.3389,1397
23.3417,1394
23.3444,1376
23.3472,1385
23.3500,1391
23.3528,1410
23.3556,1412
23.3583,1414
23.3611,1403
23.3639,1391
23.3667,1380
23.3694,1386
23.3722,1381
23.3750,1367
23.3778,1321
23.3806,1260
23.3833,1175
23.3861,1098
23.3889,1054
23.3917,1102
23.3944,1256
23.3972,1542
23.4000,1932
23.4028,2192
23.4056,2230
23.4083,2182
23.4111,2101
23.4139,2030
23.4167,1931
23.4194,1651
23.4222,1272
23.4250,941
23.4278,728
23.4306,604
23.4333,543
23.4361,494
23.4389,459
23.4417,445
23.4444,468
23.4472,535
23.4500,606
23.4528,703
23.4556,815
23.4583,916
23.4611,1031
23.4639,1144
23.4667,1257
23.4694,1358
23.4722,1435
23.4750,1492
23.4778,1547
23.4806,1592
23.4833,1650
23.4861,1683
23.4889,1698
23.4917,1716
23.4944,1734
23.4972,1757
23.5000,1789
23.5028,1835
23.5056,1867
23.5083,1892
23.5111,1913
23.5139,1921
23.5167,1932
23.5194,1939
23.5222,1980
23.5250,1993
23.5278,2023
23.5306,2061
23.5333,2109
23.5361,2152
23.5389,2194
23.5417,2249
23.5444,2279
23.5472,2303
23.5500,2332
23.5528,2338
23.5556,2360
23.5583,2373
23.5611,2403
23.5639,2431
23.5667,2459
23.5694,2471
23.5722,2451
23.5750,2437
23.5778,2406
23.5806,2396
23.5833,2396
23.5861,2413
23.5889,2421
23.5917,2419
23.5944,2407
23.5972,2366
23.6000,2328
23.6028,2289
23.6056,2266
23.6083,2223
23.6111,2175
23.6139,2129
23.6167,2099
23.6194,2082
23.6222,2071
23.6250,1737
23.6278,1748
23.6306,1728
23.6333,1687
23.6361,1655
23.6389,1662
23.6417,1650
23.6444,1665
23.6472,1677
23.6500,1703
23.6528,1720
23.6556,1741
23.6583,1773
23.6611,1815
23.6639,1838
23.6667,1833
23.6694,1805
23.6722,1775
23.6750,1746
23.6778,1748
23.6806,1796
23.6833,1860
23.6861,1936
23.6889,1987
23.6917,2010
23.6944,1995
23.6972,1983
23.7000,1988
23.7028,1995
23.7056,2001
23.7083,1982
23.7111,1958
23.7139,1897
23.7167,1822
23.7194,1719
23.7222,1651
23.7250,1592
23.7278,1518
23.7306,1449
23.7333,1391
23.7361,1349
23.7389,1329
23.7417,1332
23.7444,1348
23.7472,1371
23.7500,1383
23.7528,1377
23.7556,1363
23.7583,1352
23.7611,1347
23.7639,1340
23.7667,1352
23.7694,1349
23.7722,1355
23.7750,1338
23.7778,1334
23.7806,1326
23.7833,1341
23.7861,1340
23.7889,1326
23.7917,1259
23.7944,1175
23.7972,1086
23.8000,1007
23.8028,1013
23.8056,1099
23.8083,1295
23.8111,1597
23.8139,2018
23.8167,2303
23.8194,2353
23.8222,2295
23.8250,2177
23.8278,2039
23.8306,1862
23.8333,1494
23.8361,1032
23.8389,666
23.8417,465
23.8444,396
23.8472,370
23.8500,346
23.8528,324
23.8556,345
23.8583,397
23.8611,470
23.8639,565
23.8667,672
23.8694,785
23.8722,880
23.8750,1010
23.8778,1138
23.8806,1263
23.8833,1384
23.8861,1471
23.8889,1520
23.8917,1558
23.8944,1594
23.8972,1629
23.9000,1667
23.9028,1702
23.9056,1709
23.9083,1715
23.9111,1725
23.9139,1733
23.9167,1765
23.9194,1810
23.9222,1852
23.9250,1885
23.9278,1893
23.9306,1896
23.9333,1908
23.9361,1927
23.9389,1953
23.9417,1995
23.9444,2032
23.9472,2074
23.9500,2112
23.9528,2151
23.9556,2189
23.9583,2232
23.9611,2268
23.9639,2300
23.9667,2310
23.9694,2316
23.9722,2332
23.9750,2353
23.9778,2381
23.9806,2409
23.9833,2428
23.9861,2423
23.9889,2420
23.9917,2404
23.9944,2394
23.9972,2392
24.0000,2387
24.0028,2377
24.0056,2364
24.0083,2347
24.0111,2321
24.0139,2307
24.0167,2274
24.0194,2241
24.0222,2196
24.0250,2158
24.0278,2112
24.0306,2085
24.0333,2042
24.0361,2014
24.0389,2003
24.0417,2003
24.0444,1982
24.0472,1965
24.0500,1934
24.0528,1899
24.0556,1871
24.0583,1857
24.0611,1851
24.0639,1832
24.0667,1815
24.0694,1789
24.0722,1779
24.0750,1634
24.0778,1636
24.0806,1689
24.0833,1746
24.0861,1782
24.0889,1795
24.0917,1787
24.0944,1763
24.0972,1745
24.1000,1739
24.1028,1760
24.1056,1788
24.1083,1837
24.1111,1900
24.1139,1939
24.1167,1974
24.1194,1997
24.1222,2013
24.1250,2020
24.1278,2016
24.1306,1996
24.1333,1969
24.1361,1901
24.1389,1829
24.1417,1727
24.1444,1638
24.1472,1556
24.1500,1471
24.1528,1408
24.1556,1379
24.1583,1355
24.1611,1332
24.1639,1330
24.1667,1338
24.1694,1342
24.1722,1356
24.1750,1339
24.1778,1341
24.1806,1329
24.1833,1325
24.1861,1322
24.1889,1312
24.1917,1305
24.1944,1318
24.1972,1327
24.2000,1343
24.2028,1356
24.2056,1334
24.2083,1329
24.2111,1309
24.2139,1283
24.2167,1229
24.2194,1157
24.2222,1077
24.2250,1050
24.2278,1113
24.2306,1256
24.2333,1493
24.2361,1836
24.2389,2147
24.2417,2232
24.2444,2193
24.2472,2098
24.2500,2014
24.2528,1947
24.2556,1754
24.2583,1417
24.2611,1081
24.2639,849
24.2667,701
24.2694,612
24.2722,549
24.2750,492
24.2778,457
24.2806,467
24.2833,521
24.2861,591
24.2889,672
24.2917,755
24.2944,844
24.2972,945
24.3000,1062
24.3028,1178
24.3056,1282
24.3083,1366
24.3111,1445
24.3139,1514
24.3167,1571
24.3194,1619
24.3222,1663
24.3250,1706
24.3278,1733
24.3306,1744
24.3333,1760
24.3361,1769
24.3389,1777
24.3417,1805
24.3444,1836
24.3472,1855
24.3500,1877
24.3528,1893
24.3556,1916
24.3583,1936
24.3611,1968
24.3639,2010
24.3667,2050
24.3694,2080
24.3722,2103
24.3750,2136
24.3778,2180
24.3806,2220
24.3833,2258
24.3861,2306
24.3889,2322
24.3917,2323
24.3944,2324
24.3972,2334
24.4000,2367
24.4028,2405
24.4056,2438
24.4083,2454
24.4111,2471
24.4139,2478
24.4167,2482
24.4194,2483
24.4222,2470
24.4250,2473
24.4278,2434
24.4306,2399
24.4333,2358
24.4361,2333
24.4389,2307
24.4417,2281
24.4444,2250
24.4472,2225
24.4500,2186
24.4528,2154
24.4556,2110
24.4583,2082
24.4611,2070
24.4639,2062
24.4667,2045
24.4694,2006
24.4722,1980
24.4750,1942
24.4778,1918
24.4806,1900
24.4833,1887
24.4861,1878
24.4889,1850
24.4917,1828
24.4944,1820
24.4972,1806
24.5000,1807
24.5028,1800
24.5056,1794
24.5083,1799
24.5111,1778
24.5139,1758
24.5167,1733
24.5194,1719
24.5222,1702
24.5250,1706
24.5278,1710
24.5306,1707
24.5333,1683
24.5361,1663
24.5389,1641
24.5417,1643
24.5444,1648
24.5472,1647
24.5500,1637
24.5528,1643
24.5556,1637
24.5583,1621
24.5611,1626
24.5639,1654
24.5667,1696
24.5694,1724
24.5722,1746
24.5750,1739
24.5778,1736
24.5806,1728
24.5833,1734
24.5861,1730
24.5889,1748
24.5917,1769
24.5944,1816
24.5972,1881
24.6000,1929
24.6028,1977
24.6056,2014
24.6083,2024
24.6111,2024
24.6139,2014
24.6167,1988
24.6194,1944
24.6222,1898
24.6250,1843
24.6278,1765
24.6306,1693
24.6333,1635
24.6361,1588
24.6389,1540
24.6417,1511
24.6444,1466
24.6472,1433
24.6500,1394
24.6528,1380
24.6556,1390
24.6583,1394
24.6611,1399
24.6639,1405
24.6667,1401
24.6694,1404
24.6722,1400
24.6750,1399
24.6778,1388
24.6806,1388
24.6833,1397
24.6861,1400
24.6889,1398
24.6917,1404
24.6944,1416
24.6972,1423
24.7000,1414
24.7028,1379
24.7056,1320
24.7083,1230
24.7111,1141
24.7139,1107
24.7167,1138
24.7194,1262
24.7222,1504
24.7250,1839
24.7278,2049
24.7306,2075
24.7333,2043
24.7361,2015
24.7389,1992
24.7417,1930
24.7444,1720
24.7472,1462
24.7500,1265
24.7528,1124
24.7556,1005
24.7583,910
24.7611,798
24.7639,700
24.7667,621
24.7694,580
24.7722,588
24.7750,629
24.7778,711
24.7806,810
24.7833,923
24.7861,1014
24.7889,1106
24.7917,1189
24.7944,1277
24.7972,1341
24.8000,1397
24.8028,1470
24.8056,1547
24.8083,1614
24.8111,1677
24.8139,1713
24.8167,1723
24.8194,1728
24.8222,1733
24.8250,1754
24.8278,1783
24.8306,1821
24.8333,1851
24.8361,1862
24.8389,1884
24.8417,1915
24.8444,1933
24.8472,1971
24.8500,2006
24.8528,2031
24.8556,2060
24.8583,2086
24.8611,2112
24.8639,2130
24.8667,2171
24.8694,2199
24.8722,2232
24.8750,2258
24.8778,2297
24.8806,2305
24.8833,2332
24.8861,2370
24.8889,2410
24.8917,2447
24.8944,2474
24.8972,2480
24.9000,2500
24.9028,2492
24.9056,2490
24.9083,2482
24.9111,2479
24.9139,2457
24.9167,2445
24.9194,1854
24.9222,1851
24.9250,1839
24.9278,1806
24.9306,1776
24.9333,1752
24.9361,1743
24.9389,1756
24.9417,1769
24.9444,1768
24.9472,1737
24.9500,1715
24.9528,1699
24.9556,1697
24.9583,1698
24.9611,1710
24.9639,1709
24.9667,1698
24.9694,1675
24.9722,1665
24.9750,1657
24.9778,1653
24.9806,1647
24.9833,1646
24.9861,1650
24.9889,1646
24.9917,1664
24.9944,1685
24.9972,1722
25.0000,1746
25.0028,1765
25.0056,1751
25.0083,1744
25.0111,1743
25.0139,1775
25.0167,1804
25.0194,1847
25.0222,1882
25.0250,1920
25.0278,1957
25.0306,1987
25.0333,1997
25.0361,2008
25.0389,2013
25.0417,2005
25.0444,1971
25.0472,1943
25.0500,1894
25.0528,1846
25.0556,1771
25.0583,1699
25.0611,1621
25.0639,1548
25.0667,1488
25.0694,1454
25.0722,1415
25.0750,1383
25.0778,1381
25.0806,1394
25.0833,1392
25.0861,1386
25.0889,1377
25.0917,1372
25.0944,1370
25.0972,1378
25.1000,1414
25.1028,1430
25.1056,1441
25.1083,1439
25.1111,1414
25.1139,1392
25.1167,1379
25.1194,1379
25.1222,1396
25.1250,1418
25.1278,1412
25.1306,1375
25.1333,1315
25.1361,1216
25.1389,1156
25.1417,1143
25.1444,1209
25.1472,1373
25.1500,1699
25.1528,2010
25.1556,2128
25.1583,2103
25.1611,2055
25.1639,2026
25.1667,2000
25.1694,1881
25.1722,1641
25.1750,1393
25.1778,1216
25.1806,1091
25.1833,971
25.1861,861
25.1889,746
25.1917,633
25.1944,564
25.1972,550
25.2000,592
25.2028,657
25.2056,740
25.2083,832
25.2111,944
25.2139,1048
25.2167,1147
25.2194,1257
25.2222,1339
25.2250,1406
25.2278,1475
25.2306,1558
25.2333,1622
25.2361,1694
25.2389,1752
25.2417,1790
25.2444,1809
25.2472,1810
25.2500,1823
25.2528,1834
25.2556,1858
25.2583,1897
25.2611,1916
25.2639,1925
25.2667,1937
25.2694,1953
25.2722,1971
25.2750,2015
25.2778,2062
25.2806,2117
25.2833,2141
25.2861,2165
25.2889,2193
25.2917,2238
25.2944,2287
25.2972,2311
25.3000,2342
25.3028,2363
25.3056,2377
25.3083,2390
25.3111,2409
25.3139,2453
25.3167,2494
25.3194,2531
25.3222,2543
25.3250,2534
25.3278,2519
25.3306,2490
25.3333,2478
25.3361,2469
25.3389,2460
25.3417,2453
25.3444,2426
25.3472,2394
25.3500,2368
25.3528,2345
25.3556,2324
25.3583,2300
25.3611,2269
25.3639,2232
25.3667,2187
25.3694,2138
25.3722,1757
25.3750,1762
25.3778,1749
25.3806,1737
25.3833,1726
25.3861,1714
25.3889,1696
25.3917,1676
25.3944,1676
25.3972,1675
25.4000,1682
25.4028,1683
25.4056,1688
25.4083,1691
25.4111,1687
25.4139,1715
25.4167,1741
25.4194,1775
25.4222,1811
25.4250,1819
25.4278,1807
25.4306,1786
25.4333,1777
25.4361,1778
25.4389,1801
25.4417,1821
25.4444,1837
25.4472,1887
25.4500,1943
25.4528,1980
25.4556,2003
25.4583,2002
25.4611,2007
25.4639,1999
25.4667,1990
25.4694,1959
25.4722,1941
25.4750,1891
25.4778,1829
25.4806,1743
25.4833,1652
25.4861,1571
25.4889,1492
25.4917,1436
25.4944,1408
25.4972,1381
25.5000,1349
25.5028,1329
25.5056,1330
25.5083,1340
25.5111,1346
25.5139,1350
25.5167,1358
25.5194,1356
25.5222,1348
25.5250,1318
25.5278,1293
25.5306,1302
25.5333,1339
25.5361,1354
25.5389,1363
25.5417,1358
25.5444,1353
25.5472,1341
25.5500,1323
25.5528,1293
25.5556,1236
25.5583,1169
25.5611,1101
25.5639,1053
25.5667,1089
25.5694,1232
25.5722,1487
25.5750,1852
25.5778,2251
25.5806,2455
25.5833,2446
25.5861,2339
25.5889,2196
25.5917,2050
25.5944,1842
25.5972,1434
25.6000,976
25.6028,618
25.6056,414
25.6083,322
25.6111,295
25.6139,297
25.6167,326
25.6194,374
25.6222,428
25.6250,504
25.6278,595
25.6306,702
25.6333,814
25.6361,935
25.6389,1067
25.6417,1197
25.6444,1301
25.6472,1389
25.6500,1457
25.6528,1524
25.6556,1556
25.6583,1592
25.6611,1621
25.6639,1658
25.6667,1692
25.6694,1706
25.6722,1711
25.6750,1723
25.6778,1741
25.6806,1767
25.6833,1807
25.6861,1856
25.6889,1890
25.6917,1910
25.6944,1915
25.6972,1945
25.7000,1970
25.7028,2005
25.7056,2031
25.7083,2044
25.7111,2055
25.7139,2085
25.7167,2123
25.7194,2177
25.7222,2225
25.7250,2268
25.7278,2301
25.7306,2333
25.7333,2355
25.7361,2364
25.7389,2374
25.7417,2397
25.7444,2412
25.7472,2401
25.7500,2396
25.7528,2384
25.7556,2360
25.7583,2352
25.7611,2347
25.7639,2350
25.7667,2358
25.7694,2350
25.7722,2318
25.7750,2291
25.7778,2268
25.7806,2260
25.7833,2247
25.7861,2206
25.7889,2153
25.7917,2091
25.7944,2046
25.7972,2041
25.8000,2026
25.8028,2016
25.8056,2002
25.8083,1992
25.8111,1960
25.8139,1930
25.8167,1884
25.8194,1862
25.8222,1842
25.8250,1838
25.8278,1814
25.8306,1804
25.8333,1595
25.8361,1589
25.8389,1597
25.8417,1618
25.8444,1621
25.8472,1639
25.8500,1677
25.8528,1700
25.8556,1704
25.8583,1711
25.8611,1714
25.8639,1721
25.8667,1716
25.8694,1716
25.8722,1739
25.8750,1788
25.8778,1837
25.8806,1902
25.8833,1937
25.8861,1948
25.8889,1957
25.8917,1958
25.8944,1970
25.8972,1982
25.9000,1977
25.9028,1972
25.9056,1942
25.9083,1874
25.9111,1786
25.9139,1699
25.9167,1606
25.9194,1528
25.9222,1463
25.9250,1421
25.9278,1382
25.9306,1356
25.9333,1340
25.9361,1326
25.9389,1324
25.9417,1335
25.9444,1352
25.9472,1362
25.9500,1367
25.9528,1372
25.9556,1368
25.9583,1360
25.9611,1355
25.9639,1367
25.9667,1349
25.9694,1359
25.9722,1375
25.9750,1399
25.9778,1411
25.9806,1410
25.9833,1389
25.9861,1345
25.9889,1272
25.9917,1186
25.9944,1105
25.9972,1080
26.0000,1156
26.0028,1344
26.0056,1617
26.0083,2004
26.0111,2304
26.0139,2374
26.0167,2283
26.0194,2166
26.0222,2033
26.0250,1921
26.0278,1625
26.0306,1211
26.0333,850
26.0361,618
26.0389,519
26.0417,475
26.0444,456
26.0472,445
26.0500,450
26.0528,477
26.0556,544
26.0583,630
26.0611,707
26.0639,796
26.0667,883
26.0694,1004
26.0722,1141
26.0750,1275
26.0778,1394
26.0806,1467
26.0833,1523
26.0861,1567
26.0889,1612
26.0917,1658
26.0944,1711
26.0972,1743
26.1000,1772
26.1028,1779
26.1056,1800
26.1083,1816
26.1111,1841
26.1139,1871
26.1167,1901
26.1194,1920
26.1222,1936
26.1250,1949
26.1278,1962
26.1306,2000
26.1333,2021
26.1361,2049
26.1389,2095
26.1417,2121
26.1444,2146
26.1472,2183
26.1500,2218
26.1528,2264
26.1556,2317
26.1583,2366
26.1611,2400
26.1639,2429
26.1667,2428
26.1694,2424
26.1722,2429
26.1750,2448
26.1778,2459
26.1806,2457
26.1833,2461
26.1861,2467
26.1889,2478
26.1917,2486
26.1944,2491
26.1972,2470
26.2000,2450
26.2028,2409
26.2056,2378
26.2083,2348
26.2111,2310
26.2139,2291
26.2167,2273
26.2194,2245
26.2222,2211
26.2250,2161
26.2278,2122
26.2306,2088
26.2333,2070
26.2361,2058
26.2389,2041
26.2417,2020
26.2444,1980
26.2472,1947
26.2500,1938
26.2528,1919
26.2556,1912
26.2583,1901
26.2611,1875
26.2639,1845
26.2667,1837
26.2694,1830
26.2722,1853
26.2750,1678
26.2778,1680
26.2806,1699
26.2833,1713
26.2861,1727
26.2889,1737
26.2917,1764
26.2944,1770
26.2972,1771
26.3000,1763
26.3028,1757
26.3056,1752
26.3083,1790
26.3111,1842
26.3139,1901
26.3167,1958
26.3194,1983
26.3222,1996
26.3250,1994
26.3278,2002
26.3306,2011
26.3333,2003
26.3361,2014
26.3389,1986
26.3417,1930
26.3444,1836
26.3472,1736
26.3500,1645
26.3528,1581
26.3556,1530
26.3583,1489
26.3611,1454
26.3639,1414
26.3667,1395
26.3694,1393
26.3722,1392
26.3750,1375
26.3778,1376
26.3806,1381
26.3833,1373
26.3861,1370
26.3889,1361
26.3917,1356
26.3944,1367
26.3972,1381
26.4000,1389
26.4028,1384
26.4056,1374
26.4083,1377
26.4111,1396
26.4139,1407
26.4167,1418
26.4194,1395
26.4222,1348
26.4250,1268
26.4278,1182
26.4306,1128
26.4333,1116
26.4361,1201
26.4389,1366
26.4417,1666
26.4444,1964
26.4472,2083
26.4500,2066
26.4528,2024
26.4556,1975
26.4583,1938
26.4611,1833
26.4639,1591
26.4667,1334
26.4694,1154
26.4722,1005
26.4750,879
26.4778,770
26.4806,656
26.4833,567
26.4861,529
26.4889,538
26.4917,591
26.4944,654
26.4972,730
26.5000,824
26.5028,922
26.5056,1009
26.5083,1108
26.5111,1218
26.5139,1315
26.5167,1386
26.5194,1450
26.5222,1498
26.5250,1555
26.5278,1610
26.5306,1662
26.5333,1698
26.5361,1722
26.5389,1745
26.5417,1748
26.5444,1769
26.5472,1804
26.5500,1836
26.5528,1863
26.5556,1887
26.5583,1912
26.5611,1933
26.5639,1953
26.5667,1966
26.5694,1985
26.5722,2022
26.5750,2046
26.5778,2081
26.5806,2110
26.5833,2146
26.5861,2183
26.5889,2213
26.5917,2238
26.5944,2273
26.5972,2304
