Tiempo(s),Valor_ADC
0.0028,1414
0.0056,1419
0.0083,1423
0.0111,1412
0.0139,1405
0.0167,1391
0.0194,1386
0.0222,1386
0.0250,1389
0.0278,1396
0.0306,1390
0.0333,1374
0.0361,1364
0.0389,1358
0.0417,1369
0.0444,1390
0.0472,1413
0.0500,1430
0.0528,1443
0.0556,1452
0.0583,1446
0.0611,1425
0.0639,1404
0.0667,1397
0.0694,1388
0.0722,1395
0.0750,1400
0.0778,1403
0.0806,1400
0.0833,1420
0.0861,1427
0.0889,1419
0.0917,1404
0.0944,1379
0.0972,1384
0.1000,1400
0.1028,1404
0.1056,1410
0.1083,1416
0.1111,1414
0.1139,1425
0.1167,1433
0.1194,1425
0.1222,1428
0.1250,1432
0.1278,1449
0.1306,1444
0.1333,1447
0.1361,1447
0.1389,1424
0.1417,1423
0.1444,1427
0.1472,1431
0.1500,1449
0.1528,1458
0.1556,1471
0.1583,1446
0.1611,1442
0.1639,1450
0.1667,1456
0.1694,1471
0.1722,1473
0.1750,1478
0.1778,1458
0.1806,1454
0.1833,1436
0.1861,1448
0.1889,1457
0.1917,1473
0.1944,1475
0.1972,1473
0.2000,1477
0.2028,1491
0.2056,1519
0.2083,1549
0.2111,1566
0.2139,1566
0.2167,1541
0.2194,1518
0.2222,1508
0.2250,1508
0.2278,1520
0.2306,1541
0.2333,1567
0.2361,1596
0.2389,1624
0.2417,1635
0.2444,1639
0.2472,1622
0.2500,1604
0.2528,1583
0.2556,1574
0.2583,1544
0.2611,1524
0.2639,1512
0.2667,1494
0.2694,1481
0.2722,1468
0.2750,1465
0.2778,1475
0.2806,1469
0.2833,1461
0.2861,1460
0.2889,1453
0.2917,1460
0.2944,1466
0.2972,1466
0.3000,1447
0.3028,1435
0.3056,1428
0.3083,1424
0.3111,1437
0.3139,1454
0.3167,1434
0.3194,1427
0.3222,1410
0.3250,1405
0.3278,1392
0.3306,1419
0.3333,1493
0.3361,1653
0.3389,1891
0.3417,2237
0.3444,2666
0.3472,3099
0.3500,3349
0.3528,3367
0.3556,3376
0.3583,3327
0.3611,2876
0.3639,2187
0.3667,1611
0.3694,1242
0.3722,1125
0.3750,1177
0.3778,1298
0.3806,1418
0.3833,1488
0.3861,1498
0.3889,1482
0.3917,1449
0.3944,1419
0.3972,1399
0.4000,1405
0.4028,1418
0.4056,1428
0.4083,1442
0.4111,1444
0.4139,1438
0.4167,1409
0.4194,1380
0.4222,1397
0.4250,1423
0.4278,1440
0.4306,1462
0.4333,1463
0.4361,1458
0.4389,1440
0.4417,1438
0.4444,1445
0.4472,1456
0.4500,1471
0.4528,1480
0.4556,1470
0.4583,1467
0.4611,1450
0.4639,1451
0.4667,1464
0.4694,1492
0.4722,1505
0.4750,1519
0.4778,1516
0.4806,1515
0.4833,1524
0.4861,1549
0.4889,1554
0.4917,1556
0.4944,1567
0.4972,1575
0.5000,1578
0.5028,1573
0.5056,1568
0.5083,1562
0.5111,1558
0.5139,1578
0.5167,1606
0.5194,1632
0.5222,1649
0.5250,1650
0.5278,1655
0.5306,1659
0.5333,1673
0.5361,1672
0.5389,1686
0.5417,1726
0.5444,1774
0.5472,1786
0.5500,1789
0.5528,1772
0.5556,1760
0.5583,1761
0.5611,1754
0.5639,1765
0.5667,1760
0.5694,1742
0.5722,1721
0.5750,1712
0.5778,1677
0.5806,1669
0.5833,1652
0.5861,1651
0.5889,1634
0.5917,1625
0.5944,1624
0.5972,1640
0.6000,1633
0.6028,1650
0.6056,1661
0.6083,1653
0.6111,1658
0.6139,1640
0.6167,1630
0.6194,1625
0.6222,1630
0.6250,1646
0.6278,1648
0.6306,1649
0.6333,1641
0.6361,1628
0.6389,1632
0.6417,1645
0.6444,1661
0.6472,1664
0.6500,1673
0.6528,1685
0.6556,1689
0.6583,1688
0.6611,1674
0.6639,1672
0.6667,1677
0.6694,1687
0.6722,1700
0.6750,1707
0.6778,1709
0.6806,1707
0.6833,1706
0.6861,1711
0.6889,1729
0.6917,1724
0.6944,1721
0.6972,1713
0.7000,1706
0.7028,1712
0.7056,1727
0.7083,1727
0.7111,1737
0.7139,1730
0.7167,1714
0.7194,1726
0.7222,1731
0.7250,1733
0.7278,1740
0.7306,1724
0.7333,1716
0.7361,1715
0.7389,1711
0.7417,1692
0.7444,1692
0.7472,1718
0.7500,1747
0.7528,1751
0.7556,1733
0.7583,1720
0.7611,1719
0.7639,1725
0.7667,1721
0.7694,1733
0.7722,1753
0.7750,1752
0.7778,1753
0.7806,1752
0.7833,1742
0.7861,1759
0.7889,1750
0.7917,1740
0.7944,1732
0.7972,1730
0.8000,1742
0.8028,1743
0.8056,1751
0.8083,1754
0.8111,1765
0.8139,1765
0.8167,1758
0.8194,1755
0.8222,1771
0.8250,1776
0.8278,1768
0.8306,1765
0.8333,1765
0.8361,1770
0.8389,1774
0.8417,1768
0.8444,1757
0.8472,1776
0.8500,1787
0.8528,1788
0.8556,1791
0.8583,1787
0.8611,1789
0.8639,1791
0.8667,1802
0.8694,1814
0.8722,1819
0.8750,1814
0.8778,1811
0.8806,1809
0.8833,1805
0.8861,1814
0.8889,1825
0.8917,1822
0.8944,1819
0.8972,1813
0.9000,1812
0.9028,1811
0.9056,1803
0.9083,1807
0.9111,1812
0.9139,1822
0.9167,1834
0.9194,1831
0.9222,1827
0.9250,1826
0.9278,1828
0.9306,1835
0.9333,1843
0.9361,1843
0.9389,1845
0.9417,1844
0.9444,1841
0.9472,1838
0.9500,1846
0.9528,1840
0.9556,1848
0.9583,1853
0.9611,1855
0.9639,1867
0.9667,1856
0.9694,1853
0.9722,1842
0.9750,1838
0.9778,1836
0.9806,1845
0.9833,1838
0.9861,1832
0.9889,1850
0.9917,1842
0.9944,1855
0.9972,1866
1.0000,1874
1.0028,1876
1.0056,1873
1.0083,1885
1.0111,1912
1.0139,1936
1.0167,1946
1.0194,1946
1.0222,1930
1.0250,1917
1.0278,1888
1.0306,1876
1.0333,1869
1.0361,1897
1.0389,1929
1.0417,1990
1.0444,2016
1.0472,2021
1.0500,2016
1.0528,2009
1.0556,1992
1.0583,1964
1.0611,1942
1.0639,1923
1.0667,1923
1.0694,1917
1.0722,1908
1.0750,1894
1.0778,1877
1.0806,1853
1.0833,1845
1.0861,1842
1.0889,1835
1.0917,1826
1.0944,1824
1.0972,1830
1.1000,1831
1.1028,1852
1.1056,1844
1.1083,1841
1.1111,1814
1.1139,1804
1.1167,1800
1.1194,1799
1.1222,1785
1.1250,1764
1.1278,1749
1.1306,1741
1.1333,1735
1.1361,1734
1.1389,1767
1.1417,1860
1.1444,2045
1.1472,2300
1.1500,2666
1.1528,3079
1.1556,3343
1.1583,3358
1.1611,3366
1.1639,3381
1.1667,3376
1.1694,3189
1.1722,2629
1.1750,2031
1.1778,1638
1.1806,1475
1.1833,1505
1.1861,1611
1.1889,1714
1.1917,1771
1.1944,1789
1.1972,1772
1.2000,1735
1.2028,1704
1.2056,1687
1.2083,1679
1.2111,1683
1.2139,1692
1.2167,1721
1.2194,1729
1.2222,1732
1.2250,1716
1.2278,1689
1.2306,1667
1.2333,1669
1.2361,1696
1.2389,1707
1.2417,1721
1.2444,1715
1.2472,1700
1.2500,1699
1.2528,1710
1.2556,1723
1.2583,1736
1.2611,1752
1.2639,1745
1.2667,1745
1.2694,1732
1.2722,1746
1.2750,1751
1.2778,1756
1.2806,1767
1.2833,1759
1.2861,1757
1.2889,1743
1.2917,1748
1.2944,1767
1.2972,1788
1.3000,1804
1.3028,1809
1.3056,1806
1.3083,1811
1.3111,1805
1.3139,1810
1.3167,1824
1.3194,1836
1.3222,1839
1.3250,1834
1.3278,1821
1.3306,1827
1.3333,1850
1.3361,1874
1.3389,1881
1.3417,1898
1.3444,1893
1.3472,1900
1.3500,1912
1.3528,1930
1.3556,1974
1.3583,1999
1.3611,2018
1.3639,2022
1.3667,2016
1.3694,1880
1.3722,1887
1.3750,1868
1.3778,1858
1.3806,1842
1.3833,1820
1.3861,1792
1.3889,1772
1.3917,1759
1.3944,1743
1.3972,1739
1.4000,1732
1.4028,1726
1.4056,1713
1.4083,1713
1.4111,1703
1.4139,1700
1.4167,1701
1.4194,1703
1.4222,1714
1.4250,1697
1.4278,1708
1.4306,1724
1.4333,1726
1.4361,1733
1.4389,1727
1.4417,1736
1.4444,1725
1.4472,1721
1.4500,1735
1.4528,1742
1.4556,1745
1.4583,1750
1.4611,1752
1.4639,1739
1.4667,1728
1.4694,1718
1.4722,1724
1.4750,1732
1.4778,1750
1.4806,1759
1.4833,1759
1.4861,1749
1.4889,1732
1.4917,1724
1.4944,1728
1.4972,1737
1.5000,1737
1.5028,1740
1.5056,1743
1.5083,1732
1.5111,1734
1.5139,1740
1.5167,1750
1.5194,1750
1.5222,1744
1.5250,1738
1.5278,1718
1.5306,1717
1.5333,1713
1.5361,1730
1.5389,1726
1.5417,1731
1.5444,1715
1.5472,1716
1.5500,1716
1.5528,1719
1.5556,1714
1.5583,1728
1.5611,1734
1.5639,1729
1.5667,1730
1.5694,1723
1.5722,1710
1.5750,1700
1.5778,1701
1.5806,1681
1.5833,1688
1.5861,1696
1.5889,1714
1.5917,1715
1.5944,1706
1.5972,1700
1.6000,1681
1.6028,1682
1.6056,1681
1.6083,1684
1.6111,1689
1.6139,1706
1.6167,1707
1.6194,1711
1.6222,1707
1.6250,1703
1.6278,1698
1.6306,1687
1.6333,1692
1.6361,1693
1.6389,1710
1.6417,1720
1.6444,1720
1.6472,1711
1.6500,1684
1.6528,1691
1.6556,1706
1.6583,1725
1.6611,1740
1.6639,1739
1.6667,1720
1.6694,1718
1.6722,1718
1.6750,1732
1.6778,1739
1.6806,1744
1.6833,1733
1.6861,1729
1.6889,1732
1.6917,1742
1.6944,1748
1.6972,1745
1.7000,1742
1.7028,1742
1.7056,1742
1.7083,1734
1.7111,1730
1.7139,1721
1.7167,1727
1.7194,1727
1.7222,1727
1.7250,1728
1.7278,1722
1.7306,1736
1.7333,1743
1.7361,1749
1.7389,1754
1.7417,1743
1.7444,1727
1.7472,1728
1.7500,1717
1.7528,1721
1.7556,1731
1.7583,1737
1.7611,1746
1.7639,1756
1.7667,1740
1.7694,1743
1.7722,1731
1.7750,1740
1.7778,1756
1.7806,1764
1.7833,1757
1.7861,1748
1.7889,1750
1.7917,1741
1.7944,1746
1.7972,1743
1.8000,1749
1.8028,1758
1.8056,1769
1.8083,1779
1.8111,1782
1.8139,1796
1.8167,1813
1.8194,1822
1.8222,1818
1.8250,1820
1.8278,1831
1.8306,1821
1.8333,1824
1.8361,1829
1.8389,1821
1.8417,1802
1.8444,1795
1.8472,1820
1.8500,1854
1.8528,1876
1.8556,1906
1.8583,1928
1.8611,1934
1.8639,1918
1.8667,1889
1.8694,1868
1.8722,1841
1.8750,1821
1.8778,1802
1.8806,1799
1.8833,1795
1.8861,1788
1.8889,1760
1.8917,1745
1.8944,1731
1.8972,1729
1.9000,1721
1.9028,1703
1.9056,1700
1.9083,1698
1.9111,1704
1.9139,1703
1.9167,1705
1.9194,1702
1.9222,1702
1.9250,1694
1.9278,1691
1.9306,1687
1.9333,1661
1.9361,1632
1.9389,1612
1.9417,1609
1.9444,1616
1.9472,1645
1.9500,1677
1.9528,1756
1.9556,1887
1.9583,2061
1.9611,2328
1.9639,2688
1.9667,3098
1.9694,3345
1.9722,3362
1.9750,3368
1.9778,3349
1.9806,3087
1.9833,2564
1.9861,2054
1.9889,1672
1.9917,1469
1.9944,1410
1.9972,1460
2.0000,1551
2.0028,1636
2.0056,1668
2.0083,1668
2.0111,1638
2.0139,1587
2.0167,1540
2.0194,1537
2.0222,1557
2.0250,1578
2.0278,1588
2.0306,1598
2.0333,1601
2.0361,1595
2.0389,1593
2.0417,1589
2.0444,1594
2.0472,1608
2.0500,1620
2.0528,1615
2.0556,1621
2.0583,1621
2.0611,1631
2.0639,1622
2.0667,1630
2.0694,1628
2.0722,1615
2.0750,1623
2.0778,1632
2.0806,1635
2.0833,1632
2.0861,1641
2.0889,1651
2.0917,1654
2.0944,1667
2.0972,1673
2.1000,1678
2.1028,1685
2.1056,1690
2.1083,1709
2.1111,1707
2.1139,1718
2.1167,1721
2.1194,1721
2.1222,1713
2.1250,1719
2.1278,1735
2.1306,1742
2.1333,1752
2.1361,1745
2.1389,1741
2.1417,1751
2.1444,1762
2.1472,1776
2.1500,1806
2.1528,1812
2.1556,1828
2.1583,1824
2.1611,1825
2.1639,1844
2.1667,1869
2.1694,1883
2.1722,1894
2.1750,1912
2.1778,1908
2.1806,1831
2.1833,1829
2.1861,1804
2.1889,1786
2.1917,1770
2.1944,1758
2.1972,1740
2.2000,1717
2.2028,1714
2.2056,1697
2.2083,1678
2.2111,1680
2.2139,1673
2.2167,1661
2.2194,1639
2.2222,1618
2.2250,1606
2.2278,1624
2.2306,1634
2.2333,1637
2.2361,1639
2.2389,1641
2.2417,1636
2.2444,1642
2.2472,1650
2.2500,1649
2.2528,1647
2.2556,1653
2.2583,1654
2.2611,1650
2.2639,1638
2.2667,1640
2.2694,1644
2.2722,1642
2.2750,1642
2.2778,1636
2.2806,1648
2.2833,1660
2.2861,1670
2.2889,1656
2.2917,1660
2.2944,1659
2.2972,1648
2.3000,1649
2.3028,1643
2.3056,1654
2.3083,1658
2.3111,1665
2.3139,1670
2.3167,1673
2.3194,1655
2.3222,1643
2.3250,1646
2.3278,1647
2.3306,1655
2.3333,1653
2.3361,1651
2.3389,1647
2.3417,1652
2.3444,1653
2.3472,1651
2.3500,1655
2.3528,1643
2.3556,1641
2.3583,1625
2.3611,1604
2.3639,1602
2.3667,1608
2.3694,1618
2.3722,1621
2.3750,1626
2.3778,1646
2.3806,1637
2.3833,1637
2.3861,1635
2.3889,1633
2.3917,1622
2.3944,1617
2.3972,1604
2.4000,1603
2.4028,1621
2.4056,1622
2.4083,1627
2.4111,1621
2.4139,1618
2.4167,1607
2.4194,1605
2.4222,1603
2.4250,1595
2.4278,1609
2.4306,1613
2.4333,1624
2.4361,1629
2.4389,1625
2.4417,1635
2.4444,1634
2.4472,1636
2.4500,1641
2.4528,1643
2.4556,1638
2.4583,1631
2.4611,1621
2.4639,1613
2.4667,1620
2.4694,1630
2.4722,1639
2.4750,1637
2.4778,1647
2.4806,1650
2.4833,1645
2.4861,1646
2.4889,1645
2.4917,1644
2.4944,1639
2.4972,1627
2.5000,1626
2.5028,1627
2.5056,1629
2.5083,1636
2.5111,1645
2.5139,1646
2.5167,1646
2.5194,1633
2.5222,1634
2.5250,1640
2.5278,1650
2.5306,1646
2.5333,1654
2.5361,1644
2.5389,1656
2.5417,1665
2.5444,1666
2.5472,1670
2.5500,1669
2.5528,1659
2.5556,1659
2.5583,1661
2.5611,1657
2.5639,1645
2.5667,1656
2.5694,1662
2.5722,1688
2.5750,1694
2.5778,1708
2.5806,1732
2.5833,1748
2.5861,1756
2.5889,1744
2.5917,1747
2.5944,1740
2.5972,1722
2.6000,1703
2.6028,1706
2.6056,1720
2.6083,1748
2.6111,1783
2.6139,1812
2.6167,1835
2.6194,1847
2.6222,1858
2.6250,1840
2.6278,1825
2.6306,1788
2.6333,1756
2.6361,1735
2.6389,1711
2.6417,1712
2.6444,1724
2.6472,1712
2.6500,1705
2.6528,1686
2.6556,1657
2.6583,1644
2.6611,1628
2.6639,1618
2.6667,1615
2.6694,1618
2.6722,1622
2.6750,1631
2.6778,1631
2.6806,1641
2.6833,1655
2.6861,1649
2.6889,1644
2.6917,1635
2.6944,1600
2.6972,1570
2.7000,1553
2.7028,1552
2.7056,1571
2.7083,1586
2.7111,1640
2.7139,1740
2.7167,1904
2.7194,2145
2.7222,2494
2.7250,2904
2.7278,3310
2.7306,3362
2.7333,3372
2.7361,3376
2.7389,3273
2.7417,2785
2.7444,2197
2.7472,1705
2.7500,1409
2.7528,1330
2.7556,1360
2.7583,1474
2.7611,1566
2.7639,1622
2.7667,1615
2.7694,1571
2.7722,1522
2.7750,1486
2.7778,1487
2.7806,1502
2.7833,1519
2.7861,1541
2.7889,1551
2.7917,1558
2.7944,1539
2.7972,1515
2.8000,1504
2.8028,1499
2.8056,1506
2.8083,1529
2.8111,1543
2.8139,1545
2.8167,1559
2.8194,1573
2.8222,1575
2.8250,1571
2.8278,1568
2.8306,1581
2.8333,1586
2.8361,1577
2.8389,1576
2.8417,1572
2.8444,1584
2.8472,1595
2.8500,1612
2.8528,1617
2.8556,1620
2.8583,1606
2.8611,1605
2.8639,1608
2.8667,1607
2.8694,1627
2.8722,1653
2.8750,1658
2.8778,1659
2.8806,1655
2.8833,1659
2.8861,1681
2.8889,1694
2.8917,1704
2.8944,1696
2.8972,1694
2.9000,1693
2.9028,1703
2.9056,1733
2.9083,1750
2.9111,1760
2.9139,1767
2.9167,1766
2.9194,1753
2.9222,1760
2.9250,1782
2.9278,1811
2.9306,1837
2.9333,1860
2.9361,1872
2.9389,1902
2.9417,1773
2.9444,1783
2.9472,1764
2.9500,1744
2.9528,1733
2.9556,1704
2.9583,1686
2.9611,1666
2.9639,1662
2.9667,1667
2.9694,1648
2.9722,1635
2.9750,1624
2.9778,1616
2.9806,1609
2.9833,1611
2.9861,1626
2.9889,1620
2.9917,1615
2.9944,1613
2.9972,1602
3.0000,1597
3.0028,1602
3.0056,1603
3.0083,1601
3.0111,1609
3.0139,1602
3.0167,1604
3.0194,1610
3.0222,1615
3.0250,1609
3.0278,1603
3.0306,1614
3.0333,1626
3.0361,1638
3.0389,1626
3.0417,1625
3.0444,1631
3.0472,1643
3.0500,1657
3.0528,1654
3.0556,1650
3.0583,1639
3.0611,1626
3.0639,1623
3.0667,1634
3.0694,1643
3.0722,1635
3.0750,1634
3.0778,1622
3.0806,1616
3.0833,1624
3.0861,1638
3.0889,1640
3.0917,1649
3.0944,1648
3.0972,1637
3.1000,1634
3.1028,1638
3.1056,1634
3.1083,1630
3.1111,1633
3.1139,1636
3.1167,1633
3.1194,1644
3.1222,1641
3.1250,1651
3.1278,1660
3.1306,1652
3.1333,1648
3.1361,1637
3.1389,1647
3.1417,1653
3.1444,1659
3.1472,1649
3.1500,1650
3.1528,1649
3.1556,1635
3.1583,1625
3.1611,1616
3.1639,1616
3.1667,1619
3.1694,1626
3.1722,1630
3.1750,1638
3.1778,1639
3.1806,1638
3.1833,1651
3.1861,1664
3.1889,1660
3.1917,1658
3.1944,1657
3.1972,1654
3.2000,1652
3.2028,1651
3.2056,1650
3.2083,1649
3.2111,1649
3.2139,1649
3.2167,1654
3.2194,1658
3.2222,1654
3.2250,1640
3.2278,1645
3.2306,1654
3.2333,1639
3.2361,1646
3.2389,1660
3.2417,1677
3.2444,1670
3.2472,1676
3.2500,1662
3.2528,1657
3.2556,1659
3.2583,1660
3.2611,1655
3.2639,1666
3.2667,1680
3.2694,1689
3.2722,1685
3.2750,1675
3.2778,1660
3.2806,1648
3.2833,1651
3.2861,1654
3.2889,1646
3.2917,1642
3.2944,1638
3.2972,1645
3.3000,1663
3.3028,1671
3.3056,1682
3.3083,1685
3.3111,1684
3.3139,1689
3.3167,1697
3.3194,1694
3.3222,1693
3.3250,1687
3.3278,1672
3.3306,1677
3.3333,1686
3.3361,1696
3.3389,1700
3.3417,1697
3.3444,1710
3.3472,1725
3.3500,1742
3.3528,1756
3.3556,1761
3.3583,1768
3.3611,1764
3.3639,1746
3.3667,1731
3.3694,1721
3.3722,1721
3.3750,1716
3.3778,1739
3.3806,1762
3.3833,1797
3.3861,1837
3.3889,1845
3.3917,1863
3.3944,1862
3.3972,1849
3.4000,1808
3.4028,1783
3.4056,1763
3.4083,1741
3.4111,1733
3.4139,1746
3.4167,1729
3.4194,1706
3.4222,1685
3.4250,1674
3.4278,1677
3.4306,1662
3.4333,1656
3.4361,1645
3.4389,1646
3.4417,1656
3.4444,1660
3.4472,1658
3.4500,1659
3.4528,1655
3.4556,1640
3.4583,1642
3.4611,1617
3.4639,1587
3.4667,1565
3.4694,1565
3.4722,1567
3.4750,1580
3.4778,1591
3.4806,1649
3.4833,1763
3.4861,1945
3.4889,2201
3.4917,2564
3.4944,3000
3.4972,3339
3.5000,3363
3.5028,3375
3.5056,3387
3.5083,3341
3.5111,2888
3.5139,2240
3.5167,1692
3.5194,1387
3.5222,1302
3.5250,1362
3.5278,1486
3.5306,1583
3.5333,1638
3.5361,1649
3.5389,1603
3.5417,1554
3.5444,1524
3.5472,1509
3.5500,1514
3.5528,1531
3.5556,1539
3.5583,1564
3.5611,1586
3.5639,1579
3.5667,1555
3.5694,1533
3.5722,1520
3.5750,1538
3.5778,1557
3.5806,1559
3.5833,1560
3.5861,1543
3.5889,1534
3.5917,1539
3.5944,1557
3.5972,1579
3.6000,1600
3.6028,1609
3.6056,1602
3.6083,1594
3.6111,1584
3.6139,1589
3.6167,1606
3.6194,1621
3.6222,1627
3.6250,1613
3.6278,1592
3.6306,1592
3.6333,1607
3.6361,1643
3.6389,1670
3.6417,1679
3.6444,1677
3.6472,1651
3.6500,1638
3.6528,1641
3.6556,1645
3.6583,1651
3.6611,1676
3.6639,1694
3.6667,1701
3.6694,1717
3.6722,1734
3.6750,1742
3.6778,1753
3.6806,1764
3.6833,1778
3.6861,1782
3.6889,1787
3.6917,1809
3.6944,1825
3.6972,1843
3.7000,1855
3.7028,1869
3.7056,1879
3.7083,1872
3.7111,1754
3.7139,1748
3.7167,1742
3.7194,1727
3.7222,1710
3.7250,1688
3.7278,1665
3.7306,1637
3.7333,1634
3.7361,1630
3.7389,1635
3.7417,1627
3.7444,1613
3.7472,1604
3.7500,1602
3.7528,1603
3.7556,1594
3.7583,1598
3.7611,1595
3.7639,1586
3.7667,1572
3.7694,1562
3.7722,1574
3.7750,1590
3.7778,1607
3.7806,1605
3.7833,1592
3.7861,1591
3.7889,1566
3.7917,1573
3.7944,1573
3.7972,1585
3.8000,1607
3.8028,1613
3.8056,1610
3.8083,1609
3.8111,1612
3.8139,1613
3.8167,1615
3.8194,1608
3.8222,1601
3.8250,1594
3.8278,1597
3.8306,1593
3.8333,1608
3.8361,1615
3.8389,1618
3.8417,1628
3.8444,1614
3.8472,1609
3.8500,1601
3.8528,1604
3.8556,1615
3.8583,1631
3.8611,1617
3.8639,1606
3.8667,1606
3.8694,1597
3.8722,1612
3.8750,1623
3.8778,1619
3.8806,1616
3.8833,1605
3.8861,1598
3.8889,1601
3.8917,1605
3.8944,1612
3.8972,1618
3.9000,1617
3.9028,1606
3.9056,1611
3.9083,1611
3.9111,1597
3.9139,1613
3.9167,1603
3.9194,1598
3.9222,1594
3.9250,1598
3.9278,1609
3.9306,1614
3.9333,1620
3.9361,1620
3.9389,1616
3.9417,1612
3.9444,1609
3.9472,1605
3.9500,1600
3.9528,1596
3.9556,1609
3.9583,1620
3.9611,1623
3.9639,1613
3.9667,1605
3.9694,1598
3.9722,1590
3.9750,1593
3.9778,1588
3.9806,1592
3.9833,1605
3.9861,1620
3.9889,1612
3.9917,1612
3.9944,1606
3.9972,1607
4.0000,1602
4.0028,1606
4.0056,1603
4.0083,1617
4.0111,1616
4.0139,1618
4.0167,1627
4.0194,1637
4.0222,1643
4.0250,1636
4.0278,1630
4.0306,1633
4.0333,1627
4.0361,1636
4.0389,1640
4.0417,1635
4.0444,1632
4.0472,1623
4.0500,1636
4.0528,1641
4.0556,1653
4.0583,1644
4.0611,1638
4.0639,1628
4.0667,1617
4.0694,1615
4.0722,1630
4.0750,1639
4.0778,1654
4.0806,1657
4.0833,1649
4.0861,1644
4.0889,1642
4.0917,1636
4.0944,1643
4.0972,1660
4.1000,1661
4.1028,1661
4.1056,1657
4.1083,1660
4.1111,1662
4.1139,1678
4.1167,1692
4.1194,1697
4.1222,1707
4.1250,1729
4.1278,1736
4.1306,1742
4.1333,1742
4.1361,1736
4.1389,1709
4.1417,1708
4.1444,1693
4.1472,1700
4.1500,1726
4.1528,1763
4.1556,1795
4.1583,1814
4.1611,1823
4.1639,1828
4.1667,1814
4.1694,1787
4.1722,1750
4.1750,1733
4.1778,1721
4.1806,1724
4.1833,1725
4.1861,1729
4.1889,1714
4.1917,1695
4.1944,1672
4.1972,1665
4.2000,1665
4.2028,1652
4.2056,1643
4.2083,1637
4.2111,1640
4.2139,1652
4.2167,1636
4.2194,1635
4.2222,1634
4.2250,1642
4.2278,1649
4.2306,1647
4.2333,1636
4.2361,1615
4.2389,1578
4.2417,1549
4.2444,1534
4.2472,1526
4.2500,1557
4.2528,1620
4.2556,1735
4.2583,1939
4.2611,2207
4.2639,2600
4.2667,3035
4.2694,3343
4.2722,3350
4.2750,3365
4.2778,3378
4.2806,3341
4.2833,2876
4.2861,2230
4.2889,1698
4.2917,1392
4.2944,1323
4.2972,1397
4.3000,1512
4.3028,1614
4.3056,1656
4.3083,1670
4.3111,1629
4.3139,1582
4.3167,1551
4.3194,1531
4.3222,1522
4.3250,1527
4.3278,1535
4.3306,1555
4.3333,1560
4.3361,1538
4.3389,1529
4.3417,1526
4.3444,1535
4.3472,1560
4.3500,1573
4.3528,1594
4.3556,1594
4.3583,1582
4.3611,1571
4.3639,1559
4.3667,1570
4.3694,1575
4.3722,1602
4.3750,1612
4.3778,1597
4.3806,1584
4.3833,1586
4.3861,1588
4.3889,1606
4.3917,1631
4.3944,1630
4.3972,1623
4.4000,1612
4.4028,1617
4.4056,1611
4.4083,1641
4.4111,1668
4.4139,1679
4.4167,1684
4.4194,1681
4.4222,1664
4.4250,1658
4.4278,1678
4.4306,1703
4.4333,1706
4.4361,1708
4.4389,1692
4.4417,1698
4.4444,1719
4.4472,1747
4.4500,1777
4.4528,1766
4.4556,1761
4.4583,1762
4.4611,1774
4.4639,1788
4.4667,1826
4.4694,1844
4.4722,1872
4.4750,1884
4.4778,1886
4.4806,1896
4.4833,1799
4.4861,1798
4.4889,1798
4.4917,1772
4.4944,1755
4.4972,1730
4.5000,1705
4.5028,1698
4.5056,1689
4.5083,1678
4.5111,1657
4.5139,1639
4.5167,1624
4.5194,1625
4.5222,1613
4.5250,1616
4.5278,1638
4.5306,1639
4.5333,1635
4.5361,1617
4.5389,1617
4.5417,1610
4.5444,1617
4.5472,1611
4.5500,1616
4.5528,1615
4.5556,1622
4.5583,1620
4.5611,1619
4.5639,1605
4.5667,1609
4.5694,1611
4.5722,1624
4.5750,1633
4.5778,1638
4.5806,1631
4.5833,1637
4.5861,1640
4.5889,1646
4.5917,1639
4.5944,1649
4.5972,1648
4.6000,1632
4.6028,1632
4.6056,1639
4.6083,1656
4.6111,1661
4.6139,1668
4.6167,1663
4.6194,1653
4.6222,1655
4.6250,1655
4.6278,1658
4.6306,1657
4.6333,1654
4.6361,1648
4.6389,1647
4.6417,1641
4.6444,1638
4.6472,1637
4.6500,1641
4.6528,1652
4.6556,1649
4.6583,1634
4.6611,1624
4.6639,1635
4.6667,1643
4.6694,1654
4.6722,1657
4.6750,1659
4.6778,1650
4.6806,1642
4.6833,1644
4.6861,1651
4.6889,1651
4.6917,1651
4.6944,1637
4.6972,1639
4.7000,1627
4.7028,1616
4.7056,1611
4.7083,1618
4.7111,1636
4.7139,1639
4.7167,1643
4.7194,1647
4.7222,1649
4.7250,1646
4.7278,1636
4.7306,1649
4.7333,1642
4.7361,1634
4.7389,1628
4.7417,1634
4.7444,1628
4.7472,1639
4.7500,1646
4.7528,1638
4.7556,1648
4.7583,1643
4.7611,1643
4.7639,1641
4.7667,1647
4.7694,1661
4.7722,1661
4.7750,1673
4.7778,1657
4.7806,1643
4.7833,1636
4.7861,1635
4.7889,1643
4.7917,1645
4.7944,1656
4.7972,1656
4.8000,1658
4.8028,1657
4.8056,1659
4.8083,1657
4.8111,1655
4.8139,1657
4.8167,1652
4.8194,1654
4.8222,1650
4.8250,1664
4.8278,1666
4.8306,1678
4.8333,1682
4.8361,1682
4.8389,1684
4.8417,1679
4.8444,1674
4.8472,1673
4.8500,1675
4.8528,1678
4.8556,1676
4.8583,1677
4.8611,1686
4.8639,1680
4.8667,1675
4.8694,1685
4.8722,1677
4.8750,1673
4.8778,1683
4.8806,1673
4.8833,1680
4.8861,1673
4.8889,1680
4.8917,1690
4.8944,1679
4.8972,1683
4.9000,1693
4.9028,1705
4.9056,1707
4.9083,1713
4.9111,1722
4.9139,1740
4.9167,1744
4.9194,1757
4.9222,1772
4.9250,1764
4.9278,1767
4.9306,1751
4.9333,1734
4.9361,1712
4.9389,1707
4.9417,1725
4.9444,1772
4.9472,1807
4.9500,1835
4.9528,1850
4.9556,1853
4.9583,1852
4.9611,1833
4.9639,1809
4.9667,1787
4.9694,1764
4.9722,1737
4.9750,1750
4.9778,1742
4.9806,1741
4.9833,1711
4.9861,1693
4.9889,1680
4.9917,1674
4.9944,1658
4.9972,1658
5.0000,1663
5.0028,1665
5.0056,1667
5.0083,1672
5.0111,1662
5.0139,1658
5.0167,1658
5.0194,1652
5.0222,1652
5.0250,1634
5.0278,1620
5.0306,1602
5.0333,1595
5.0361,1603
5.0389,1615
5.0417,1653
5.0444,1743
5.0472,1875
5.0500,2081
5.0528,2384
5.0556,2773
5.0583,3185
5.0611,3351
5.0639,3353
5.0667,3383
5.0694,3355
5.0722,3015
5.0750,2457
5.0778,1943
5.0806,1584
5.0833,1399
5.0861,1379
5.0889,1447
5.0917,1536
5.0944,1597
5.0972,1630
5.1000,1629
5.1028,1593
5.1056,1555
5.1083,1520
5.1111,1516
5.1139,1522
5.1167,1548
5.1194,1546
5.1222,1550
5.1250,1543
5.1278,1541
5.1306,1539
5.1333,1536
5.1361,1548
5.1389,1558
5.1417,1566
5.1444,1570
5.1472,1563
5.1500,1564
5.1528,1562
5.1556,1565
5.1583,1581
5.1611,1581
5.1639,1602
5.1667,1604
5.1694,1597
5.1722,1601
5.1750,1601
5.1778,1600
5.1806,1608
5.1833,1620
5.1861,1621
5.1889,1616
5.1917,1614
5.1944,1623
5.1972,1636
5.2000,1654
5.2028,1663
5.2056,1673
5.2083,1675
5.2111,1666
5.2139,1671
5.2167,1676
5.2194,1685
5.2222,1692
5.2250,1711
5.2278,1709
5.2306,1708
5.2333,1713
5.2361,1727
5.2389,1739
5.2417,1758
5.2444,1772
5.2472,1787
5.2500,1798
5.2528,1824
5.2556,1834
5.2583,1851
5.2611,1866
5.2639,1868
5.2667,1879
5.2694,1886
5.2722,1803
5.2750,1808
5.2778,1788
5.2806,1782
5.2833,1766
5.2861,1745
5.2889,1733
5.2917,1703
5.2944,1689
5.2972,1671
5.3000,1656
5.3028,1636
5.3056,1618
5.3083,1625
5.3111,1615
5.3139,1610
5.3167,1605
5.3194,1609
5.3222,1613
5.3250,1604
5.3278,1601
5.3306,1596
5.3333,1592
5.3361,1605
5.3389,1601
5.3417,1611
5.3444,1604
5.3472,1602
5.3500,1606
5.3528,1605
5.3556,1613
5.3583,1623
5.3611,1616
5.3639,1611
5.3667,1618
5.3694,1613
5.3722,1620
5.3750,1619
5.3778,1614
5.3806,1634
5.3833,1633
5.3861,1624
5.3889,1629
5.3917,1629
5.3944,1631
5.3972,1624
5.4000,1635
5.4028,1630
5.4056,1650
5.4083,1638
5.4111,1636
5.4139,1644
5.4167,1634
5.4194,1626
5.4222,1627
5.4250,1643
5.4278,1647
5.4306,1650
5.4333,1645
5.4361,1644
5.4389,1624
5.4417,1644
5.4444,1630
5.4472,1623
5.4500,1614
5.4528,1618
5.4556,1627
5.4583,1635
5.4611,1634
5.4639,1652
5.4667,1644
5.4694,1633
5.4722,1610
5.4750,1608
5.4778,1608
5.4806,1610
5.4833,1609
5.4861,1612
5.4889,1612
5.4917,1616
5.4944,1618
5.4972,1624
5.5000,1628
5.5028,1623
5.5056,1617
5.5083,1614
5.5111,1613
5.5139,1614
5.5167,1619
5.5194,1616
5.5222,1614
5.5250,1622
5.5278,1629
5.5306,1625
5.5333,1614
5.5361,1615
5.5389,1601
5.5417,1600
5.5444,1604
5.5472,1602
5.5500,1609
5.5528,1610
5.5556,1624
5.5583,1619
5.5611,1621
5.5639,1621
5.5667,1617
5.5694,1615
5.5722,1622
5.5750,1624
5.5778,1637
5.5806,1642
5.5833,1639
5.5861,1640
5.5889,1644
5.5917,1624
5.5944,1627
5.5972,1626
5.6000,1633
5.6028,1634
5.6056,1630
5.6083,1624
5.6111,1632
5.6139,1637
5.6167,1627
5.6194,1621
5.6222,1637
5.6250,1638
5.6278,1638
5.6306,1648
5.6333,1653
5.6361,1658
5.6389,1652
5.6417,1659
5.6444,1668
5.6472,1675
5.6500,1691
5.6528,1705
5.6556,1723
5.6583,1723
5.6611,1712
5.6639,1694
5.6667,1669
5.6694,1654
5.6722,1654
5.6750,1687
5.6778,1725
5.6806,1769
5.6833,1794
5.6861,1819
5.6889,1811
5.6917,1807
5.6944,1794
5.6972,1779
5.7000,1752
5.7028,1716
5.7056,1711
5.7083,1693
5.7111,1685
5.7139,1671
5.7167,1652
5.7194,1629
5.7222,1614
5.7250,1610
5.7278,1597
5.7306,1594
5.7333,1605
5.7361,1605
5.7389,1611
5.7417,1605
5.7444,1609
5.7472,1602
5.7500,1593
5.7528,1600
5.7556,1610
5.7583,1593
5.7611,1576
5.7639,1546
5.7667,1526
5.7694,1532
5.7722,1565
5.7750,1606
5.7778,1679
5.7806,1806
5.7833,1985
5.7861,2251
5.7889,2592
5.7917,3015
5.7944,3337
5.7972,3354
5.8000,3366
5.8028,3371
5.8056,3104
5.8083,2551
5.8111,1991
5.8139,1562
5.8167,1360
5.8194,1305
5.8222,1368
5.8250,1469
5.8278,1545
5.8306,1589
5.8333,1589
5.8361,1556
5.8389,1515
5.8417,1485
5.8444,1478
5.8472,1469
5.8500,1494
5.8528,1502
5.8556,1511
5.8583,1500
5.8611,1492
5.8639,1482
5.8667,1485
5.8694,1493
5.8722,1522
5.8750,1539
5.8778,1543
5.8806,1538
5.8833,1526
5.8861,1530
5.8889,1531
5.8917,1544
5.8944,1553
5.8972,1547
5.9000,1551
5.9028,1547
5.9056,1547
5.9083,1545
5.9111,1556
5.9139,1567
5.9167,1573
5.9194,1576
5.9222,1586
5.9250,1582
5.9278,1579
5.9306,1598
5.9333,1605
5.9361,1609
5.9389,1607
5.9417,1599
5.9444,1595
5.9472,1623
5.9500,1641
5.9528,1658
5.9556,1671
5.9583,1653
5.9611,1649
5.9639,1646
5.9667,1662
5.9694,1669
5.9722,1685
5.9750,1705
5.9778,1715
5.9806,1732
5.9833,1734
5.9861,1751
5.9889,1760
5.9917,1774
5.9944,1792
5.9972,1811
6.0000,1819
6.0028,1837
6.0056,1761
6.0083,1761
6.0111,1731
6.0139,1709
6.0167,1697
6.0194,1681
6.0222,1669
6.0250,1655
6.0278,1631
6.0306,1621
6.0333,1617
6.0361,1597
6.0389,1595
6.0417,1587
6.0444,1577
6.0472,1579
6.0500,1573
6.0528,1573
6.0556,1570
6.0583,1544
6.0611,1548
6.0639,1552
6.0667,1557
6.0694,1559
6.0722,1568
6.0750,1568
6.0778,1557
6.0806,1562
6.0833,1560
6.0861,1563
6.0889,1567
6.0917,1575
6.0944,1577
6.0972,1568
6.1000,1587
6.1028,1572
6.1056,1569
6.1083,1572
6.1111,1575
6.1139,1576
6.1167,1579
6.1194,1578
6.1222,1579
6.1250,1585
6.1278,1581
6.1306,1575
6.1333,1584
6.1361,1588
6.1389,1588
6.1417,1583
6.1444,1589
6.1472,1596
6.1500,1592
6.1528,1599
6.1556,1601
6.1583,1597
6.1611,1576
6.1639,1574
6.1667,1581
6.1694,1577
6.1722,1575
6.1750,1581
6.1778,1593
6.1806,1585
6.1833,1580
6.1861,1575
6.1889,1574
6.1917,1572
6.1944,1570
6.1972,1578
6.2000,1583
6.2028,1582
6.2056,1586
6.2083,1575
6.2111,1576
6.2139,1565
6.2167,1568
6.2194,1557
6.2222,1547
6.2250,1542
6.2278,1543
6.2306,1534
6.2333,1554
6.2361,1553
6.2389,1551
6.2417,1559
6.2444,1559
6.2472,1562
6.2500,1553
6.2528,1550
6.2556,1552
6.2583,1557
6.2611,1559
6.2639,1559
6.2667,1551
6.2694,1545
6.2722,1552
6.2750,1549
6.2778,1562
6.2806,1565
6.2833,1556
6.2861,1555
6.2889,1546
6.2917,1544
6.2944,1548
6.2972,1551
6.3000,1542
6.3028,1547
6.3056,1545
6.3083,1555
6.3111,1565
6.3139,1560
6.3167,1568
6.3194,1557
6.3222,1559
6.3250,1555
6.3278,1550
6.3306,1556
6.3333,1559
6.3361,1555
6.3389,1567
6.3417,1557
6.3444,1575
6.3472,1559
6.3500,1556
6.3528,1545
6.3556,1547
6.3583,1554
6.3611,1549
6.3639,1546
6.3667,1543
6.3694,1544
6.3722,1545
6.3750,1545
6.3778,1545
6.3806,1554
6.3833,1558
6.3861,1561
6.3889,1560
6.3917,1573
6.3944,1565
6.3972,1559
6.4000,1569
6.4028,1585
6.4056,1589
6.4083,1594
6.4111,1607
6.4139,1637
6.4167,1655
6.4194,1659
6.4222,1658
6.4250,1621
6.4278,1605
6.4306,1594
6.4333,1591
6.4361,1602
6.4389,1607
6.4417,1633
6.4444,1659
6.4472,1675
6.4500,1692
6.4528,1698
6.4556,1705
6.4583,1685
6.4611,1648
6.4639,1623
6.4667,1603
6.4694,1600
6.4722,1590
6.4750,1585
6.4778,1564
6.4806,1541
6.4833,1522
6.4861,1522
6.4889,1524
6.4917,1524
6.4944,1521
6.4972,1503
6.5000,1495
6.5028,1486
6.5056,1489
6.5083,1492
6.5111,1504
6.5139,1501
6.5167,1502
6.5194,1484
6.5222,1468
6.5250,1445
6.5278,1420
6.5306,1406
6.5333,1400
6.5361,1413
6.5389,1435
6.5417,1549
6.5444,1711
6.5472,1933
6.5500,2267
6.5528,2684
6.5556,3106
6.5583,3343
6.5611,3359
6.5639,3372
6.5667,3328
6.5694,2881
6.5722,2212
6.5750,1629
6.5778,1264
6.5806,1126
6.5833,1175
6.5861,1288
6.5889,1408
6.5917,1479
6.5944,1500
6.5972,1463
6.6000,1423
6.6028,1384
6.6056,1380
6.6083,1360
6.6111,1360
6.6139,1377
6.6167,1376
6.6194,1372
6.6222,1367
6.6250,1367
6.6278,1373
6.6306,1386
6.6333,1392
6.6361,1404
6.6389,1395
6.6417,1386
6.6444,1376
6.6472,1366
6.6500,1378
6.6528,1377
6.6556,1390
6.6583,1404
6.6611,1405
6.6639,1399
6.6667,1402
6.6694,1406
6.6722,1419
6.6750,1431
6.6778,1449
6.6806,1457
6.6833,1432
6.6861,1429
6.6889,1422
6.6917,1437
6.6944,1455
6.6972,1487
6.7000,1497
6.7028,1496
6.7056,1487
6.7083,1474
6.7111,1483
6.7139,1499
6.7167,1514
6.7194,1529
6.7222,1534
6.7250,1534
6.7278,1536
6.7306,1543
6.7333,1560
6.7361,1568
6.7389,1591
6.7417,1608
6.7444,1607
6.7472,1616
6.7500,1635
6.7528,1656
6.7556,1663
6.7583,1675
6.7611,1703
6.7639,1715
6.7667,1735
6.7694,1629
6.7722,1636
6.7750,1609
6.7778,1580
6.7806,1558
6.7833,1530
6.7861,1504
6.7889,1511
6.7917,1514
6.7944,1518
6.7972,1508
6.8000,1493
6.8028,1481
6.8056,1468
6.8083,1454
6.8111,1449
6.8139,1448
6.8167,1443
6.8194,1442
6.8222,1437
6.8250,1440
6.8278,1440
6.8306,1452
6.8333,1457
6.8361,1452
6.8389,1458
6.8417,1449
6.8444,1440
6.8472,1443
6.8500,1446
6.8528,1447
6.8556,1457
6.8583,1470
6.8611,1476
6.8639,1471
6.8667,1469
6.8694,1468
6.8722,1458
6.8750,1471
6.8778,1478
6.8806,1472
6.8833,1487
6.8861,1471
6.8889,1461
6.8917,1470
6.8944,1484
6.8972,1489
6.9000,1488
6.9028,1488
6.9056,1495
6.9083,1501
6.9111,1503
6.9139,1519
6.9167,1522
6.9194,1519
6.9222,1513
6.9250,1510
6.9278,1497
6.9306,1493
6.9333,1498
6.9361,1512
6.9389,1510
6.9417,1511
6.9444,1511
6.9472,1512
6.9500,1506
6.9528,1496
6.9556,1500
6.9583,1494
6.9611,1498
6.9639,1506
6.9667,1508
6.9694,1508
6.9722,1508
6.9750,1510
6.9778,1507
6.9806,1501
6.9833,1504
6.9861,1507
6.9889,1509
6.9917,1516
6.9944,1521
6.9972,1517
7.0000,1525
7.0028,1523
7.0056,1515
7.0083,1520
7.0111,1523
7.0139,1541
7.0167,1552
7.0194,1544
7.0222,1526
7.0250,1517
7.0278,1515
7.0306,1523
7.0333,1535
7.0361,1552
7.0389,1544
7.0417,1544
7.0444,1538
7.0472,1536
7.0500,1527
7.0528,1521
7.0556,1531
7.0583,1541
7.0611,1539
7.0639,1539
7.0667,1548
7.0694,1558
7.0722,1548
7.0750,1553
7.0778,1547
7.0806,1551
7.0833,1554
7.0861,1571
7.0889,1584
7.0917,1579
7.0944,1588
7.0972,1578
7.1000,1570
7.1028,1576
7.1056,1574
7.1083,1587
7.1111,1592
7.1139,1602
7.1167,1616
7.1194,1617
7.1222,1622
7.1250,1613
7.1278,1609
7.1306,1612
7.1333,1613
7.1361,1610
7.1389,1618
7.1417,1617
7.1444,1615
7.1472,1610
7.1500,1605
7.1528,1594
7.1556,1598
7.1583,1609
7.1611,1622
7.1639,1635
7.1667,1633
7.1694,1629
7.1722,1629
7.1750,1634
7.1778,1644
7.1806,1657
7.1833,1651
7.1861,1634
7.1889,1630
7.1917,1638
7.1944,1648
7.1972,1658
7.2000,1665
7.2028,1676
7.2056,1694
7.2083,1707
7.2111,1726
7.2139,1752
7.2167,1759
7.2194,1771
7.2222,1775
7.2250,1760
7.2278,1748
7.2306,1729
7.2333,1708
7.2361,1715
7.2389,1736
7.2417,1771
7.2444,1802
7.2472,1831
7.2500,1845
7.2528,1863
7.2556,1854
7.2583,1840
7.2611,1814
7.2639,1784
7.2667,1756
7.2694,1751
7.2722,1761
7.2750,1753
7.2778,1750
7.2806,1744
7.2833,1730
7.2861,1710
7.2889,1692
7.2917,1673
7.2944,1664
7.2972,1664
7.3000,1684
7.3028,1710
7.3056,1723
7.3083,1718
7.3111,1705
7.3139,1709
7.3167,1712
7.3194,1714
7.3222,1681
7.3250,1646
7.3278,1631
7.3306,1600
7.3333,1605
7.3361,1632
7.3389,1641
7.3417,1696
7.3444,1826
7.3472,2006
7.3500,2263
7.3528,2636
7.3556,3074
7.3583,3355
7.3611,3357
7.3639,3371
7.3667,3378
7.3694,3335
7.3722,2919
7.3750,2296
7.3778,1781
7.3806,1474
7.3833,1388
7.3861,1442
7.3889,1552
7.3917,1656
7.3944,1702
7.3972,1717
7.4000,1694
7.4028,1640
7.4056,1612
7.4083,1596
7.4111,1604
7.4139,1607
7.4167,1611
7.4194,1632
7.4222,1641
7.4250,1635
7.4278,1624
7.4306,1616
7.4333,1626
7.4361,1635
7.4389,1661
7.4417,1666
7.4444,1666
7.4472,1644
7.4500,1634
7.4528,1622
7.4556,1632
7.4583,1658
7.4611,1670
7.4639,1684
7.4667,1669
7.4694,1647
7.4722,1656
7.4750,1667
7.4778,1694
7.4806,1696
7.4833,1707
7.4861,1709
7.4889,1709
7.4917,1708
7.4944,1714
7.4972,1722
7.5000,1724
7.5028,1731
7.5056,1737
7.5083,1745
7.5111,1753
7.5139,1763
7.5167,1765
7.5194,1788
7.5222,1795
7.5250,1801
7.5278,1785
7.5306,1790
7.5333,1799
7.5361,1827
7.5389,1848
7.5417,1861
7.5444,1862
7.5472,1868
7.5500,1872
7.5528,1891
7.5556,1917
7.5583,1948
7.5611,1967
7.5639,1975
7.5667,1979
7.5694,1987
7.5722,1888
7.5750,1882
7.5778,1875
7.5806,1872
7.5833,1855
7.5861,1828
7.5889,1794
7.5917,1781
7.5944,1778
7.5972,1768
7.6000,1763
7.6028,1755
7.6056,1738
7.6083,1713
7.6111,1701
7.6139,1698
7.6167,1711
7.6194,1728
7.6222,1715
7.6250,1705
7.6278,1699
7.6306,1689
7.6333,1697
7.6361,1692
7.6389,1704
7.6417,1703
7.6444,1706
7.6472,1702
7.6500,1702
7.6528,1703
7.6556,1702
7.6583,1714
7.6611,1711
7.6639,1716
7.6667,1699
7.6694,1687
7.6722,1693
7.6750,1700
7.6778,1725
7.6806,1739
7.6833,1743
7.6861,1741
7.6889,1722
7.6917,1713
7.6944,1716
7.6972,1726
7.7000,1729
7.7028,1724
7.7056,1730
7.7083,1728
7.7111,1731
7.7139,1733
7.7167,1723
7.7194,1734
7.7222,1745
7.7250,1742
7.7278,1747
7.7306,1747
7.7333,1746
7.7361,1736
7.7389,1733
7.7417,1737
7.7444,1750
7.7472,1731
7.7500,1738
7.7528,1743
7.7556,1741
7.7583,1735
7.7611,1727
7.7639,1707
7.7667,1703
7.7694,1707
7.7722,1710
7.7750,1710
7.7778,1720
7.7806,1736
7.7833,1740
7.7861,1730
7.7889,1726
7.7917,1717
7.7944,1718
7.7972,1718
7.8000,1725
7.8028,1720
7.8056,1711
7.8083,1723
7.8111,1715
7.8139,1706
7.8167,1705
7.8194,1713
7.8222,1707
7.8250,1716
7.8278,1716
7.8306,1712
7.8333,1714
7.8361,1726
7.8389,1732
7.8417,1724
7.8444,1716
7.8472,1719
7.8500,1718
7.8528,1712
7.8556,1714
7.8583,1724
7.8611,1737
7.8639,1737
7.8667,1728
7.8694,1718
7.8722,1725
7.8750,1726
7.8778,1747
7.8806,1731
7.8833,1713
7.8861,1699
7.8889,1700
7.8917,1718
7.8944,1729
7.8972,1733
7.9000,1734
7.9028,1723
7.9056,1720
7.9083,1717
7.9111,1726
7.9139,1745
7.9167,1747
7.9194,1737
7.9222,1736
7.9250,1741
7.9278,1740
7.9306,1748
7.9333,1757
7.9361,1761
7.9389,1741
7.9417,1735
7.9444,1735
7.9472,1735
7.9500,1742
7.9528,1755
7.9556,1769
7.9583,1773
7.9611,1766
7.9639,1748
7.9667,1756
7.9694,1758
7.9722,1750
7.9750,1745
7.9778,1755
7.9806,1758
7.9833,1747
7.9861,1746
7.9889,1739
7.9917,1746
7.9944,1763
7.9972,1761
8.0000,1758
8.0028,1754
8.0056,1755
8.0083,1755
8.0111,1762
8.0139,1774
8.0167,1768
8.0194,1768
8.0222,1780
8.0250,1765
8.0278,1763
8.0306,1769
8.0333,1775
8.0361,1773
8.0389,1785
8.0417,1786
8.0444,1791
8.0472,1814
8.0500,1827
8.0528,1849
8.0556,1860
8.0583,1877
8.0611,1881
8.0639,1881
8.0667,1864
8.0694,1856
8.0722,1840
8.0750,1826
8.0778,1837
8.0806,1853
8.0833,1891
8.0861,1914
8.0889,1940
8.0917,1966
8.0944,1973
8.0972,1960
8.1000,1942
8.1028,1925
8.1056,1896
8.1083,1869
8.1111,1855
8.1139,1840
8.1167,1833
8.1194,1822
8.1222,1797
8.1250,1779
8.1278,1778
8.1306,1772
8.1333,1770
8.1361,1771
8.1389,1773
8.1417,1767
8.1444,1768
8.1472,1768
8.1500,1776
8.1528,1772
8.1556,1764
8.1583,1762
8.1611,1758
8.1639,1740
8.1667,1716
8.1694,1691
8.1722,1676
8.1750,1686
8.1778,1704
8.1806,1755
8.1833,1808
8.1861,1893
8.1889,2018
8.1917,2209
8.1944,2499
8.1972,2883
8.2000,3280
8.2028,3360
8.2056,3369
8.2083,3377
8.2111,3348
8.2139,3066
8.2167,2536
8.2194,2044
8.2222,1691
8.2250,1504
8.2278,1472
8.2306,1524
8.2333,1601
8.2361,1663
8.2389,1698
8.2417,1696
8.2444,1672
8.2472,1634
8.2500,1599
8.2528,1602
8.2556,1612
8.2583,1642
8.2611,1658
8.2639,1665
8.2667,1660
8.2694,1652
8.2722,1634
8.2750,1625
8.2778,1620
8.2806,1639
8.2833,1654
8.2861,1675
8.2889,1679
8.2917,1671
8.2944,1661
8.2972,1657
8.3000,1665
8.3028,1668
8.3056,1678
8.3083,1672
8.3111,1676
8.3139,1672
8.3167,1677
8.3194,1689
8.3222,1703
8.3250,1720
8.3278,1720
8.3306,1713
8.3333,1707
8.3361,1725
8.3389,1737
8.3417,1733
8.3444,1734
8.3472,1740
8.3500,1730
8.3528,1725
8.3556,1738
8.3583,1753
8.3611,1769
8.3639,1786
8.3667,1795
8.3694,1801
8.3722,1807
8.3750,1796
8.3778,1811
8.3806,1824
8.3833,1850
8.3861,1859
8.3889,1860
8.3917,1866
8.3944,1876
8.3972,1886
8.4000,1911
8.4028,1926
8.4056,1958
8.4083,1970
8.4111,1982
8.4139,1878
8.4167,1875
8.4194,1878
8.4222,1860
8.4250,1836
8.4278,1808
8.4306,1772
8.4333,1756
8.4361,1734
8.4389,1728
8.4417,1729
8.4444,1720
8.4472,1694
8.4500,1671
8.4528,1657
8.4556,1651
8.4583,1656
8.4611,1656
8.4639,1658
8.4667,1643
8.4694,1631
8.4722,1628
8.4750,1636
8.4778,1633
8.4806,1651
8.4833,1663
8.4861,1662
8.4889,1649
8.4917,1633
8.4944,1644
8.4972,1642
8.5000,1639
8.5028,1641
8.5056,1637
8.5083,1630
8.5111,1632
8.5139,1630
8.5167,1622
8.5194,1629
8.5222,1641
8.5250,1644
8.5278,1660
8.5306,1654
8.5333,1651
8.5361,1644
8.5389,1639
8.5417,1647
8.5444,1647
8.5472,1655
8.5500,1644
8.5528,1640
8.5556,1640
8.5583,1643
8.5611,1643
8.5639,1649
8.5667,1647
8.5694,1651
8.5722,1635
8.5750,1638
8.5778,1639
8.5806,1635
8.5833,1624
8.5861,1614
8.5889,1610
8.5917,1600
8.5944,1603
8.5972,1601
8.6000,1606
8.6028,1613
8.6056,1608
8.6083,1613
8.6111,1609
8.6139,1611
8.6167,1608
8.6194,1608
8.6222,1611
8.6250,1604
8.6278,1602
8.6306,1602
8.6333,1595
8.6361,1593
8.6389,1604
8.6417,1615
8.6444,1618
8.6472,1615
8.6500,1604
8.6528,1599
8.6556,1592
8.6583,1575
8.6611,1590
8.6639,1589
8.6667,1584
8.6694,1581
8.6722,1576
8.6750,1583
8.6778,1593
8.6806,1593
8.6833,1590
8.6861,1585
8.6889,1598
8.6917,1594
8.6944,1591
8.6972,1596
8.7000,1590
8.7028,1580
8.7056,1587
8.7083,1580
8.7111,1578
8.7139,1575
8.7167,1581
8.7194,1586
8.7222,1601
8.7250,1595
8.7278,1598
8.7306,1597
8.7333,1597
8.7361,1586
8.7389,1581
8.7417,1583
8.7444,1595
8.7472,1599
8.7500,1598
8.7528,1587
8.7556,1584
8.7583,1586
8.7611,1583
8.7639,1578
8.7667,1582
8.7694,1579
8.7722,1587
8.7750,1590
8.7778,1611
8.7806,1615
8.7833,1625
8.7861,1623
8.7889,1607
8.7917,1590
8.7944,1581
8.7972,1564
8.8000,1559
8.8028,1567
8.8056,1564
8.8083,1579
8.8111,1586
8.8139,1596
8.8167,1604
8.8194,1613
8.8222,1613
8.8250,1600
8.8278,1597
8.8306,1575
8.8333,1568
8.8361,1573
8.8389,1583
8.8417,1579
8.8444,1599
8.8472,1609
8.8500,1623
8.8528,1639
8.8556,1649
8.8583,1668
8.8611,1678
8.8639,1665
8.8667,1651
8.8694,1630
8.8722,1626
8.8750,1628
8.8778,1640
8.8806,1678
8.8833,1714
8.8861,1738
8.8889,1747
8.8917,1741
8.8944,1736
8.8972,1730
8.9000,1712
8.9028,1683
8.9056,1664
8.9083,1640
8.9111,1632
8.9139,1623
8.9167,1614
8.9194,1580
8.9222,1556
8.9250,1534
8.9278,1514
8.9306,1510
8.9333,1512
8.9361,1511
8.9389,1501
8.9417,1506
8.9444,1496
8.9472,1489
8.9500,1490
8.9528,1490
8.9556,1484
8.9583,1491
8.9611,1497
8.9639,1495
8.9667,1487
8.9694,1451
8.9722,1420
8.9750,1421
8.9778,1421
8.9806,1466
8.9833,1527
8.9861,1621
8.9889,1758
8.9917,1938
8.9944,2184
8.9972,2532
9.0000,2919
9.0028,3275
9.0056,3350
9.0083,3357
9.0111,3228
9.0139,2820
9.0167,2259
9.0194,1752
9.0222,1389
9.0250,1206
9.0278,1165
9.0306,1204
9.0333,1303
9.0361,1384
9.0389,1436
9.0417,1441
9.0444,1403
9.0472,1355
9.0500,1318
9.0528,1322
9.0556,1340
9.0583,1359
9.0611,1363
9.0639,1363
9.0667,1348
9.0694,1342
9.0722,1344
9.0750,1353
9.0778,1360
9.0806,1358
9.0833,1371
9.0861,1381
9.0889,1373
9.0917,1371
9.0944,1376
9.0972,1373
9.1000,1381
9.1028,1383
9.1056,1382
9.1083,1381
9.1111,1380
9.1139,1401
9.1167,1406
9.1194,1415
9.1222,1418
9.1250,1402
9.1278,1404
9.1306,1418
9.1333,1423
9.1361,1425
9.1389,1429
9.1417,1423
9.1444,1437
9.1472,1441
9.1500,1446
9.1528,1457
9.1556,1470
9.1583,1474
9.1611,1499
9.1639,1499
9.1667,1506
9.1694,1501
9.1722,1509
9.1750,1507
9.1778,1522
9.1806,1525
9.1833,1540
9.1861,1559
9.1889,1569
9.1917,1584
9.1944,1604
9.1972,1612
9.2000,1615
9.2028,1631
9.2056,1629
9.2083,1646
9.2111,1671
9.2139,1657
9.2167,1655
9.2194,1635
9.2222,1603
9.2250,1573
9.2278,1545
9.2306,1522
9.2333,1502
9.2361,1480
9.2389,1472
9.2417,1477
9.2444,1475
9.2472,1471
9.2500,1464
9.2528,1450
9.2556,1454
9.2583,1444
9.2611,1439
9.2639,1429
9.2667,1430
9.2694,1427
9.2722,1419
9.2750,1416
9.2778,1410
9.2806,1414
9.2833,1412
9.2861,1417
9.2889,1410
9.2917,1421
9.2944,1442
9.2972,1444
9.3000,1446
9.3028,1448
9.3056,1450
9.3083,1465
9.3111,1468
9.3139,1481
9.3167,1480
9.3194,1488
9.3222,1479
9.3250,1468
9.3278,1472
9.3306,1479
9.3333,1491
9.3361,1491
9.3389,1495
9.3417,1485
9.3444,1485
9.3472,1492
9.3500,1490
9.3528,1499
9.3556,1492
9.3583,1506
9.3611,1501
9.3639,1503
9.3667,1505
9.3694,1501
9.3722,1505
9.3750,1507
9.3778,1493
9.3806,1508
9.3833,1508
9.3861,1511
9.3889,1517
9.3917,1524
9.3944,1517
9.3972,1513
9.4000,1506
9.4028,1497
9.4056,1493
9.4083,1490
9.4111,1502
9.4139,1516
9.4167,1524
9.4194,1519
9.4222,1514
9.4250,1517
9.4278,1515
9.4306,1512
9.4333,1532
9.4361,1533
9.4389,1525
9.4417,1514
9.4444,1526
9.4472,1520
9.4500,1534
9.4528,1526
9.4556,1530
9.4583,1536
9.4611,1547
9.4639,1551
9.4667,1542
9.4694,1541
9.4722,1550
9.4750,1554
9.4778,1550
9.4806,1552
9.4833,1556
9.4861,1558
9.4889,1559
9.4917,1556
9.4944,1558
9.4972,1568
9.5000,1569
9.5028,1575
9.5056,1572
9.5083,1573
9.5111,1571
9.5139,1586
9.5167,1590
9.5194,1602
9.5222,1598
9.5250,1585
9.5278,1580
9.5306,1582
9.5333,1583
9.5361,1579
9.5389,1582
9.5417,1585
9.5444,1594
9.5472,1596
9.5500,1597
9.5528,1590
9.5556,1589
9.5583,1594
9.5611,1609
9.5639,1621
9.5667,1611
9.5694,1605
9.5722,1602
9.5750,1621
9.5778,1622
9.5806,1619
9.5833,1615
9.5861,1611
9.5889,1612
9.5917,1617
9.5944,1626
9.5972,1625
9.6000,1623
9.6028,1624
9.6056,1626
9.6083,1630
9.6111,1640
9.6139,1639
9.6167,1629
9.6194,1633
9.6222,1626
9.6250,1622
9.6278,1630
9.6306,1633
9.6333,1652
9.6361,1662
9.6389,1662
9.6417,1658
9.6444,1658
9.6472,1653
9.6500,1652
9.6528,1659
9.6556,1676
9.6583,1698
9.6611,1721
9.6639,1745
9.6667,1758
9.6694,1760
9.6722,1766
9.6750,1760
9.6778,1757
9.6806,1743
9.6833,1717
9.6861,1690
9.6889,1697
9.6917,1720
9.6944,1758
9.6972,1796
9.7000,1817
9.7028,1823
9.7056,1832
9.7083,1818
9.7111,1799
9.7139,1771
9.7167,1745
9.7194,1733
9.7222,1739
9.7250,1733
9.7278,1721
9.7306,1712
9.7333,1702
9.7361,1685
9.7389,1675
9.7417,1660
9.7444,1646
9.7472,1650
9.7500,1654
9.7528,1653
9.7556,1659
9.7583,1669
9.7611,1664
9.7639,1666
9.7667,1679
9.7694,1677
9.7722,1671
9.7750,1647
9.7778,1619
9.7806,1585
9.7833,1563
9.7861,1564
9.7889,1595
9.7917,1630
9.7944,1707
9.7972,1849
9.8000,2016
9.8028,2290
9.8056,2648
9.8083,3090
9.8111,3356
9.8139,3360
9.8167,3376
9.8194,3370
9.8222,3337
9.8250,2895
9.8278,2258
9.8306,1709
9.8333,1390
9.8361,1285
9.8389,1349
9.8417,1476
9.8444,1583
9.8472,1650
9.8500,1664
9.8528,1631
9.8556,1593
9.8583,1553
9.8611,1538
9.8639,1535
9.8667,1557
9.8694,1573
9.8722,1582
9.8750,1589
9.8778,1580
9.8806,1564
9.8833,1559
9.8861,1562
9.8889,1584
9.8917,1597
9.8944,1614
9.8972,1608
9.9000,1597
9.9028,1595
9.9056,1604
9.9083,1618
9.9111,1639
9.9139,1650
9.9167,1647
9.9194,1634
9.9222,1620
9.9250,1625
9.9278,1646
9.9306,1671
9.9333,1693
9.9361,1697
9.9389,1687
9.9417,1669
9.9444,1677
9.9472,1680
9.9500,1703
9.9528,1713
9.9556,1722
9.9583,1718
9.9611,1704
9.9639,1703
9.9667,1709
9.9694,1725
9.9722,1747
9.9750,1769
9.9778,1775
9.9806,1777
9.9833,1777
9.9861,1775
9.9889,1798
9.9917,1808
9.9944,1824
9.9972,1835
10.0000,1841
10.0028,1847
10.0056,1866
10.0083,1898
10.0111,1914
10.0139,1939
10.0167,1953
10.0194,1966
10.0222,1969
10.0250,1891
10.0278,1897
10.0306,1884
10.0333,1871
10.0361,1846
10.0389,1817
10.0417,1788
10.0444,1755
10.0472,1747
10.0500,1750
10.0528,1757
10.0556,1745
10.0583,1746
10.0611,1721
10.0639,1708
10.0667,1704
10.0694,1699
10.0722,1707
10.0750,1699
10.0778,1696
10.0806,1691
10.0833,1689
10.0861,1695
10.0889,1697
10.0917,1690
10.0944,1678
10.0972,1682
10.1000,1678
10.1028,1686
10.1056,1688
10.1083,1689
10.1111,1707
10.1139,1702
10.1167,1716
10.1194,1709
10.1222,1707
10.1250,1700
10.1278,1708
10.1306,1714
10.1333,1736
10.1361,1727
10.1389,1717
10.1417,1723
10.1444,1714
10.1472,1723
10.1500,1731
10.1528,1728
10.1556,1740
10.1583,1731
10.1611,1730
10.1639,1718
10.1667,1732
10.1694,1743
10.1722,1749
10.1750,1743
10.1778,1748
10.1806,1734
10.1833,1723
10.1861,1718
10.1889,1725
10.1917,1727
10.1944,1734
10.1972,1743
10.2000,1746
10.2028,1745
10.2056,1740
10.2083,1737
10.2111,1722
10.2139,1722
10.2167,1731
10.2194,1721
10.2222,1722
10.2250,1730
10.2278,1741
10.2306,1747
10.2333,1751
10.2361,1734
10.2389,1725
10.2417,1726
10.2444,1728
10.2472,1737
10.2500,1743
10.2528,1738
10.2556,1733
10.2583,1729
10.2611,1726
10.2639,1741
10.2667,1731
10.2694,1732
10.2722,1741
10.2750,1738
10.2778,1725
10.2806,1728
10.2833,1727
10.2861,1728
10.2889,1735
10.2917,1734
10.2944,1738
10.2972,1732
10.3000,1719
10.3028,1721
10.3056,1732
10.3083,1727
10.3111,1745
10.3139,1745
10.3167,1730
10.3194,1735
10.3222,1718
10.3250,1727
10.3278,1727
10.3306,1737
10.3333,1731
10.3361,1737
10.3389,1742
10.3417,1739
10.3444,1744
10.3472,1729
10.3500,1729
10.3528,1736
10.3556,1742
10.3583,1741
10.3611,1762
10.3639,1771
10.3667,1757
10.3694,1749
10.3722,1745
10.3750,1736
10.3778,1733
10.3806,1732
10.3833,1745
10.3861,1744
10.3889,1743
10.3917,1743
10.3944,1739
10.3972,1743
10.4000,1741
10.4028,1743
10.4056,1743
10.4083,1744
10.4111,1745
10.4139,1747
10.4167,1741
10.4194,1739
10.4222,1741
10.4250,1732
10.4278,1741
10.4306,1753
10.4333,1743
10.4361,1732
10.4389,1736
10.4417,1739
10.4444,1745
10.4472,1742
10.4500,1740
10.4528,1764
10.4556,1766
10.4583,1764
10.4611,1765
10.4639,1759
10.4667,1768
10.4694,1763
10.4722,1758
10.4750,1757
10.4778,1759
10.4806,1761
10.4833,1760
10.4861,1759
10.4889,1767
10.4917,1773
10.4944,1770
10.4972,1783
10.5000,1774
10.5028,1785
10.5056,1776
10.5083,1771
10.5111,1783
10.5139,1801
10.5167,1795
10.5194,1809
10.5222,1823
10.5250,1853
10.5278,1866
10.5306,1877
10.5333,1881
10.5361,1872
10.5389,1850
10.5417,1856
10.5444,1838
10.5472,1839
10.5500,1848
10.5528,1875
10.5556,1895
10.5583,1917
10.5611,1919
10.5639,1933
10.5667,1924
10.5694,1918
10.5722,1903
10.5750,1887
10.5778,1860
10.5806,1847
10.5833,1830
10.5861,1822
10.5889,1820
10.5917,1827
10.5944,1803
10.5972,1783
10.6000,1770
10.6028,1757
10.6056,1758
10.6083,1748
10.6111,1753
10.6139,1757
10.6167,1758
10.6194,1756
10.6222,1742
10.6250,1740
10.6278,1735
10.6306,1728
10.6333,1727
10.6361,1717
10.6389,1706
10.6417,1675
10.6444,1660
10.6472,1658
10.6500,1660
10.6528,1669
10.6556,1715
10.6583,1851
10.6611,2008
10.6639,2261
10.6667,2614
10.6694,3037
10.6722,3350
10.6750,3362
10.6778,3373
10.6806,3380
10.6833,3381
10.6861,3197
10.6889,2593
10.6917,1946
10.6944,1519
10.6972,1359
10.7000,1386
10.7028,1495
10.7056,1595
10.7083,1669
10.7111,1704
10.7139,1688
10.7167,1657
10.7194,1641
10.7222,1612
10.7250,1597
10.7278,1588
10.7306,1606
10.7333,1634
10.7361,1647
10.7389,1635
10.7417,1607
10.7444,1576
10.7472,1575
10.7500,1591
10.7528,1621
10.7556,1657
10.7583,1657
10.7611,1647
10.7639,1625
10.7667,1625
10.7694,1631
10.7722,1651
10.7750,1672
10.7778,1678
10.7806,1666
10.7833,1648
10.7861,1630
10.7889,1638
10.7917,1669
10.7944,1691
10.7972,1713
10.8000,1713
10.8028,1701
10.8056,1683
10.8083,1684
10.8111,1706
10.8139,1730
10.8167,1745
10.8194,1734
10.8222,1720
10.8250,1712
10.8278,1719
10.8306,1729
10.8333,1752
10.8361,1774
10.8389,1778
10.8417,1777
10.8444,1771
10.8472,1773
10.8500,1783
10.8528,1802
10.8556,1831
10.8583,1843
10.8611,1853
10.8639,1837
10.8667,1848
10.8694,1874
10.8722,1908
10.8750,1927
10.8778,1940
10.8806,1947
10.8833,1952
10.8861,1864
10.8889,1866
10.8917,1859
10.8944,1855
10.8972,1845
10.9000,1816
10.9028,1765
10.9056,1737
10.9083,1726
10.9111,1730
10.9139,1740
10.9167,1725
10.9194,1707
10.9222,1680
10.9250,1663
10.9278,1648
10.9306,1649
10.9333,1654
10.9361,1663
10.9389,1649
10.9417,1644
10.9444,1638
10.9472,1630
10.9500,1640
10.9528,1653
10.9556,1652
10.9583,1661
10.9611,1647
10.9639,1638
10.9667,1632
10.9694,1640
10.9722,1649
10.9750,1667
10.9778,1677
10.9806,1667
10.9833,1653
10.9861,1633
10.9889,1624
10.9917,1630
10.9944,1641
10.9972,1650
11.0000,1658
11.0028,1644
11.0056,1649
11.0083,1656
11.0111,1669
11.0139,1684
11.0167,1677
11.0194,1676
11.0222,1664
11.0250,1661
11.0278,1656
11.0306,1659
11.0333,1661
11.0361,1660
11.0389,1662
11.0417,1667
11.0444,1668
11.0472,1667
11.0500,1665
11.0528,1674
11.0556,1666
11.0583,1667
11.0611,1662
11.0639,1648
11.0667,1652
11.0694,1641
11.0722,1660
11.0750,1660
11.0778,1668
11.0806,1658
11.0833,1647
11.0861,1639
11.0889,1644
11.0917,1663
11.0944,1668
11.0972,1651
11.1000,1650
11.1028,1650
11.1056,1651
11.1083,1650
11.1111,1645
11.1139,1644
11.1167,1644
11.1194,1638
11.1222,1634
11.1250,1632
11.1278,1646
11.1306,1648
11.1333,1642
11.1361,1640
11.1389,1649
11.1417,1645
11.1444,1645
11.1472,1640
11.1500,1643
11.1528,1646
11.1556,1641
11.1583,1638
11.1611,1621
11.1639,1621
11.1667,1608
11.1694,1626
11.1722,1638
11.1750,1649
11.1778,1672
11.1806,1673
11.1833,1663
11.1861,1650
11.1889,1646
11.1917,1640
11.1944,1645
11.1972,1659
11.2000,1666
11.2028,1653
11.2056,1659
11.2083,1675
11.2111,1674
11.2139,1668
11.2167,1670
11.2194,1653
11.2222,1644
11.2250,1649
11.2278,1650
11.2306,1656
11.2333,1659
11.2361,1659
11.2389,1657
11.2417,1655
11.2444,1633
11.2472,1637
11.2500,1647
11.2528,1671
11.2556,1684
11.2583,1682
11.2611,1691
11.2639,1689
11.2667,1696
11.2694,1695
11.2722,1681
11.2750,1670
11.2778,1657
11.2806,1658
11.2833,1665
11.2861,1678
11.2889,1684
11.2917,1680
11.2944,1679
11.2972,1691
11.3000,1675
11.3028,1663
11.3056,1657
11.3083,1665
11.3111,1667
11.3139,1666
11.3167,1675
11.3194,1678
11.3222,1684
11.3250,1694
11.3278,1689
11.3306,1690
11.3333,1688
11.3361,1688
11.3389,1681
11.3417,1673
11.3444,1676
11.3472,1683
11.3500,1687
11.3528,1688
11.3556,1687
11.3583,1686
11.3611,1685
11.3639,1687
11.3667,1695
11.3694,1692
11.3722,1680
11.3750,1687
11.3778,1686
11.3806,1686
11.3833,1686
11.3861,1697
11.3889,1708
11.3917,1710
11.3944,1730
11.3972,1754
11.4000,1771
11.4028,1783
11.4056,1782
11.4083,1787
11.4111,1799
11.4139,1792
11.4167,1770
11.4194,1765
11.4222,1767
11.4250,1783
11.4278,1802
11.4306,1827
11.4333,1845
11.4361,1860
11.4389,1861
11.4417,1846
11.4444,1817
11.4472,1802
11.4500,1774
11.4528,1771
11.4556,1753
11.4583,1754
11.4611,1735
11.4639,1702
11.4667,1672
11.4694,1638
11.4722,1613
11.4750,1630
11.4778,1657
11.4806,1664
11.4833,1665
11.4861,1650
11.4889,1630
11.4917,1633
11.4944,1636
11.4972,1635
11.5000,1622
11.5028,1619
11.5056,1638
11.5083,1643
11.5111,1611
11.5139,1576
11.5167,1555
11.5194,1548
11.5222,1557
11.5250,1555
11.5278,1571
11.5306,1671
11.5333,1832
11.5361,2081
11.5389,2429
11.5417,2854
11.5444,3242
11.5472,3355
11.5500,3365
11.5528,3371
11.5556,3368
11.5583,3040
11.5611,2387
11.5639,1772
11.5667,1385
11.5694,1242
11.5722,1283
11.5750,1407
11.5778,1521
11.5806,1608
11.5833,1627
11.5861,1609
11.5889,1567
11.5917,1540
11.5944,1514
11.5972,1484
11.6000,1475
11.6028,1497
11.6056,1521
11.6083,1530
11.6111,1517
11.6139,1487
11.6167,1491
11.6194,1486
11.6222,1509
11.6250,1518
11.6278,1537
11.6306,1533
11.6333,1523
11.6361,1518
11.6389,1525
11.6417,1538
11.6444,1551
11.6472,1564
11.6500,1559
11.6528,1560
11.6556,1544
11.6583,1532
11.6611,1535
11.6639,1555
11.6667,1565
11.6694,1557
11.6722,1555
11.6750,1543
11.6778,1551
11.6806,1560
11.6833,1582
11.6861,1598
11.6889,1594
11.6917,1595
11.6944,1577
11.6972,1572
11.7000,1561
11.7028,1591
11.7056,1627
11.7083,1643
11.7111,1637
11.7139,1623
11.7167,1631
11.7194,1644
11.7222,1674
11.7250,1683
11.7278,1700
11.7306,1698
11.7333,1696
11.7361,1688
11.7389,1683
11.7417,1701
11.7444,1733
11.7472,1761
11.7500,1779
11.7528,1809
11.7556,1817
11.7583,1730
11.7611,1725
11.7639,1698
11.7667,1671
11.7694,1654
11.7722,1638
11.7750,1632
11.7778,1616
11.7806,1614
11.7833,1587
11.7861,1569
11.7889,1556
11.7917,1548
11.7944,1529
11.7972,1523
11.8000,1513
11.8028,1509
11.8056,1512
11.8083,1505
11.8111,1496
11.8139,1487
11.8167,1483
11.8194,1495
11.8222,1489
11.8250,1497
11.8278,1510
11.8306,1504
11.8333,1485
11.8361,1470
11.8389,1470
11.8417,1474
11.8444,1478
11.8472,1488
11.8500,1498
11.8528,1509
11.8556,1502
11.8583,1498
11.8611,1492
11.8639,1473
11.8667,1477
11.8694,1492
11.8722,1499
11.8750,1493
11.8778,1485
11.8806,1499
11.8833,1512
11.8861,1517
11.8889,1536
11.8917,1543
11.8944,1530
11.8972,1514
11.9000,1512
11.9028,1523
11.9056,1520
11.9083,1519
11.9111,1518
11.9139,1522
11.9167,1519
11.9194,1511
11.9222,1509
11.9250,1510
11.9278,1514
11.9306,1514
11.9333,1509
11.9361,1508
11.9389,1504
11.9417,1506
11.9444,1512
11.9472,1523
11.9500,1524
11.9528,1511
11.9556,1490
11.9583,1480
11.9611,1464
11.9639,1474
11.9667,1492
11.9694,1505
11.9722,1495
11.9750,1492
11.9778,1494
11.9806,1488
11.9833,1501
11.9861,1514
11.9889,1516
11.9917,1513
11.9944,1505
11.9972,1493
12.0000,1494
12.0028,1484
12.0056,1487
12.0083,1477
12.0111,1485
12.0139,1487
12.0167,1482
12.0194,1489
12.0222,1489
12.0250,1496
12.0278,1498
12.0306,1498
12.0333,1491
12.0361,1482
12.0389,1489
12.0417,1489
12.0444,1490
12.0472,1483
12.0500,1481
12.0528,1480
12.0556,1493
12.0583,1493
12.0611,1494
12.0639,1487
12.0667,1501
12.0694,1508
12.0722,1507
12.0750,1503
12.0778,1507
12.0806,1502
12.0833,1502
12.0861,1500
12.0889,1497
12.0917,1496
12.0944,1509
12.0972,1515
12.1000,1525
12.1028,1529
12.1056,1537
12.1083,1535
12.1111,1523
12.1139,1521
12.1167,1511
12.1194,1506
12.1222,1518
12.1250,1528
12.1278,1529
12.1306,1533
12.1333,1532
12.1361,1518
12.1389,1525
12.1417,1520
12.1444,1515
12.1472,1520
12.1500,1514
12.1528,1520
12.1556,1519
12.1583,1522
12.1611,1533
12.1639,1535
12.1667,1549
12.1694,1554
12.1722,1558
12.1750,1547
12.1778,1534
12.1806,1539
12.1833,1545
12.1861,1550
12.1889,1554
12.1917,1562
12.1944,1549
12.1972,1542
12.2000,1539
12.2028,1533
12.2056,1550
12.2083,1560
12.2111,1561
12.2139,1573
12.2167,1558
12.2194,1560
12.2222,1562
12.2250,1553
12.2278,1557
12.2306,1550
12.2333,1553
12.2361,1547
12.2389,1553
12.2417,1568
12.2444,1573
12.2472,1590
12.2500,1604
12.2528,1632
12.2556,1660
12.2583,1677
12.2611,1701
12.2639,1697
12.2667,1685
12.2694,1683
12.2722,1670
12.2750,1646
12.2778,1638
12.2806,1652
12.2833,1671
12.2861,1699
12.2889,1721
12.2917,1745
12.2944,1755
12.2972,1758
12.3000,1755
12.3028,1733
12.3056,1727
12.3083,1702
12.3111,1676
12.3139,1657
12.3167,1638
12.3194,1614
12.3222,1613
12.3250,1598
12.3278,1595
12.3306,1577
12.3333,1573
12.3361,1562
12.3389,1566
12.3417,1567
12.3444,1573
12.3472,1585
12.3500,1591
12.3528,1581
12.3556,1582
12.3583,1580
12.3611,1580
12.3639,1573
12.3667,1566
12.3694,1537
12.3722,1508
12.3750,1480
12.3778,1459
12.3806,1464
12.3833,1465
12.3861,1509
12.3889,1626
12.3917,1798
12.3944,2041
12.3972,2405
12.4000,2852
12.4028,3258
12.4056,3358
12.4083,3367
12.4111,3382
12.4139,3326
12.4167,2874
12.4194,2239
12.4222,1682
12.4250,1356
12.4278,1235
12.4306,1280
12.4333,1399
12.4361,1511
12.4389,1563
12.4417,1567
12.4444,1529
12.4472,1491
12.4500,1467
12.4528,1454
12.4556,1455
12.4583,1461
12.4611,1470
12.4639,1469
12.4667,1485
12.4694,1473
12.4722,1467
12.4750,1467
12.4778,1468
12.4806,1481
12.4833,1493
12.4861,1511
12.4889,1507
12.4917,1499
12.4944,1487
12.4972,1491
12.5000,1498
12.5028,1516
12.5056,1524
12.5083,1519
12.5111,1513
12.5139,1509
12.5167,1517
12.5194,1535
12.5222,1561
12.5250,1569
12.5278,1583
12.5306,1570
12.5333,1566
12.5361,1552
12.5389,1549
12.5417,1567
12.5444,1590
12.5472,1611
12.5500,1624
12.5528,1622
12.5556,1613
12.5583,1603
12.5611,1603
12.5639,1625
12.5667,1653
12.5694,1648
12.5722,1638
12.5750,1647
12.5778,1661
12.5806,1677
12.5833,1713
12.5861,1734
12.5889,1758
12.5917,1765
12.5944,1748
12.5972,1748
12.6000,1753
12.6028,1779
12.6056,1798
12.6083,1816
12.6111,1824
12.6139,1830
12.6167,1812
12.6194,1813
12.6222,1816
12.6250,1792
12.6278,1763
12.6306,1727
12.6333,1695
12.6361,1687
12.6389,1672
12.6417,1670
12.6444,1651
12.6472,1644
12.6500,1628
12.6528,1607
12.6556,1596
12.6583,1603
12.6611,1593
12.6639,1599
12.6667,1609
12.6694,1606
12.6722,1589
12.6750,1587
12.6778,1589
12.6806,1595
12.6833,1611
12.6861,1605
12.6889,1601
12.6917,1603
12.6944,1602
12.6972,1605
12.7000,1618
12.7028,1642
12.7056,1646
12.7083,1642
12.7111,1629
12.7139,1620
12.7167,1624
12.7194,1624
12.7222,1630
12.7250,1631
12.7278,1638
12.7306,1637
12.7333,1632
12.7361,1636
12.7389,1631
12.7417,1641
12.7444,1633
12.7472,1637
12.7500,1626
12.7528,1611
12.7556,1615
12.7583,1625
12.7611,1641
12.7639,1632
12.7667,1631
12.7694,1642
12.7722,1634
12.7750,1636
12.7778,1636
12.7806,1639
12.7833,1641
12.7861,1640
12.7889,1640
12.7917,1629
12.7944,1623
12.7972,1628
12.8000,1633
12.8028,1641
12.8056,1643
12.8083,1641
12.8111,1638
12.8139,1641
12.8167,1641
12.8194,1636
12.8222,1638
12.8250,1636
12.8278,1643
12.8306,1636
12.8333,1639
12.8361,1640
12.8389,1648
12.8417,1653
12.8444,1650
12.8472,1647
12.8500,1634
12.8528,1636
12.8556,1637
12.8583,1647
12.8611,1655
12.8639,1671
12.8667,1684
12.8694,1669
12.8722,1661
12.8750,1655
12.8778,1638
12.8806,1645
12.8833,1669
12.8861,1686
12.8889,1680
12.8917,1680
12.8944,1683
12.8972,1676
12.9000,1664
12.9028,1665
12.9056,1662
12.9083,1653
12.9111,1654
12.9139,1661
12.9167,1667
12.9194,1667
12.9222,1675
12.9250,1678
12.9278,1681
12.9306,1672
12.9333,1667
12.9361,1666
12.9389,1687
12.9417,1696
12.9444,1699
12.9472,1719
12.9500,1713
12.9528,1709
12.9556,1701
12.9583,1707
12.9611,1706
12.9639,1702
12.9667,1696
12.9694,1694
12.9722,1697
12.9750,1685
12.9778,1693
12.9806,1695
12.9833,1706
12.9861,1712
12.9889,1719
12.9917,1716
12.9944,1721
12.9972,1708
13.0000,1718
13.0028,1722
13.0056,1725
13.0083,1747
13.0111,1733
13.0139,1728
13.0167,1718
13.0194,1710
13.0222,1701
13.0250,1711
13.0278,1715
13.0306,1714
13.0333,1725
13.0361,1735
13.0389,1741
13.0417,1756
13.0444,1757
13.0472,1748
13.0500,1751
13.0528,1743
13.0556,1736
13.0583,1739
13.0611,1748
13.0639,1760
13.0667,1777
13.0694,1771
13.0722,1775
13.0750,1780
13.0778,1783
13.0806,1817
13.0833,1841
13.0861,1866
13.0889,1873
13.0917,1882
13.0944,1886
13.0972,1875
13.1000,1862
13.1028,1846
13.1056,1817
13.1083,1814
13.1111,1829
13.1139,1850
13.1167,1893
13.1194,1925
13.1222,1945
13.1250,1960
13.1278,1962
13.1306,1945
13.1333,1928
13.1361,1919
13.1389,1901
13.1417,1862
13.1444,1852
13.1472,1838
13.1500,1824
13.1528,1802
13.1556,1780
13.1583,1770
13.1611,1766
13.1639,1768
13.1667,1770
13.1694,1756
13.1722,1749
13.1750,1759
13.1778,1758
13.1806,1765
13.1833,1760
13.1861,1756
13.1889,1745
13.1917,1753
13.1944,1737
13.1972,1719
13.2000,1699
13.2028,1690
13.2056,1687
13.2083,1705
13.2111,1732
13.2139,1773
13.2167,1853
13.2194,1987
13.2222,2189
13.2250,2472
13.2278,2836
13.2306,3232
13.2333,3355
13.2361,3361
13.2389,3377
13.2417,3370
13.2444,3182
13.2472,2704
13.2500,2193
13.2528,1806
13.2556,1583
13.2583,1504
13.2611,1533
13.2639,1608
13.2667,1668
13.2694,1694
13.2722,1689
13.2750,1667
13.2778,1627
13.2806,1592
13.2833,1574
13.2861,1581
13.2889,1603
13.2917,1621
13.2944,1651
13.2972,1644
13.3000,1639
13.3028,1621
13.3056,1603
13.3083,1612
13.3111,1622
13.3139,1636
13.3167,1643
13.3194,1637
13.3222,1619
13.3250,1608
13.3278,1610
13.3306,1622
13.3333,1635
13.3361,1653
13.3389,1667
13.3417,1671
13.3444,1661
13.3472,1663
13.3500,1665
13.3528,1666
13.3556,1670
13.3583,1673
13.3611,1676
13.3639,1673
13.3667,1676
13.3694,1694
13.3722,1709
13.3750,1709
13.3778,1713
13.3806,1706
13.3833,1685
13.3861,1693
13.3889,1709
13.3917,1736
13.3944,1751
13.3972,1764
13.4000,1769
13.4028,1772
13.4056,1770
13.4083,1783
13.4111,1780
13.4139,1790
13.4167,1793
13.4194,1799
13.4222,1806
13.4250,1832
13.4278,1842
13.4306,1866
13.4333,1890
13.4361,1902
13.4389,1915
13.4417,1916
13.4444,1925
13.4472,1809
13.4500,1823
13.4528,1803
13.4556,1781
13.4583,1760
13.4611,1745
13.4639,1719
13.4667,1711
13.4694,1691
13.4722,1679
13.4750,1667
13.4778,1635
13.4806,1618
13.4833,1605
13.4861,1603
13.4889,1608
13.4917,1615
13.4944,1624
13.4972,1618
13.5000,1612
13.5028,1593
13.5056,1577
13.5083,1575
13.5111,1581
13.5139,1598
13.5167,1601
13.5194,1597
13.5222,1597
13.5250,1586
13.5278,1592
13.5306,1598
13.5333,1606
13.5361,1603
13.5389,1601
13.5417,1598
13.5444,1589
13.5472,1579
13.5500,1585
13.5528,1584
13.5556,1585
13.5583,1573
13.5611,1567
13.5639,1560
13.5667,1572
13.5694,1587
13.5722,1596
13.5750,1601
13.5778,1592
13.5806,1577
13.5833,1566
13.5861,1556
13.5889,1560
13.5917,1567
13.5944,1567
13.5972,1573
13.6000,1567
13.6028,1568
13.6056,1566
13.6083,1570
13.6111,1564
13.6139,1559
13.6167,1550
13.6194,1544
13.6222,1534
13.6250,1539
13.6278,1538
13.6306,1530
13.6333,1547
13.6361,1550
13.6389,1550
13.6417,1546
13.6444,1530
13.6472,1532
13.6500,1533
13.6528,1525
13.6556,1519
13.6583,1513
13.6611,1518
13.6639,1523
13.6667,1520
13.6694,1536
13.6722,1539
13.6750,1532
13.6778,1522
13.6806,1513
13.6833,1515
13.6861,1513
13.6889,1527
13.6917,1531
13.6944,1523
13.6972,1519
13.7000,1515
13.7028,1515
13.7056,1525
13.7083,1533
13.7111,1523
13.7139,1509
13.7167,1512
13.7194,1500
13.7222,1502
13.7250,1510
13.7278,1527
13.7306,1535
13.7333,1543
13.7361,1543
13.7389,1533
13.7417,1516
13.7444,1508
13.7472,1503
13.7500,1512
13.7528,1527
13.7556,1539
13.7583,1538
13.7611,1532
13.7639,1526
13.7667,1511
13.7694,1495
13.7722,1510
13.7750,1522
13.7778,1522
13.7806,1524
13.7833,1521
13.7861,1514
13.7889,1512
13.7917,1498
13.7944,1508
13.7972,1515
13.8000,1524
13.8028,1520
13.8056,1513
13.8083,1508
13.8111,1515
13.8139,1527
13.8167,1530
13.8194,1529
13.8222,1530
13.8250,1534
13.8278,1539
13.8306,1544
13.8333,1549
13.8361,1559
13.8389,1573
13.8417,1576
13.8444,1594
13.8472,1623
13.8500,1655
13.8528,1668
13.8556,1655
13.8583,1619
13.8611,1581
13.8639,1544
13.8667,1551
13.8694,1579
13.8722,1612
13.8750,1649
13.8778,1691
13.8806,1720
13.8833,1716
13.8861,1713
13.8889,1698
13.8917,1673
13.8944,1650
13.8972,1630
13.9000,1613
13.9028,1607
13.9056,1598
13.9083,1583
13.9111,1570
13.9139,1564
13.9167,1561
13.9194,1552
13.9222,1540
13.9250,1542
13.9278,1543
13.9306,1541
13.9333,1556
13.9361,1549
13.9389,1557
13.9417,1558
13.9444,1555
13.9472,1555
13.9500,1522
13.9528,1500
13.9556,1472
13.9583,1457
13.9611,1468
13.9639,1491
13.9667,1513
13.9694,1569
13.9722,1688
13.9750,1856
13.9778,2093
13.9806,2436
13.9833,2870
13.9861,3281
13.9889,3355
13.9917,3365
13.9944,3365
13.9972,3261
14.0000,2767
14.0028,2145
14.0056,1647
14.0083,1345
14.0111,1254
14.0139,1295
14.0167,1403
14.0194,1490
14.0222,1558
14.0250,1576
14.0278,1544
14.0306,1487
14.0333,1453
14.0361,1450
14.0389,1451
14.0417,1475
14.0444,1488
14.0472,1501
14.0500,1504
14.0528,1494
14.0556,1482
14.0583,1468
14.0611,1470
14.0639,1485
14.0667,1497
14.0694,1502
14.0722,1514
14.0750,1511
14.0778,1520
14.0806,1512
14.0833,1529
14.0861,1546
14.0889,1547
14.0917,1543
14.0944,1539
14.0972,1543
14.1000,1547
14.1028,1553
14.1056,1569
14.1083,1582
14.1111,1590
14.1139,1582
14.1167,1588
14.1194,1586
14.1222,1593
14.1250,1612
14.1278,1616
14.1306,1630
14.1333,1626
14.1361,1633
14.1389,1643
14.1417,1658
14.1444,1669
14.1472,1672
14.1500,1674
14.1528,1680
14.1556,1680
14.1583,1702
14.1611,1723
14.1639,1732
14.1667,1750
14.1694,1749
14.1722,1765
14.1750,1765
14.1778,1784
14.1806,1797
14.1833,1817
14.1861,1841
14.1889,1854
14.1917,1870
14.1944,1884
14.1972,1899
14.2000,1849
14.2028,1855
14.2056,1829
14.2083,1812
14.2111,1799
14.2139,1776
14.2167,1746
14.2194,1723
14.2222,1710
14.2250,1701
14.2278,1701
14.2306,1694
14.2333,1687
14.2361,1671
14.2389,1663
14.2417,1651
14.2444,1651
14.2472,1653
14.2500,1651
14.2528,1654
14.2556,1654
14.2583,1656
14.2611,1658
14.2639,1661
14.2667,1672
14.2694,1667
14.2722,1665
14.2750,1659
14.2778,1663
14.2806,1677
14.2833,1680
14.2861,1682
14.2889,1688
14.2917,1693
14.2944,1673
14.2972,1672
14.3000,1676
14.3028,1696
14.3056,1708
14.3083,1708
14.3111,1694
14.3139,1702
14.3167,1703
14.3194,1714
14.3222,1716
14.3250,1714
14.3278,1715
14.3306,1715
14.3333,1710
14.3361,1709
14.3389,1714
14.3417,1725
14.3444,1738
14.3472,1731
14.3500,1732
14.3528,1730
14.3556,1734
14.3583,1733
14.3611,1734
14.3639,1731
14.3667,1728
14.3694,1727
14.3722,1729
14.3750,1736
14.3778,1729
14.3806,1732
14.3833,1728
14.3861,1728
14.3889,1726
14.3917,1722
14.3944,1715
14.3972,1715
14.4000,1718
14.4028,1725
14.4056,1739
14.4083,1730
14.4111,1730
14.4139,1736
14.4167,1727
14.4194,1732
14.4222,1728
14.4250,1745
14.4278,1738
14.4306,1746
14.4333,1740
14.4361,1727
14.4389,1726
14.4417,1727
14.4444,1749
14.4472,1760
14.4500,1753
14.4528,1755
14.4556,1747
14.4583,1747
14.4611,1738
14.4639,1756
14.4667,1749
14.4694,1755
14.4722,1751
14.4750,1735
14.4778,1716
14.4806,1712
14.4833,1711
14.4861,1728
14.4889,1761
14.4917,1775
14.4944,1775
14.4972,1764
14.5000,1757
14.5028,1749
14.5056,1759
14.5083,1761
14.5111,1755
14.5139,1747
14.5167,1744
14.5194,1750
14.5222,1758
14.5250,1766
14.5278,1781
14.5306,1780
14.5333,1780
14.5361,1782
14.5389,1782
14.5417,1770
14.5444,1770
14.5472,1768
14.5500,1764
14.5528,1760
14.5556,1760
14.5583,1776
14.5611,1778
14.5639,1775
14.5667,1773
14.5694,1760
14.5722,1759
14.5750,1757
14.5778,1766
14.5806,1764
14.5833,1770
14.5861,1777
14.5889,1777
14.5917,1774
14.5944,1774
14.5972,1757
14.6000,1745
14.6028,1734
14.6056,1741
14.6083,1754
14.6111,1778
14.6139,1796
14.6167,1813
14.6194,1813
14.6222,1818
14.6250,1813
14.6278,1824
14.6306,1836
14.6333,1872
14.6361,1889
14.6389,1876
14.6417,1858
14.6444,1829
14.6472,1814
14.6500,1802
14.6528,1793
14.6556,1806
14.6583,1835
14.6611,1891
14.6639,1938
14.6667,1954
14.6694,1957
14.6722,1934
14.6750,1909
14.6778,1871
14.6806,1826
14.6833,1798
14.6861,1809
14.6889,1827
14.6917,1849
14.6944,1855
14.6972,1838
14.7000,1826
14.7028,1803
14.7056,1781
14.7083,1763
14.7111,1765
14.7139,1761
14.7167,1762
14.7194,1778
14.7222,1776
14.7250,1755
14.7278,1734
14.7306,1724
14.7333,1717
14.7361,1724
14.7389,1721
14.7417,1716
14.7444,1690
14.7472,1658
14.7500,1639
14.7528,1642
14.7556,1666
14.7583,1716
14.7611,1813
14.7639,1973
14.7667,2201
14.7694,2538
14.7722,2965
14.7750,3340
14.7778,3355
14.7806,3363
14.7833,3389
14.7861,3383
14.7889,3229
14.7917,2680
14.7944,2065
14.7972,1628
14.8000,1440
14.8028,1442
14.8056,1531
14.8083,1615
14.8111,1670
14.8139,1688
14.8167,1671
14.8194,1629
14.8222,1594
14.8250,1579
14.8278,1568
14.8306,1576
14.8333,1592
14.8361,1608
14.8389,1620
14.8417,1629
14.8444,1606
14.8472,1595
14.8500,1572
14.8528,1588
14.8556,1611
14.8583,1643
14.8611,1654
14.8639,1656
14.8667,1640
14.8694,1626
14.8722,1613
14.8750,1606
14.8778,1614
14.8806,1627
14.8833,1643
14.8861,1643
14.8889,1639
14.8917,1628
14.8944,1633
14.8972,1658
14.9000,1666
14.9028,1678
14.9056,1673
14.9083,1672
14.9111,1680
14.9139,1696
14.9167,1704
14.9194,1713
14.9222,1711
14.9250,1698
14.9278,1697
14.9306,1710
14.9333,1743
14.9361,1752
14.9389,1766
14.9417,1757
14.9444,1767
14.9472,1764
14.9500,1756
14.9528,1777
14.9556,1796
14.9583,1822
14.9611,1839
14.9639,1849
14.9667,1857
14.9694,1869
14.9722,1891
14.9750,1907
14.9778,1929
14.9806,1950
14.9833,1965
14.9861,1968
14.9889,1967
14.9917,1901
14.9944,1909
14.9972,1907
15.0000,1892
15.0028,1863
15.0056,1835
15.0083,1803
15.0111,1783
15.0139,1782
15.0167,1787
15.0194,1790
15.0222,1792
15.0250,1775
15.0278,1767
15.0306,1739
15.0333,1743
15.0361,1745
15.0389,1753
15.0417,1757
15.0444,1744
15.0472,1732
15.0500,1738
15.0528,1732
15.0556,1724
15.0583,1728
15.0611,1723
15.0639,1714
15.0667,1719
15.0694,1713
15.0722,1715
15.0750,1741
15.0778,1755
15.0806,1769
15.0833,1775
15.0861,1762
15.0889,1751
15.0917,1749
15.0944,1754
15.0972,1769
15.1000,1777
15.1028,1775
15.1056,1770
15.1083,1764
15.1111,1770
15.1139,1766
15.1167,1772
15.1194,1776
15.1222,1780
15.1250,1779
15.1278,1757
15.1306,1764
15.1333,1759
15.1361,1765
15.1389,1772
15.1417,1775
15.1444,1786
15.1472,1776
15.1500,1783
15.1528,1786
15.1556,1797
15.1583,1790
15.1611,1787
15.1639,1779
15.1667,1771
15.1694,1773
15.1722,1773
15.1750,1783
15.1778,1799
15.1806,1798
15.1833,1793
15.1861,1783
15.1889,1770
15.1917,1766
15.1944,1770
15.1972,1762
15.2000,1752
15.2028,1765
15.2056,1776
15.2083,1779
15.2111,1779
15.2139,1763
15.2167,1762
15.2194,1766
15.2222,1759
15.2250,1768
15.2278,1762
15.2306,1744
15.2333,1747
15.2361,1755
15.2389,1756
15.2417,1749
15.2444,1756
15.2472,1755
15.2500,1760
15.2528,1768
15.2556,1776
15.2583,1783
15.2611,1783
15.2639,1762
15.2667,1746
15.2694,1744
15.2722,1735
15.2750,1745
15.2778,1745
15.2806,1746
15.2833,1747
15.2861,1766
15.2889,1766
15.2917,1771
15.2944,1773
15.2972,1772
15.3000,1764
15.3028,1762
15.3056,1769
15.3083,1767
15.3111,1767
15.3139,1777
15.3167,1768
15.3194,1765
15.3222,1762
15.3250,1757
15.3278,1763
15.3306,1771
15.3333,1780
15.3361,1762
15.3389,1762
15.3417,1763
15.3444,1767
15.3472,1759
15.3500,1767
15.3528,1771
15.3556,1774
15.3583,1787
15.3611,1781
15.3639,1766
15.3667,1748
15.3694,1743
15.3722,1734
15.3750,1748
15.3778,1772
15.3806,1787
15.3833,1784
15.3861,1773
15.3889,1781
15.3917,1760
15.3944,1763
15.3972,1763
15.4000,1775
15.4028,1788
15.4056,1796
15.4083,1794
15.4111,1797
15.4139,1794
15.4167,1810
15.4194,1824
15.4222,1840
15.4250,1852
15.4278,1853
15.4306,1839
15.4333,1837
15.4361,1838
15.4389,1817
15.4417,1796
15.4444,1772
15.4472,1780
15.4500,1819
15.4528,1869
15.4556,1909
15.4583,1945
15.4611,1925
15.4639,1914
15.4667,1888
15.4694,1870
15.4722,1851
15.4750,1828
15.4778,1822
15.4806,1834
15.4833,1825
15.4861,1810
15.4889,1788
15.4917,1778
15.4944,1766
15.4972,1745
15.5000,1733
15.5028,1726
15.5056,1716
15.5083,1718
15.5111,1725
15.5139,1737
15.5167,1740
15.5194,1740
15.5222,1737
15.5250,1712
15.5278,1720
15.5306,1701
15.5333,1688
15.5361,1662
15.5389,1647
15.5417,1663
15.5444,1684
15.5472,1735
15.5500,1825
15.5528,1945
15.5556,2124
15.5583,2376
15.5611,2730
15.5639,3132
15.5667,3347
15.5694,3354
15.5722,3367
15.5750,3369
15.5778,3256
15.5806,2780
15.5833,2214
15.5861,1763
15.5889,1504
15.5917,1433
15.5944,1480
15.5972,1579
15.6000,1656
15.6028,1713
15.6056,1706
15.6083,1674
15.6111,1618
15.6139,1577
15.6167,1568
15.6194,1559
15.6222,1571
15.6250,1584
15.6278,1593
15.6306,1572
15.6333,1574
15.6361,1584
15.6389,1582
15.6417,1593
15.6444,1599
15.6472,1610
15.6500,1619
15.6528,1605
15.6556,1597
15.6583,1587
15.6611,1581
15.6639,1585
15.6667,1602
15.6694,1634
15.6722,1643
15.6750,1639
15.6778,1626
15.6806,1635
15.6833,1650
15.6861,1670
15.6889,1652
15.6917,1640
15.6944,1636
15.6972,1635
15.7000,1640
15.7028,1645
15.7056,1673
15.7083,1684
15.7111,1700
15.7139,1713
15.7167,1682
15.7194,1689
15.7222,1684
15.7250,1704
15.7278,1716
15.7306,1739
15.7333,1754
15.7361,1758
15.7389,1762
15.7417,1758
15.7444,1776
15.7472,1790
15.7500,1802
15.7528,1807
15.7556,1807
15.7583,1815
15.7611,1827
15.7639,1864
15.7667,1885
15.7694,1887
15.7722,1884
15.7750,1889
15.7778,1903
15.7806,1826
15.7833,1823
15.7861,1813
15.7889,1789
15.7917,1771
15.7944,1750
15.7972,1725
15.8000,1699
15.8028,1695
15.8056,1673
15.8083,1657
15.8111,1631
15.8139,1628
15.8167,1620
15.8194,1626
15.8222,1626
15.8250,1627
15.8278,1623
15.8306,1619
15.8333,1614
15.8361,1620
15.8389,1638
15.8417,1646
15.8444,1651
15.8472,1648
15.8500,1626
15.8528,1622
15.8556,1616
15.8583,1607
15.8611,1605
15.8639,1610
15.8667,1616
15.8694,1630
15.8722,1644
15.8750,1645
15.8778,1639
15.8806,1626
15.8833,1630
15.8861,1626
15.8889,1623
15.8917,1633
15.8944,1633
15.8972,1646
15.9000,1668
15.9028,1656
15.9056,1625
15.9083,1626
15.9111,1612
15.9139,1619
15.9167,1611
15.9194,1622
15.9222,1646
15.9250,1668
15.9278,1685
15.9306,1676
15.9333,1669
15.9361,1665
15.9389,1646
15.9417,1637
15.9444,1635
15.9472,1638
15.9500,1653
15.9528,1650
15.9556,1651
15.9583,1655
15.9611,1651
15.9639,1652
15.9667,1657
15.9694,1643
15.9722,1626
15.9750,1609
15.9778,1607
15.9806,1618
15.9833,1625
15.9861,1621
15.9889,1613
15.9917,1607
15.9944,1609
15.9972,1600
16.0000,1593
16.0028,1603
16.0056,1608
16.0083,1611
16.0111,1622
16.0139,1630
16.0167,1620
16.0194,1614
16.0222,1608
16.0250,1614
16.0278,1596
16.0306,1591
16.0333,1581
16.0361,1591
16.0389,1611
16.0417,1623
16.0444,1634
16.0472,1626
16.0500,1612
16.0528,1596
16.0556,1586
16.0583,1588
16.0611,1587
16.0639,1595
16.0667,1583
16.0694,1596
16.0722,1597
16.0750,1598
16.0778,1610
16.0806,1619
16.0833,1612
16.0861,1610
16.0889,1609
16.0917,1613
16.0944,1602
16.0972,1607
16.1000,1617
16.1028,1614
16.1056,1604
16.1083,1586
16.1111,1580
16.1139,1592
16.1167,1601
16.1194,1610
16.1222,1592
16.1250,1596
16.1278,1589
16.1306,1585
16.1333,1590
16.1361,1591
16.1389,1607
16.1417,1607
16.1444,1601
16.1472,1601
16.1500,1603
16.1528,1607
16.1556,1592
16.1583,1591
16.1611,1586
16.1639,1579
16.1667,1589
16.1694,1593
16.1722,1593
16.1750,1596
16.1778,1583
16.1806,1580
16.1833,1582
16.1861,1591
16.1889,1618
16.1917,1614
16.1944,1607
16.1972,1587
16.2000,1550
16.2028,1536
16.2056,1552
16.2083,1580
16.2111,1611
16.2139,1632
16.2167,1629
16.2194,1652
16.2222,1654
16.2250,1656
16.2278,1658
16.2306,1643
16.2333,1629
16.2361,1598
16.2389,1589
16.2417,1600
16.2444,1631
16.2472,1667
16.2500,1697
16.2528,1721
16.2556,1722
16.2583,1708
16.2611,1703
16.2639,1699
16.2667,1697
16.2694,1685
16.2722,1663
16.2750,1628
16.2778,1588
16.2806,1572
16.2833,1554
16.2861,1548
16.2889,1542
16.2917,1539
16.2944,1523
16.2972,1512
16.3000,1504
16.3028,1490
16.3056,1509
16.3083,1520
16.3111,1497
16.3139,1483
16.3167,1471
16.3194,1465
16.3222,1471
16.3250,1470
16.3278,1459
16.3306,1437
16.3333,1416
16.3361,1424
16.3389,1418
16.3417,1423
16.3444,1443
16.3472,1499
16.3500,1618
16.3528,1819
16.3556,2115
16.3583,2510
16.3611,2932
16.3639,3325
16.3667,3351
16.3694,3368
16.3722,3358
16.3750,3073
16.3778,2497
16.3806,1893
16.3833,1448
16.3861,1215
16.3889,1161
16.3917,1218
16.3944,1317
16.3972,1388
16.4000,1448
16.4028,1437
16.4056,1382
16.4083,1336
16.4111,1300
16.4139,1291
16.4167,1293
16.4194,1294
16.4222,1295
16.4250,1289
16.4278,1262
16.4306,1254
16.4333,1276
16.4361,1290
16.4389,1304
16.4417,1312
16.4444,1318
16.4472,1316
16.4500,1315
16.4528,1303
16.4556,1311
16.4583,1302
16.4611,1319
16.4639,1320
16.4667,1340
16.4694,1354
16.4722,1358
16.4750,1361
16.4778,1354
16.4806,1347
16.4833,1343
16.4861,1357
16.4889,1354
16.4917,1352
16.4944,1341
16.4972,1330
16.5000,1344
16.5028,1362
16.5056,1380
16.5083,1390
16.5111,1401
16.5139,1402
16.5167,1394
16.5194,1403
16.5222,1420
16.5250,1438
16.5278,1438
16.5306,1433
16.5333,1426
16.5361,1438
16.5389,1448
16.5417,1463
16.5444,1473
16.5472,1492
16.5500,1509
16.5528,1520
16.5556,1768
16.5583,1768
16.5611,1777
16.5639,1758
16.5667,1742
16.5694,1712
16.5722,1682
16.5750,1666
16.5778,1656
16.5806,1635
16.5833,1608
16.5861,1606
16.5889,1590
16.5917,1564
16.5944,1550
16.5972,1559
16.6000,1576
16.6028,1574
16.6056,1557
16.6083,1516
16.6111,1459
16.6139,1453
16.6167,1484
16.6194,1516
16.6222,1508
16.6250,1476
16.6278,1436
16.6306,1408
16.6333,1430
16.6361,1470
16.6389,1496
16.6417,1513
16.6444,1523
16.6472,1514
16.6500,1517
16.6528,1510
16.6556,1511
16.6583,1512
16.6611,1515
16.6639,1528
16.6667,1539
16.6694,1529
16.6722,1482
16.6750,1444
16.6778,1409
16.6806,1425
16.6833,1482
16.6861,1537
16.6889,1559
16.6917,1571
16.6944,1573
16.6972,1562
16.7000,1559
16.7028,1552
16.7056,1572
16.7083,1587
16.7111,1601
16.7139,1582
16.7167,1573
16.7194,1572
16.7222,1581
16.7250,1601
16.7278,1597
16.7306,1584
16.7333,1570
16.7361,1563
16.7389,1572
16.7417,1591
16.7444,1600
16.7472,1571
16.7500,1538
16.7528,1528
16.7556,1552
16.7583,1586
16.7611,1609
16.7639,1609
16.7667,1624
16.7694,1626
16.7722,1617
16.7750,1607
16.7778,1580
16.7806,1572
16.7833,1575
16.7861,1594
16.7889,1617
16.7917,1635
16.7944,1615
16.7972,1609
16.8000,1608
16.8028,1615
16.8056,1611
16.8083,1609
16.8111,1606
16.8139,1611
16.8167,1609
16.8194,1608
16.8222,1609
16.8250,1608
16.8278,1606
16.8306,1616
16.8333,1620
16.8361,1628
16.8389,1616
16.8417,1605
16.8444,1616
16.8472,1634
16.8500,1645
16.8528,1633
16.8556,1613
16.8583,1606
16.8611,1608
16.8639,1617
16.8667,1625
16.8694,1633
16.8722,1648
16.8750,1658
16.8778,1661
16.8806,1679
16.8833,1690
16.8861,1679
16.8889,1646
16.8917,1643
16.8944,1665
16.8972,1685
16.9000,1699
16.9028,1703
16.9056,1706
16.9083,1702
16.9111,1698
16.9139,1694
16.9167,1717
16.9194,1753
16.9222,1777
16.9250,1781
16.9278,1767
16.9306,1735
16.9333,1725
16.9361,1703
16.9389,1701
16.9417,1725
16.9444,1753
16.9472,1785
16.9500,1792
16.9528,1788
16.9556,1777
16.9583,1779
16.9611,1777
16.9639,1786
16.9667,1790
16.9694,1801
16.9722,1789
16.9750,1779
16.9778,1767
16.9806,1775
16.9833,1782
16.9861,1801
16.9889,1809
16.9917,1810
16.9944,1805
16.9972,1802
17.0000,1802
17.0028,1804
17.0056,1814
17.0083,1838
17.0111,1856
17.0139,1874
17.0167,1888
17.0194,1898
17.0222,1912
17.0250,1918
17.0278,1930
17.0306,1928
17.0333,1903
17.0361,1886
17.0389,1855
17.0417,1838
17.0444,1870
17.0472,1926
17.0500,1988
17.0528,2025
17.0556,2056
17.0583,2049
17.0611,2045
17.0639,2006
17.0667,1995
17.0694,1960
17.0722,1953
17.0750,1938
17.0778,1926
17.0806,1909
17.0833,1903
17.0861,1892
17.0889,1879
17.0917,1873
17.0944,1868
17.0972,1858
17.1000,1865
17.1028,1875
17.1056,1884
17.1083,1874
17.1111,1865
17.1139,1853
17.1167,1857
17.1194,1863
17.1222,1864
17.1250,1865
17.1278,1854
17.1306,1839
17.1333,1818
17.1361,1808
17.1389,1811
17.1417,1839
17.1444,1858
17.1472,1920
17.1500,2041
17.1528,2241
17.1556,2532
17.1583,2910
17.1611,3317
17.1639,3352
17.1667,3370
17.1694,3382
17.1722,3378
17.1750,3371
17.1778,3133
17.1806,2613
17.1833,2076
17.1861,1732
17.1889,1600
17.1917,1604
17.1944,1686
17.1972,1752
17.2000,1789
17.2028,1784
17.2056,1774
17.2083,1747
17.2111,1728
17.2139,1722
17.2167,1706
17.2194,1705
17.2222,1711
17.2250,1725
17.2278,1740
17.2306,1735
17.2333,1709
17.2361,1691
17.2389,1683
17.2417,1699
17.2444,1733
17.2472,1753
17.2500,1764
17.2528,1739
17.2556,1711
17.2583,1692
17.2611,1708
17.2639,1726
17.2667,1745
17.2694,1750
17.2722,1739
17.2750,1714
17.2778,1690
17.2806,1694
17.2833,1710
17.2861,1740
17.2889,1754
17.2917,1737
17.2944,1716
17.2972,1714
17.3000,1721
17.3028,1746
17.3056,1761
17.3083,1772
17.3111,1754
17.3139,1722
17.3167,1718
17.3194,1744
17.3222,1764
17.3250,1792
17.3278,1817
17.3306,1817
17.3333,1804
17.3361,1787
17.3389,1789
17.3417,1796
17.3444,1823
17.3472,1833
17.3500,1853
17.3528,1861
17.3556,1857
17.3583,1875
17.3611,1882
17.3639,1909
17.3667,1932
17.3694,1944
17.3722,1942
17.3750,1937
17.3778,1790
17.3806,1804
17.3833,1790
17.3861,1795
17.3889,1781
17.3917,1757
17.3944,1732
17.3972,1706
17.4000,1672
17.4028,1671
17.4056,1658
17.4083,1651
17.4111,1635
17.4139,1605
17.4167,1577
17.4194,1574
17.4222,1572
17.4250,1598
17.4278,1594
17.4306,1593
17.4333,1583
17.4361,1576
17.4389,1567
17.4417,1573
17.4444,1589
17.4472,1597
17.4500,1593
17.4528,1575
17.4556,1568
17.4583,1557
17.4611,1555
17.4639,1557
17.4667,1579
17.4694,1592
17.4722,1595
17.4750,1586
17.4778,1562
17.4806,1561
17.4833,1562
17.4861,1563
17.4889,1565
17.4917,1578
17.4944,1565
17.4972,1564
17.5000,1565
17.5028,1572
17.5056,1578
17.5083,1565
17.5111,1563
17.5139,1560
17.5167,1558
17.5194,1562
17.5222,1568
17.5250,1564
17.5278,1562
17.5306,1555
17.5333,1554
17.5361,1555
17.5389,1568
17.5417,1559
17.5444,1566
17.5472,1567
17.5500,1557
17.5528,1552
17.5556,1521
17.5583,1507
17.5611,1512
17.5639,1530
17.5667,1550
17.5694,1554
17.5722,1553
17.5750,1539
17.5778,1534
17.5806,1509
17.5833,1493
17.5861,1501
17.5889,1512
17.5917,1511
17.5944,1519
17.5972,1524
17.6000,1538
17.6028,1534
17.6056,1531
17.6083,1530
17.6111,1520
17.6139,1505
17.6167,1502
17.6194,1504
17.6222,1518
17.6250,1515
17.6278,1509
17.6306,1511
17.6333,1506
17.6361,1499
17.6389,1500
17.6417,1495
17.6444,1496
17.6472,1494
17.6500,1499
17.6528,1500
17.6556,1509
17.6583,1509
17.6611,1511
17.6639,1503
17.6667,1508
17.6694,1509
17.6722,1494
17.6750,1481
17.6778,1468
17.6806,1479
17.6833,1486
17.6861,1508
17.6889,1508
17.6917,1511
17.6944,1506
17.6972,1498
17.7000,1496
17.7028,1488
17.7056,1491
17.7083,1500
17.7111,1507
17.7139,1524
17.7167,1526
17.7194,1529
17.7222,1530
17.7250,1538
17.7278,1532
17.7306,1513
17.7333,1504
17.7361,1503
17.7389,1512
17.7417,1518
17.7444,1525
17.7472,1531
17.7500,1526
17.7528,1511
17.7556,1503
17.7583,1510
17.7611,1520
17.7639,1544
17.7667,1552
17.7694,1537
17.7722,1528
17.7750,1525
17.7778,1503
17.7806,1501
17.7833,1512
17.7861,1531
17.7889,1561
17.7917,1564
17.7944,1549
17.7972,1533
17.8000,1531
17.8028,1528
17.8056,1551
17.8083,1563
17.8111,1573
17.8139,1578
17.8167,1574
17.8194,1576
17.8222,1576
17.8250,1586
17.8278,1604
17.8306,1616
17.8333,1613
17.8361,1621
17.8389,1645
17.8417,1663
17.8444,1660
17.8472,1639
17.8500,1606
17.8528,1573
17.8556,1572
17.8583,1583
17.8611,1626
17.8639,1662
17.8667,1716
17.8694,1745
17.8722,1747
17.8750,1746
17.8778,1722
17.8806,1700
17.8833,1681
17.8861,1667
17.8889,1653
17.8917,1669
17.8944,1670
17.8972,1656
17.9000,1638
17.9028,1617
17.9056,1601
17.9083,1574
17.9111,1569
17.9139,1557
17.9167,1555
17.9194,1558
17.9222,1571
17.9250,1581
17.9278,1592
17.9306,1584
17.9333,1585
17.9361,1584
17.9389,1577
17.9417,1575
17.9444,1571
17.9472,1554
17.9500,1541
17.9528,1522
17.9556,1520
17.9583,1529
17.9611,1545
17.9639,1591
17.9667,1672
17.9694,1819
17.9722,2050
17.9750,2398
17.9778,2832
17.9806,3260
17.9833,3348
17.9861,3373
17.9889,3376
17.9917,3348
17.9944,3022
17.9972,2441
18.0000,1868
18.0028,1488
18.0056,1312
18.0083,1295
18.0111,1384
18.0139,1484
18.0167,1555
18.0194,1590
18.0222,1580
18.0250,1531
18.0278,1490
18.0306,1461
18.0333,1460
18.0361,1480
18.0389,1494
18.0417,1504
18.0444,1511
18.0472,1512
18.0500,1493
18.0528,1488
18.0556,1485
18.0583,1497
18.0611,1519
18.0639,1528
18.0667,1540
18.0694,1528
18.0722,1536
18.0750,1537
18.0778,1542
18.0806,1556
18.0833,1573
18.0861,1569
18.0889,1561
18.0917,1557
18.0944,1564
18.0972,1563
18.1000,1566
18.1028,1580
18.1056,1598
18.1083,1606
18.1111,1605
18.1139,1607
18.1167,1618
18.1194,1627
18.1222,1641
18.1250,1629
18.1278,1636
18.1306,1622
18.1333,1626
18.1361,1626
18.1389,1630
18.1417,1655
18.1444,1680
18.1472,1696
18.1500,1707
18.1528,1698
18.1556,1695
18.1583,1694
18.1611,1715
18.1639,1739
18.1667,1766
18.1694,1779
18.1722,1793
18.1750,1795
18.1778,1824
18.1806,1832
18.1833,1844
18.1861,1866
18.1889,1881
18.1917,1881
18.1944,1796
18.1972,1800
18.2000,1780
18.2028,1767
18.2056,1744
18.2083,1721
18.2111,1690
18.2139,1663
18.2167,1648
18.2194,1639
18.2222,1631
18.2250,1629
18.2278,1608
18.2306,1589
18.2333,1579
18.2361,1586
18.2389,1599
18.2417,1620
18.2444,1618
18.2472,1610
18.2500,1598
18.2528,1579
18.2556,1579
18.2583,1572
18.2611,1581
18.2639,1576
18.2667,1571
18.2694,1559
18.2722,1542
18.2750,1542
18.2778,1549
18.2806,1560
18.2833,1577
18.2861,1573
18.2889,1563
18.2917,1542
18.2944,1541
18.2972,1546
18.3000,1568
18.3028,1579
18.3056,1569
18.3083,1557
18.3111,1555
18.3139,1548
18.3167,1548
18.3194,1547
18.3222,1546
18.3250,1569
18.3278,1561
18.3306,1560
18.3333,1555
18.3361,1556
18.3389,1568
18.3417,1570
18.3444,1565
18.3472,1550
18.3500,1534
18.3528,1532
18.3556,1534
18.3583,1540
18.3611,1556
18.3639,1564
18.3667,1564
18.3694,1555
18.3722,1550
18.3750,1531
18.3778,1529
18.3806,1531
18.3833,1552
18.3861,1552
18.3889,1552
18.3917,1534
18.3944,1510
18.3972,1509
18.4000,1513
18.4028,1519
18.4056,1516
18.4083,1517
18.4111,1509
18.4139,1503
18.4167,1485
18.4194,1493
18.4222,1505
18.4250,1514
18.4278,1505
18.4306,1508
18.4333,1497
18.4361,1486
18.4389,1484
18.4417,1485
18.4444,1486
18.4472,1475
18.4500,1476
18.4528,1476
18.4556,1487
18.4583,1497
18.4611,1496
18.4639,1485
18.4667,1460
18.4694,1444
18.4722,1454
18.4750,1467
18.4778,1477
18.4806,1474
18.4833,1488
18.4861,1484
18.4889,1475
18.4917,1462
18.4944,1466
18.4972,1460
18.5000,1443
18.5028,1442
18.5056,1448
18.5083,1448
18.5111,1435
18.5139,1435
18.5167,1433
18.5194,1434
18.5222,1440
18.5250,1433
18.5278,1440
18.5306,1429
18.5333,1438
18.5361,1443
18.5389,1452
18.5417,1444
18.5444,1440
18.5472,1430
18.5500,1439
18.5528,1444
18.5556,1448
18.5583,1453
18.5611,1454
18.5639,1454
18.5667,1432
18.5694,1434
18.5722,1445
18.5750,1446
18.5778,1450
18.5806,1444
18.5833,1445
18.5861,1443
18.5889,1437
18.5917,1427
18.5944,1421
18.5972,1409
18.6000,1415
18.6028,1411
18.6056,1419
18.6083,1434
18.6111,1452
18.6139,1454
18.6167,1449
18.6194,1439
18.6222,1460
18.6250,1504
18.6278,1523
18.6306,1515
18.6333,1536
18.6361,1544
18.6389,1519
18.6417,1488
18.6444,1466
18.6472,1441
18.6500,1458
18.6528,1503
18.6556,1549
18.6583,1589
18.6611,1605
18.6639,1595
18.6667,1584
18.6694,1554
18.6722,1524
18.6750,1502
18.6778,1489
18.6806,1472
18.6833,1469
18.6861,1467
18.6889,1449
18.6917,1437
18.6944,1422
18.6972,1401
18.7000,1398
18.7028,1390
18.7056,1382
18.7083,1357
18.7111,1352
18.7139,1356
18.7167,1372
18.7194,1385
18.7222,1393
18.7250,1390
18.7278,1375
18.7306,1355
18.7333,1341
18.7361,1323
18.7389,1292
18.7417,1267
18.7444,1277
18.7472,1312
18.7500,1358
18.7528,1432
18.7556,1541
18.7583,1697
18.7611,1910
18.7639,2215
18.7667,2600
18.7694,3001
18.7722,3314
18.7750,3342
18.7778,3284
18.7806,2963
18.7833,2452
18.7861,1927
18.7889,1519
18.7917,1252
18.7944,1126
18.7972,1131
18.8000,1203
18.8028,1293
18.8056,1343
18.8083,1341
18.8111,1292
18.8139,1229
18.8167,1162
18.8194,1131
18.8222,1132
18.8250,1165
18.8278,1213
18.8306,1233
18.8333,1254
18.8361,1266
18.8389,1263
18.8417,1249
18.8444,1223
18.8472,1210
18.8500,1201
18.8528,1204
18.8556,1219
18.8583,1226
18.8611,1219
18.8639,1204
18.8667,1217
18.8694,1258
18.8722,1291
18.8750,1296
18.8778,1300
18.8806,1292
18.8833,1291
18.8861,1277
18.8889,1255
18.8917,1243
18.8944,1245
18.8972,1267
18.9000,1274
18.9028,1286
18.9056,1289
18.9083,1291
18.9111,1281
18.9139,1267
18.9167,1272
18.9194,1297
18.9222,1319
18.9250,1322
18.9278,1319
18.9306,1309
18.9333,1319
18.9361,1313
18.9389,1322
18.9417,1328
18.9444,1357
18.9472,1379
18.9500,1397
18.9528,1408
18.9556,1400
18.9583,1429
18.9611,1432
18.9639,1443
18.9667,1450
18.9694,1463
18.9722,1471
18.9750,1457
18.9778,1455
18.9806,1435
18.9833,1442
18.9861,1428
18.9889,1423
18.9917,1411
18.9944,1379
18.9972,1351
19.0000,1337
19.0028,1348
19.0056,1342
19.0083,1326
19.0111,1292
19.0139,1277
19.0167,1283
19.0194,1279
19.0222,1278
19.0250,1276
19.0278,1280
19.0306,1289
19.0333,1255
19.0361,1209
19.0389,1167
19.0417,1162
19.0444,1191
19.0472,1242
19.0500,1264
19.0528,1276
19.0556,1269
19.0583,1258
19.0611,1255
19.0639,1250
19.0667,1248
19.0694,1252
19.0722,1286
19.0750,1322
19.0778,1349
19.0806,1345
19.0833,1336
19.0861,1314
19.0889,1302
19.0917,1289
19.0944,1314
19.0972,1365
19.1000,1430
19.1028,1478
19.1056,1471
19.1083,1400
19.1111,1330
19.1139,1322
19.1167,1352
19.1194,1397
19.1222,1442
19.1250,1481
19.1278,1466
19.1306,1442
19.1333,1430
19.1361,1432
19.1389,1465
19.1417,1502
19.1444,1529
19.1472,1501
19.1500,1497
19.1528,1502
19.1556,1493
19.1583,1514
19.1611,1526
19.1639,1542
19.1667,1567
19.1694,1589
19.1722,1578
19.1750,1548
19.1778,1517
19.1806,1491
19.1833,1474
19.1861,1476
19.1889,1537
19.1917,1589
19.1944,1606
19.1972,1586
19.2000,1550
19.2028,1548
19.2056,1586
19.2083,1619
19.2111,1630
19.2139,1633
19.2167,1629
19.2194,1636
19.2222,1646
19.2250,1652
19.2278,1664
19.2306,1660
19.2333,1675
19.2361,1669
19.2389,1649
19.2417,1637
19.2444,1643
19.2472,1661
19.2500,1702
19.2528,1699
19.2556,1699
19.2583,1699
19.2611,1708
19.2639,1724
19.2667,1733
19.2694,1754
19.2722,1760
19.2750,1753
19.2778,1750
19.2806,1739
19.2833,1742
19.2861,1739
19.2889,1743
19.2917,1781
19.2944,1805
19.2972,1820
19.3000,1838
19.3028,1838
19.3056,1820
19.3083,1810
19.3111,1796
19.3139,1809
19.3167,1836
19.3194,1857
19.3222,1848
19.3250,1832
19.3278,1840
19.3306,1848
19.3333,1870
19.3361,1878
19.3389,1902
19.3417,1934
19.3444,1936
19.3472,1934
19.3500,1895
19.3528,1865
19.3556,1844
19.3583,1856
19.3611,1877
19.3639,1909
19.3667,1926
19.3694,1940
19.3722,1932
19.3750,1938
19.3778,1938
19.3806,1931
19.3833,1945
19.3861,1965
19.3889,1987
19.3917,2014
19.3944,2025
19.3972,2018
19.4000,2036
19.4028,2044
19.4056,2075
19.4083,2069
19.4111,2057
19.4139,2021
19.4167,1999
19.4194,1994
19.4222,1998
19.4250,2035
19.4278,2084
19.4306,2122
19.4333,2147
19.4361,2188
19.4389,2206
19.4417,2201
19.4444,2165
19.4472,2117
19.4500,2100
19.4528,2095
19.4556,2097
19.4583,2108
19.4611,2094
19.4639,2084
19.4667,2082
19.4694,2079
19.4722,2061
19.4750,2030
19.4778,2008
19.4806,2007
19.4833,2048
19.4861,2075
19.4889,2089
19.4917,2074
19.4944,2056
19.4972,2047
19.5000,2055
19.5028,2040
19.5056,2023
19.5083,2003
19.5111,1988
19.5139,1975
19.5167,1963
19.5194,1947
19.5222,1940
19.5250,1961
19.5278,2012
19.5306,2123
19.5333,2313
19.5361,2574
19.5389,2965
19.5417,3355
19.5444,3354
19.5472,3375
19.5500,3382
19.5528,3384
19.5556,3377
19.5583,3366
19.5611,3333
19.5639,2981
19.5667,2485
19.5694,2076
19.5722,1885
19.5750,1865
19.5778,1911
19.5806,1953
19.5833,1994
19.5861,2001
19.5889,1988
19.5917,1970
19.5944,1953
19.5972,1921
19.6000,1874
19.6028,1854
19.6056,1892
19.6083,1925
19.6111,1948
19.6139,1952
19.6167,1945
19.6194,1933
19.6222,1919
19.6250,1962
19.6278,1985
19.6306,1995
19.6333,1983
19.6361,1957
19.6389,1923
19.6417,1925
19.6444,1937
19.6472,1963
19.6500,1980
19.6528,1999
19.6556,1968
19.6583,1917
19.6611,1899
19.6639,1940
19.6667,2002
19.6694,2035
19.6722,2039
19.6750,2008
19.6778,1974
19.6806,1951
19.6833,1967
19.6861,2008
19.6889,2042
19.6917,2071
19.6944,2052
19.6972,2019
19.7000,2001
19.7028,2026
19.7056,2039
19.7083,2071
19.7111,2080
19.7139,2060
19.7167,2050
19.7194,2038
19.7222,2029
19.7250,2049
19.7278,2086
19.7306,2122
19.7333,2125
19.7361,2114
19.7389,2114
19.7417,2149
19.7444,2188
19.7472,2224
19.7500,2233
19.7528,2226
19.7556,2231
19.7583,2225
19.7611,2233
19.7639,2098
19.7667,2111
19.7694,2095
19.7722,2077
19.7750,2064
19.7778,2067
19.7806,2037
19.7833,2007
19.7861,1994
19.7889,2009
19.7917,1998
19.7944,1986
19.7972,1975
19.8000,1950
19.8028,1944
19.8056,1937
19.8083,1954
19.8111,1978
19.8139,1976
19.8167,1963
19.8194,1935
19.8222,1913
19.8250,1911
19.8278,1912
19.8306,1930
19.8333,1953
19.8361,1981
19.8389,1985
19.8417,1971
19.8444,1953
19.8472,1933
19.8500,1941
19.8528,1948
19.8556,1948
19.8583,1944
19.8611,1941
19.8639,1951
19.8667,1961
19.8694,1943
19.8722,1927
19.8750,1924
19.8778,1932
19.8806,1938
19.8833,1938
19.8861,1954
19.8889,1969
19.8917,1971
19.8944,1961
19.8972,1961
19.9000,1963
19.9028,1975
19.9056,1983
19.9083,1997
19.9111,1994
19.9139,1981
19.9167,1945
19.9194,1925
19.9222,1919
19.9250,1935
19.9278,1955
19.9306,1955
19.9333,1953
19.9361,1928
19.9389,1924
19.9417,1913
19.9444,1886
19.9472,1895
19.9500,1936
19.9528,1975
19.9556,1983
19.9583,1958
19.9611,1942
19.9639,1926
19.9667,1925
19.9694,1919
19.9722,1924
19.9750,1911
19.9778,1885
19.9806,1886
19.9833,1888
19.9861,1893
19.9889,1902
19.9917,1917
19.9944,1929
19.9972,1911
20.0000,1902
20.0028,1904
20.0056,1896
20.0083,1894
20.0111,1888
20.0139,1870
20.0167,1862
20.0194,1860
20.0222,1881
20.0250,1891
20.0278,1881
20.0306,1881
20.0333,1885
20.0361,1889
20.0389,1895
20.0417,1910
20.0444,1910
20.0472,1911
20.0500,1894
20.0528,1874
20.0556,1860
20.0583,1840
20.0611,1843
20.0639,1859
20.0667,1876
20.0694,1885
20.0722,1884
20.0750,1869
20.0778,1863
20.0806,1848
20.0833,1860
20.0861,1870
20.0889,1870
20.0917,1885
20.0944,1881
20.0972,1882
20.1000,1865
20.1028,1846
20.1056,1846
20.1083,1846
20.1111,1841
20.1139,1841
20.1167,1837
20.1194,1834
20.1222,1825
20.1250,1825
20.1278,1829
20.1306,1833
20.1333,1832
20.1361,1833
20.1389,1826
20.1417,1823
20.1444,1806
20.1472,1805
20.1500,1830
20.1528,1855
20.1556,1844
20.1583,1830
20.1611,1810
20.1639,1807
20.1667,1805
20.1694,1813
20.1722,1817
20.1750,1822
20.1778,1814
20.1806,1821
20.1833,1839
20.1861,1834
20.1889,1820
20.1917,1788
20.1944,1768
20.1972,1763
20.2000,1785
20.2028,1810
20.2056,1806
20.2083,1806
20.2111,1794
20.2139,1823
20.2167,1852
20.2194,1861
20.2222,1874
20.2250,1868
20.2278,1869
20.2306,1845
20.2333,1830
20.2361,1809
20.2389,1777
20.2417,1775
20.2444,1799
20.2472,1844
20.2500,1897
20.2528,1934
20.2556,1949
20.2583,1942
20.2611,1933
20.2639,1922
20.2667,1889
20.2694,1842
20.2722,1820
20.2750,1797
20.2778,1810
20.2806,1786
20.2833,1758
20.2861,1742
20.2889,1750
20.2917,1751
20.2944,1758
20.2972,1750
20.3000,1736
20.3028,1739
20.3056,1744
20.3083,1751
20.3111,1748
20.3139,1728
20.3167,1694
20.3194,1681
20.3222,1684
20.3250,1715
20.3278,1723
20.3306,1700
20.3333,1656
20.3361,1626
20.3389,1619
20.3417,1620
20.3444,1626
20.3472,1654
20.3500,1752
20.3528,1933
20.3556,2242
20.3583,2640
20.3611,3085
20.3639,3341
20.3667,3360
20.3694,3384
20.3722,3387
20.3750,3366
20.3778,3080
20.3806,2512
20.3833,1964
20.3861,1601
20.3889,1437
20.3917,1445
20.3944,1535
20.3972,1594
20.4000,1615
20.4028,1612
20.4056,1590
20.4083,1572
20.4111,1565
20.4139,1547
20.4167,1549
20.4194,1550
20.4222,1566
20.4250,1562
20.4278,1564
20.4306,1550
20.4333,1530
20.4361,1504
20.4389,1504
20.4417,1527
20.4444,1566
20.4472,1585
20.4500,1562
20.4528,1527
20.4556,1522
20.4583,1536
20.4611,1541
20.4639,1553
20.4667,1572
20.4694,1608
20.4722,1607
20.4750,1585
20.4778,1570
20.4806,1567
20.4833,1578
20.4861,1614
20.4889,1631
20.4917,1627
20.4944,1606
20.4972,1598
20.5000,1607
20.5028,1640
20.5056,1656
20.5083,1650
20.5111,1654
20.5139,1626
20.5167,1617
20.5194,1615
20.5222,1646
20.5250,1652
20.5278,1668
20.5306,1687
20.5333,1677
20.5361,1663
20.5389,1652
20.5417,1681
20.5444,1719
20.5472,1750
20.5500,1764
20.5528,1770
20.5556,1771
20.5583,1777
20.5611,1800
20.5639,1830
20.5667,1850
20.5694,1857
20.5722,1850
20.5750,1822
20.5778,1816
20.5806,1807
20.5833,1796
20.5861,1782
20.5889,1774
20.5917,1741
20.5944,1700
20.5972,1644
20.6000,1632
20.6028,1655
20.6056,1667
20.6083,1663
20.6111,1648
20.6139,1607
20.6167,1581
20.6194,1574
20.6222,1579
20.6250,1581
20.6278,1587
20.6306,1601
20.6333,1595
20.6361,1592
20.6389,1576
20.6417,1561
20.6444,1550
20.6472,1557
20.6500,1579
20.6528,1594
20.6556,1611
20.6583,1617
20.6611,1604
20.6639,1609
20.6667,1608
20.6694,1605
20.6722,1617
20.6750,1610
20.6778,1589
20.6806,1570
20.6833,1574
20.6861,1589
20.6889,1595
20.6917,1600
20.6944,1596
20.6972,1602
20.7000,1608
20.7028,1615
20.7056,1623
20.7083,1625
20.7111,1619
20.7139,1612
20.7167,1587
20.7194,1578
20.7222,1582
20.7250,1618
20.7278,1651
20.7306,1655
20.7333,1635
20.7361,1624
20.7389,1632
20.7417,1635
20.7444,1638
20.7472,1631
20.7500,1623
20.7528,1623
20.7556,1617
20.7583,1610
20.7611,1590
20.7639,1600
20.7667,1623
20.7694,1636
20.7722,1636
20.7750,1631
20.7778,1619
20.7806,1607
20.7833,1626
20.7861,1620
20.7889,1630
20.7917,1627
20.7944,1608
20.7972,1595
20.8000,1598
20.8028,1616
20.8056,1644
20.8083,1658
20.8111,1656
20.8139,1639
20.8167,1619
20.8194,1622
20.8222,1604
20.8250,1603
20.8278,1625
20.8306,1634
20.8333,1630
20.8361,1608
20.8389,1606
20.8417,1623
20.8444,1647
20.8472,1648
20.8500,1647
20.8528,1631
20.8556,1620
20.8583,1621
20.8611,1624
20.8639,1626
20.8667,1632
20.8694,1632
20.8722,1625
20.8750,1615
20.8778,1607
20.8806,1618
20.8833,1620
20.8861,1625
20.8889,1623
20.8917,1625
20.8944,1623
20.8972,1636
20.9000,1630
20.9028,1626
20.9056,1620
20.9083,1626
20.9111,1616
20.9139,1603
20.9167,1597
20.9194,1608
20.9222,1638
20.9250,1659
20.9278,1667
20.9306,1664
20.9333,1661
20.9361,1646
20.9389,1654
20.9417,1666
20.9444,1647
20.9472,1629
20.9500,1622
20.9528,1622
20.9556,1623
20.9583,1631
20.9611,1641
20.9639,1646
20.9667,1647
20.9694,1640
20.9722,1628
20.9750,1628
20.9778,1630
20.9806,1632
20.9833,1639
20.9861,1646
20.9889,1645
20.9917,1645
20.9944,1621
20.9972,1607
21.0000,1622
21.0028,1632
21.0056,1628
21.0083,1643
21.0111,1646
21.0139,1656
21.0167,1670
21.0194,1683
21.0222,1702
21.0250,1718
21.0278,1725
21.0306,1716
21.0333,1708
21.0361,1696
21.0389,1697
21.0417,1690
21.0444,1697
21.0472,1683
21.0500,1676
21.0528,1681
21.0556,1700
21.0583,1746
21.0611,1774
21.0639,1789
21.0667,1795
21.0694,1793
21.0722,1770
21.0750,1767
21.0778,1756
21.0806,1721
21.0833,1672
21.0861,1646
21.0889,1646
21.0917,1647
21.0944,1641
21.0972,1628
21.1000,1632
21.1028,1610
21.1056,1597
21.1083,1602
21.1111,1592
21.1139,1586
21.1167,1581
21.1194,1542
21.1222,1494
21.1250,1494
21.1278,1553
21.1306,1611
21.1333,1628
21.1361,1622
21.1389,1577
21.1417,1542
21.1444,1507
21.1472,1485
21.1500,1484
21.1528,1496
21.1556,1520
21.1583,1598
21.1611,1743
21.1639,1941
21.1667,2233
21.1694,2630
21.1722,3062
21.1750,3335
21.1778,3359
21.1806,3376
21.1833,3380
21.1861,3232
21.1889,2700
21.1917,2092
21.1944,1620
21.1972,1373
21.2000,1315
21.2028,1372
21.2056,1463
21.2083,1533
21.2111,1572
21.2139,1567
21.2167,1513
21.2194,1463
21.2222,1429
21.2250,1418
21.2278,1437
21.2306,1464
21.2333,1502
21.2361,1542
21.2389,1563
21.2417,1549
21.2444,1515
21.2472,1493
21.2500,1488
21.2528,1497
21.2556,1520
21.2583,1526
21.2611,1517
21.2639,1504
21.2667,1499
21.2694,1507
21.2722,1530
21.2750,1550
21.2778,1557
21.2806,1555
21.2833,1534
21.2861,1542
21.2889,1540
21.2917,1544
21.2944,1552
21.2972,1566
21.3000,1587
21.3028,1591
21.3056,1595
21.3083,1603
21.3111,1602
21.3139,1598
21.3167,1618
21.3194,1626
21.3222,1629
21.3250,1624
21.3278,1615
21.3306,1617
21.3333,1619
21.3361,1631
21.3389,1652
21.3417,1673
21.3444,1678
21.3472,1686
21.3500,1696
21.3528,1722
21.3556,1732
21.3583,1738
21.3611,1726
21.3639,1711
21.3667,1715
21.3694,1735
21.3722,1765
21.3750,1793
21.3778,1831
21.3806,1847
21.3833,1861
21.3861,1860
21.3889,1764
21.3917,1771
21.3944,1762
21.3972,1755
21.4000,1756
21.4028,1745
21.4056,1728
21.4083,1711
21.4111,1690
21.4139,1673
21.4167,1651
21.4194,1634
21.4222,1633
21.4250,1619
21.4278,1617
21.4306,1625
21.4333,1631
21.4361,1625
21.4389,1616
21.4417,1598
21.4444,1580
21.4472,1574
21.4500,1579
21.4528,1587
21.4556,1582
21.4583,1569
21.4611,1571
21.4639,1584
21.4667,1590
21.4694,1590
21.4722,1591
21.4750,1599
21.4778,1602
21.4806,1608
21.4833,1613
21.4861,1621
21.4889,1630
21.4917,1632
21.4944,1633
21.4972,1624
21.5000,1610
21.5028,1598
21.5056,1595
21.5083,1593
21.5111,1598
21.5139,1609
21.5167,1613
21.5194,1614
21.5222,1605
21.5250,1599
21.5278,1600
21.5306,1625
21.5333,1636
21.5361,1648
21.5389,1634
21.5417,1601
21.5444,1580
21.5472,1570
21.5500,1589
21.5528,1608
21.5556,1629
21.5583,1639
21.5611,1637
21.5639,1630
21.5667,1608
21.5694,1592
21.5722,1592
21.5750,1603
21.5778,1594
21.5806,1595
21.5833,1585
21.5861,1567
21.5889,1565
21.5917,1567
21.5944,1564
21.5972,1569
21.6000,1589
21.6028,1586
21.6056,1572
21.6083,1565
21.6111,1561
21.6139,1564
21.6167,1561
21.6194,1556
21.6222,1554
21.6250,1542
21.6278,1543
21.6306,1523
21.6333,1520
21.6361,1529
21.6389,1549
21.6417,1570
21.6444,1577
21.6472,1576
21.6500,1576
21.6528,1558
21.6556,1537
21.6583,1523
21.6611,1530
21.6639,1551
21.6667,1553
21.6694,1558
21.6722,1553
21.6750,1551
21.6778,1551
21.6806,1554
21.6833,1547
21.6861,1541
21.6889,1535
21.6917,1528
21.6944,1530
21.6972,1535
21.7000,1548
21.7028,1555
21.7056,1542
21.7083,1535
21.7111,1532
21.7139,1562
21.7167,1555
21.7194,1543
21.7222,1538
21.7250,1546
21.7278,1547
21.7306,1559
21.7333,1558
21.7361,1565
21.7389,1551
21.7417,1538
21.7444,1533
21.7472,1544
21.7500,1545
21.7528,1554
21.7556,1547
21.7583,1548
21.7611,1533
21.7639,1527
21.7667,1521
21.7694,1514
21.7722,1512
21.7750,1532
21.7778,1551
21.7806,1557
21.7833,1555
21.7861,1556
21.7889,1540
21.7917,1516
21.7944,1514
21.7972,1521
21.8000,1530
21.8028,1530
21.8056,1526
21.8083,1529
21.8111,1528
21.8139,1544
21.8167,1553
21.8194,1547
21.8222,1546
21.8250,1538
21.8278,1537
21.8306,1518
21.8333,1526
21.8361,1522
21.8389,1527
21.8417,1540
21.8444,1530
21.8472,1549
21.8500,1562
21.8528,1567
21.8556,1571
21.8583,1577
21.8611,1585
21.8639,1580
21.8667,1590
21.8694,1600
21.8722,1626
21.8750,1650
21.8778,1625
21.8806,1594
21.8833,1552
21.8861,1545
21.8889,1561
21.8917,1598
21.8944,1631
21.8972,1661
21.9000,1676
21.9028,1667
21.9056,1664
21.9083,1669
21.9111,1668
21.9139,1651
21.9167,1646
21.9194,1626
21.9222,1611
21.9250,1584
21.9278,1545
21.9306,1505
21.9333,1519
21.9361,1517
21.9389,1500
21.9417,1495
21.9444,1497
21.9472,1497
21.9500,1496
21.9528,1497
21.9556,1496
21.9583,1487
21.9611,1489
21.9639,1489
21.9667,1487
21.9694,1487
21.9722,1495
21.9750,1483
21.9778,1449
21.9806,1416
21.9833,1391
21.9861,1393
21.9889,1381
21.9917,1373
21.9944,1417
21.9972,1535
22.0000,1730
22.0028,1970
22.0056,2313
22.0083,2732
22.0111,3149
22.0139,3350
22.0167,3366
22.0194,3369
22.0222,3335
22.0250,2920
22.0278,2281
22.0306,1703
22.0333,1328
22.0361,1168
22.0389,1182
22.0417,1283
22.0444,1387
22.0472,1444
22.0500,1452
22.0528,1426
22.0556,1375
22.0583,1350
22.0611,1324
22.0639,1319
22.0667,1342
22.0694,1361
22.0722,1370
22.0750,1360
22.0778,1350
22.0806,1351
22.0833,1346
22.0861,1341
22.0889,1344
22.0917,1360
22.0944,1377
22.0972,1391
22.1000,1383
22.1028,1384
22.1056,1376
22.1083,1395
22.1111,1400
22.1139,1402
22.1167,1403
22.1194,1412
22.1222,1408
22.1250,1416
22.1278,1433
22.1306,1459
22.1333,1468
22.1361,1472
22.1389,1450
22.1417,1443
22.1444,1431
22.1472,1438
22.1500,1465
22.1528,1486
22.1556,1487
22.1583,1484
22.1611,1476
22.1639,1478
22.1667,1486
22.1694,1507
22.1722,1513
22.1750,1528
22.1778,1529
22.1806,1534
22.1833,1543
22.1861,1547
22.1889,1540
22.1917,1540
22.1944,1537
22.1972,1553
22.2000,1580
22.2028,1605
22.2056,1622
22.2083,1640
22.2111,1664
22.2139,1689
22.2167,1707
22.2194,1718
22.2222,1730
22.2250,1678
22.2278,1690
22.2306,1692
22.2333,1696
22.2361,1688
22.2389,1651
22.2417,1610
22.2444,1574
22.2472,1563
22.2500,1573
22.2528,1582
22.2556,1591
22.2583,1577
22.2611,1561
22.2639,1538
22.2667,1523
22.2694,1512
22.2722,1511
22.2750,1518
22.2778,1518
22.2806,1515
22.2833,1511
22.2861,1507
22.2889,1499
22.2917,1485
22.2944,1485
22.2972,1487
22.3000,1516
22.3028,1543
22.3056,1558
22.3083,1555
22.3111,1534
22.3139,1519
22.3167,1530
22.3194,1533
22.3222,1544
22.3250,1551
22.3278,1559
22.3306,1582
22.3333,1596
22.3361,1606
22.3389,1596
22.3417,1574
22.3444,1566
22.3472,1572
22.3500,1577
22.3528,1579
22.3556,1583
22.3583,1576
22.3611,1568
22.3639,1571
22.3667,1585
22.3694,1599
22.3722,1609
22.3750,1613
22.3778,1614
22.3806,1606
22.3833,1611
22.3861,1604
22.3889,1610
22.3917,1604
22.3944,1612
22.3972,1602
22.4000,1598
22.4028,1594
22.4056,1593
22.4083,1621
22.4111,1638
22.4139,1653
22.4167,1643
22.4194,1629
22.4222,1628
22.4250,1633
22.4278,1639
22.4306,1630
22.4333,1616
22.4361,1600
22.4389,1594
22.4417,1597
22.4444,1607
22.4472,1632
22.4500,1637
22.4528,1643
22.4556,1648
22.4583,1640
22.4611,1632
22.4639,1626
22.4667,1617
22.4694,1610
22.4722,1605
22.4750,1615
22.4778,1634
22.4806,1632
22.4833,1631
22.4861,1622
22.4889,1616
22.4917,1620
22.4944,1643
22.4972,1665
22.5000,1673
22.5028,1675
22.5056,1679
22.5083,1675
22.5111,1667
22.5139,1675
22.5167,1670
22.5194,1666
22.5222,1678
22.5250,1694
22.5278,1697
22.5306,1702
22.5333,1700
22.5361,1672
22.5389,1645
22.5417,1635
22.5444,1638
22.5472,1644
22.5500,1666
22.5528,1686
22.5556,1710
22.5583,1731
22.5611,1717
22.5639,1716
22.5667,1677
22.5694,1672
22.5722,1677
22.5750,1695
22.5778,1696
22.5806,1699
22.5833,1708
22.5861,1724
22.5889,1737
22.5917,1730
22.5944,1726
22.5972,1725
22.6000,1715
22.6028,1716
22.6056,1710
22.6083,1712
22.6111,1723
22.6139,1713
22.6167,1722
22.6194,1727
22.6222,1729
22.6250,1728
22.6278,1718
22.6306,1723
22.6333,1726
22.6361,1736
22.6389,1732
22.6417,1735
22.6444,1732
22.6472,1743
22.6500,1746
22.6528,1735
22.6556,1742
22.6583,1731
22.6611,1729
22.6639,1725
22.6667,1733
22.6694,1744
22.6722,1749
22.6750,1765
22.6778,1764
22.6806,1747
22.6833,1729
22.6861,1737
22.6889,1748
22.6917,1771
22.6944,1769
22.6972,1760
22.7000,1769
22.7028,1778
22.7056,1791
22.7083,1792
22.7111,1794
22.7139,1775
22.7167,1773
22.7194,1772
22.7222,1775
22.7250,1782
22.7278,1791
22.7306,1794
22.7333,1795
22.7361,1827
22.7389,1853
22.7417,1877
22.7444,1887
22.7472,1870
22.7500,1859
22.7528,1837
22.7556,1819
22.7583,1804
22.7611,1803
22.7639,1833
22.7667,1860
22.7694,1895
22.7722,1923
22.7750,1932
22.7778,1949
22.7806,1939
22.7833,1932
22.7861,1914
22.7889,1906
22.7917,1879
22.7944,1868
22.7972,1843
22.8000,1825
22.8028,1812
22.8056,1803
22.8083,1785
22.8111,1768
22.8139,1770
22.8167,1780
22.8194,1778
22.8222,1772
22.8250,1767
22.8278,1746
22.8306,1725
22.8333,1725
22.8361,1725
22.8389,1742
22.8417,1762
22.8444,1769
22.8472,1760
22.8500,1736
22.8528,1698
22.8556,1677
22.8583,1667
22.8611,1676
22.8639,1705
22.8667,1748
22.8694,1843
22.8722,1992
22.8750,2202
22.8778,2502
22.8806,2882
22.8833,3298
22.8861,3357
22.8889,3370
22.8917,3387
22.8944,3384
22.8972,3272
22.9000,2805
22.9028,2256
22.9056,1829
22.9083,1581
22.9111,1521
22.9139,1554
22.9167,1619
22.9194,1657
22.9222,1683
22.9250,1682
22.9278,1664
22.9306,1631
22.9333,1604
22.9361,1592
22.9389,1602
22.9417,1625
22.9444,1658
22.9472,1680
22.9500,1686
22.9528,1665
22.9556,1638
22.9583,1619
22.9611,1624
22.9639,1641
22.9667,1649
22.9694,1657
22.9722,1647
22.9750,1630
22.9778,1611
22.9806,1630
22.9833,1658
22.9861,1698
22.9889,1718
22.9917,1719
22.9944,1696
22.9972,1683
23.0000,1680
23.0028,1704
23.0056,1717
23.0083,1742
23.0111,1756
23.0139,1745
23.0167,1725
23.0194,1696
23.0222,1693
23.0250,1719
23.0278,1734
23.0306,1757
23.0333,1753
23.0361,1736
23.0389,1715
23.0417,1718
23.0444,1746
23.0472,1766
23.0500,1777
23.0528,1776
23.0556,1781
23.0583,1785
23.0611,1797
23.0639,1819
23.0667,1836
23.0694,1847
23.0722,1861
23.0750,1869
23.0778,1883
23.0806,1879
23.0833,1891
23.0861,1904
23.0889,1941
23.0917,1956
23.0944,1977
23.0972,1982
23.1000,1861
23.1028,1859
23.1056,1853
23.1083,1855
23.1111,1851
23.1139,1827
23.1167,1798
23.1194,1760
23.1222,1731
23.1250,1733
23.1278,1740
23.1306,1741
23.1333,1718
23.1361,1702
23.1389,1692
23.1417,1688
23.1444,1675
23.1472,1680
23.1500,1678
23.1528,1675
23.1556,1667
23.1583,1664
23.1611,1666
23.1639,1664
23.1667,1675
23.1694,1674
23.1722,1670
23.1750,1663
23.1778,1657
23.1806,1666
23.1833,1660
23.1861,1637
23.1889,1612
23.1917,1607
23.1944,1647
23.1972,1680
23.2000,1691
23.2028,1685
23.2056,1699
23.2083,1697
23.2111,1693
23.2139,1680
23.2167,1663
23.2194,1660
23.2222,1655
23.2250,1674
23.2278,1683
23.2306,1701
23.2333,1708
23.2361,1686
23.2389,1675
23.2417,1667
23.2444,1658
23.2472,1658
23.2500,1659
23.2528,1674
23.2556,1687
23.2583,1688
23.2611,1688
23.2639,1684
23.2667,1669
23.2694,1662
23.2722,1642
23.2750,1620
23.2778,1617
23.2806,1629
23.2833,1653
23.2861,1669
23.2889,1682
23.2917,1683
23.2944,1662
23.2972,1645
23.3000,1639
23.3028,1638
23.3056,1643
23.3083,1654
23.3111,1654
23.3139,1663
23.3167,1658
23.3194,1644
23.3222,1621
23.3250,1621
23.3278,1626
23.3306,1634
23.3333,1632
23.3361,1622
23.3389,1623
23.3417,1620
23.3444,1640
23.3472,1647
23.3500,1645
23.3528,1640
23.3556,1630
23.3583,1622
23.3611,1627
23.3639,1632
23.3667,1625
23.3694,1626
23.3722,1627
23.3750,1629
23.3778,1621
23.3806,1617
23.3833,1629
23.3861,1641
23.3889,1651
23.3917,1657
23.3944,1661
23.3972,1647
23.4000,1645
23.4028,1637
23.4056,1628
23.4083,1620
23.4111,1625
23.4139,1620
23.4167,1631
23.4194,1631
23.4222,1642
23.4250,1648
23.4278,1673
23.4306,1662
23.4333,1644
23.4361,1636
23.4389,1614
23.4417,1615
23.4444,1622
23.4472,1620
23.4500,1611
23.4528,1618
23.4556,1635
23.4583,1645
23.4611,1653
23.4639,1660
23.4667,1646
23.4694,1637
23.4722,1637
23.4750,1633
23.4778,1647
23.4806,1658
23.4833,1680
23.4861,1683
23.4889,1672
23.4917,1670
23.4944,1655
23.4972,1649
23.5000,1649
23.5028,1645
23.5056,1639
23.5083,1635
23.5111,1638
23.5139,1651
23.5167,1645
23.5194,1636
23.5222,1652
23.5250,1672
23.5278,1683
23.5306,1683
23.5333,1675
23.5361,1650
23.5389,1634
23.5417,1648
23.5444,1659
23.5472,1656
23.5500,1648
23.5528,1659
23.5556,1683
23.5583,1723
23.5611,1741
23.5639,1754
23.5667,1772
23.5694,1782
23.5722,1780
23.5750,1752
23.5778,1725
23.5806,1712
23.5833,1693
23.5861,1711
23.5889,1726
23.5917,1763
23.5944,1800
23.5972,1822
23.6000,1829
23.6028,1845
23.6056,1846
23.6083,1816
23.6111,1784
23.6139,1740
23.6167,1716
23.6194,1713
23.6222,1707
23.6250,1700
23.6278,1685
23.6306,1646
23.6333,1644
23.6361,1646
23.6389,1656
23.6417,1658
23.6444,1647
23.6472,1639
23.6500,1621
23.6528,1620
23.6556,1624
23.6583,1619
23.6611,1620
23.6639,1628
23.6667,1656
23.6694,1669
23.6722,1668
23.6750,1623
23.6778,1580
23.6806,1544
23.6833,1534
23.6861,1558
23.6889,1593
23.6917,1676
23.6944,1796
23.6972,1970
23.7000,2247
23.7028,2619
23.7056,3048
23.7083,3343
23.7111,3358
23.7139,3371
23.7167,3387
23.7194,3301
23.7222,2835
23.7250,2219
23.7278,1712
23.7306,1419
23.7333,1315
23.7361,1341
23.7389,1441
23.7417,1535
23.7444,1564
23.7472,1565
23.7500,1534
23.7528,1503
23.7556,1462
23.7583,1465
23.7611,1484
23.7639,1509
23.7667,1537
23.7694,1545
23.7722,1530
23.7750,1498
23.7778,1474
23.7806,1461
23.7833,1451
23.7861,1474
23.7889,1492
23.7917,1510
23.7944,1525
23.7972,1524
23.8000,1505
23.8028,1488
23.8056,1503
23.8083,1520
23.8111,1550
23.8139,1558
23.8167,1556
23.8194,1540
23.8222,1528
23.8250,1537
23.8278,1555
23.8306,1570
23.8333,1574
23.8361,1585
23.8389,1579
23.8417,1577
23.8444,1578
23.8472,1591
23.8500,1601
23.8528,1614
23.8556,1626
23.8583,1613
23.8611,1612
23.8639,1618
23.8667,1617
23.8694,1634
23.8722,1641
23.8750,1636
23.8778,1631
23.8806,1639
23.8833,1665
23.8861,1700
23.8889,1720
23.8917,1729
23.8944,1734
23.8972,1719
23.9000,1717
23.9028,1735
23.9056,1770
23.9083,1806
23.9111,1829
23.9139,1833
23.9167,1833
23.9194,1847
23.9222,1793
23.9250,1782
23.9278,1766
23.9306,1750
23.9333,1751
23.9361,1736
23.9389,1705
23.9417,1680
23.9444,1656
23.9472,1649
23.9500,1642
23.9528,1628
23.9556,1610
23.9583,1587
23.9611,1583
23.9639,1588
23.9667,1599
23.9694,1589
23.9722,1590
23.9750,1588
23.9778,1582
23.9806,1576
23.9833,1583
23.9861,1583
23.9889,1582
23.9917,1586
23.9944,1573
23.9972,1583
24.0000,1591
24.0028,1602
24.0056,1598
24.0083,1591
24.0111,1591
24.0139,1587
24.0167,1573
24.0194,1554
24.0222,1564
24.0250,1585
24.0278,1612
24.0306,1622
24.0333,1629
24.0361,1611
24.0389,1582
24.0417,1559
24.0444,1551
24.0472,1553
24.0500,1578
24.0528,1590
24.0556,1615
24.0583,1626
24.0611,1600
24.0639,1592
24.0667,1588
24.0694,1593
24.0722,1609
24.0750,1615
24.0778,1608
24.0806,1604
24.0833,1612
24.0861,1612
24.0889,1620
24.0917,1602
24.0944,1588
24.0972,1589
24.1000,1583
24.1028,1589
24.1056,1594
24.1083,1604
24.1111,1604
24.1139,1610
24.1167,1608
24.1194,1600
24.1222,1588
24.1250,1591
24.1278,1585
24.1306,1588
24.1333,1582
24.1361,1563
24.1389,1573
24.1417,1592
24.1444,1594
24.1472,1597
24.1500,1587
24.1528,1577
24.1556,1577
24.1583,1586
24.1611,1593
24.1639,1598
24.1667,1607
24.1694,1610
24.1722,1594
24.1750,1577
24.1778,1571
24.1806,1578
24.1833,1583
24.1861,1590
24.1889,1597
24.1917,1601
24.1944,1606
24.1972,1602
24.2000,1599
24.2028,1590
24.2056,1586
24.2083,1588
24.2111,1581
24.2139,1571
24.2167,1582
24.2194,1601
24.2222,1624
24.2250,1621
24.2278,1620
24.2306,1627
24.2333,1629
24.2361,1634
24.2389,1616
24.2417,1620
24.2444,1623
24.2472,1630
24.2500,1623
24.2528,1623
24.2556,1607
24.2583,1598
24.2611,1600
24.2639,1596
24.2667,1617
24.2694,1620
24.2722,1621
24.2750,1619
24.2778,1626
24.2806,1635
24.2833,1637
24.2861,1640
24.2889,1628
24.2917,1605
24.2944,1605
24.2972,1621
24.3000,1629
24.3028,1629
24.3056,1641
24.3083,1646
24.3111,1640
24.3139,1630
24.3167,1635
24.3194,1634
24.3222,1620
24.3250,1607
24.3278,1605
24.3306,1610
24.3333,1634
24.3361,1648
24.3389,1648
24.3417,1644
24.3444,1650
24.3472,1652
24.3500,1645
24.3528,1631
24.3556,1630
24.3583,1646
24.3611,1651
24.3639,1656
24.3667,1665
24.3694,1659
24.3722,1650
24.3750,1657
24.3778,1651
24.3806,1653
24.3833,1640
24.3861,1639
24.3889,1643
24.3917,1652
24.3944,1669
24.3972,1685
24.4000,1697
24.4028,1693
24.4056,1688
24.4083,1699
24.4111,1713
24.4139,1729
24.4167,1743
24.4194,1734
24.4222,1717
24.4250,1691
24.4278,1669
24.4306,1675
24.4333,1693
24.4361,1731
24.4389,1775
24.4417,1801
24.4444,1835
24.4472,1848
24.4500,1847
24.4528,1831
24.4556,1803
24.4583,1763
24.4611,1729
24.4639,1684
24.4667,1648
24.4694,1668
24.4722,1696
24.4750,1722
24.4778,1728
24.4806,1689
24.4833,1649
24.4861,1628
24.4889,1624
24.4917,1617
24.4944,1616
24.4972,1610
24.5000,1617
24.5028,1610
24.5056,1610
24.5083,1618
24.5111,1626
24.5139,1619
24.5167,1611
24.5194,1609
24.5222,1598
24.5250,1575
24.5278,1545
24.5306,1525
24.5333,1505
24.5361,1507
24.5389,1557
24.5417,1682
24.5444,1871
24.5472,2153
24.5500,2549
24.5528,2979
24.5556,3334
24.5583,3361
24.5611,3359
24.5639,3375
24.5667,3366
24.5694,3060
24.5722,2426
24.5750,1849
24.5778,1478
24.5806,1339
24.5833,1376
24.5861,1469
24.5889,1544
24.5917,1592
24.5944,1588
24.5972,1548
24.6000,1507
24.6028,1468
24.6056,1457
24.6083,1452
24.6111,1458
24.6139,1489
24.6167,1514
24.6194,1528
24.6222,1520
24.6250,1497
24.6278,1476
24.6306,1475
24.6333,1471
24.6361,1478
24.6389,1487
24.6417,1492
24.6444,1488
24.6472,1494
24.6500,1494
24.6528,1497
24.6556,1506
24.6583,1518
24.6611,1518
24.6639,1512
24.6667,1504
24.6694,1501
24.6722,1508
24.6750,1528
24.6778,1539
24.6806,1551
24.6833,1528
24.6861,1520
24.6889,1525
24.6917,1550
24.6944,1567
24.6972,1589
24.7000,1599
24.7028,1583
24.7056,1582
24.7083,1559
24.7111,1556
24.7139,1559
24.7167,1570
24.7194,1596
24.7222,1608
24.7250,1619
24.7278,1641
24.7306,1653
24.7333,1649
24.7361,1645
24.7389,1659
24.7417,1661
24.7444,1672
24.7472,1673
24.7500,1668
24.7528,1678
24.7556,1713
24.7583,1746
24.7611,1768
24.7639,1786
24.7667,1774
24.7694,1711
24.7722,1719
24.7750,1710
24.7778,1692
24.7806,1669
24.7833,1653
24.7861,1617
24.7889,1598
24.7917,1601
24.7944,1617
24.7972,1632
24.8000,1633
24.8028,1616
24.8056,1585
24.8083,1559
24.8111,1542
24.8139,1540
24.8167,1553
24.8194,1563
24.8222,1536
24.8250,1538
24.8278,1512
24.8306,1509
24.8333,1517
24.8361,1523
24.8389,1531
24.8417,1524
24.8444,1518
24.8472,1506
24.8500,1507
24.8528,1504
24.8556,1505
24.8583,1494
24.8611,1491
24.8639,1489
24.8667,1501
24.8694,1504
24.8722,1516
24.8750,1530
24.8778,1549
24.8806,1539
24.8833,1552
24.8861,1549
24.8889,1547
24.8917,1533
24.8944,1521
24.8972,1519
24.9000,1527
24.9028,1534
24.9056,1540
24.9083,1545
24.9111,1560
24.9139,1559
24.9167,1573
24.9194,1569
24.9222,1563
24.9250,1569
24.9278,1567
24.9306,1572
24.9333,1555
24.9361,1554
24.9389,1553
24.9417,1552
24.9444,1554
24.9472,1529
24.9500,1523
24.9528,1536
24.9556,1562
24.9583,1564
24.9611,1558
24.9639,1553
24.9667,1552
24.9694,1559
24.9722,1571
24.9750,1587
24.9778,1587
24.9806,1571
24.9833,1561
24.9861,1544
24.9889,1534
24.9917,1539
24.9944,1556
24.9972,1558
25.0000,1566
25.0028,1567
25.0056,1557
25.0083,1550
25.0111,1547
25.0139,1544
25.0167,1554
25.0194,1563
25.0222,1564
25.0250,1562
25.0278,1552
25.0306,1554
25.0333,1563
25.0361,1573
25.0389,1600
25.0417,1604
25.0444,1600
25.0472,1586
25.0500,1558
25.0528,1548
25.0556,1553
25.0583,1560
25.0611,1572
25.0639,1556
25.0667,1562
25.0694,1583
25.0722,1591
25.0750,1606
25.0778,1620
25.0806,1612
25.0833,1612
25.0861,1614
25.0889,1610
25.0917,1624
25.0944,1608
25.0972,1587
25.1000,1566
25.1028,1577
25.1056,1589
25.1083,1614
25.1111,1618
25.1139,1611
25.1167,1613
25.1194,1623
25.1222,1628
25.1250,1642
25.1278,1633
25.1306,1634
25.1333,1629
25.1361,1616
25.1389,1605
25.1417,1621
25.1444,1634
25.1472,1632
25.1500,1642
25.1528,1657
25.1556,1677
25.1583,1691
25.1611,1683
25.1639,1664
25.1667,1647
25.1694,1629
25.1722,1637
25.1750,1649
25.1778,1672
25.1806,1678
25.1833,1680
25.1861,1659
25.1889,1635
25.1917,1630
25.1944,1635
25.1972,1650
25.2000,1662
25.2028,1680
25.2056,1698
25.2083,1699
25.2111,1690
25.2139,1695
25.2167,1698
25.2194,1687
25.2222,1689
25.2250,1684
25.2278,1677
25.2306,1684
25.2333,1676
25.2361,1685
25.2389,1669
25.2417,1666
25.2444,1647
25.2472,1652
25.2500,1652
25.2528,1656
25.2556,1680
25.2583,1710
25.2611,1724
25.2639,1737
25.2667,1740
25.2694,1724
25.2722,1728
25.2750,1746
25.2778,1760
25.2806,1773
25.2833,1795
25.2861,1799
25.2889,1798
25.2917,1784
25.2944,1776
25.2972,1762
25.3000,1745
25.3028,1752
25.3056,1769
25.3083,1802
25.3111,1833
25.3139,1850
25.3167,1855
25.3194,1863
25.3222,1839
25.3250,1825
25.3278,1808
25.3306,1796
25.3333,1799
25.3361,1786
25.3389,1774
25.3417,1766
25.3444,1738
25.3472,1707
25.3500,1681
25.3528,1673
25.3556,1673
25.3583,1677
25.3611,1672
25.3639,1682
25.3667,1680
25.3694,1687
25.3722,1710
25.3750,1718
25.3778,1713
25.3806,1720
25.3833,1718
25.3861,1702
25.3889,1684
25.3917,1663
25.3944,1634
25.3972,1617
25.4000,1614
25.4028,1635
25.4056,1656
25.4083,1711
25.4111,1790
25.4139,1914
25.4167,2119
25.4194,2416
25.4222,2789
25.4250,3198
25.4278,3347
25.4306,3359
25.4333,3379
25.4361,3375
25.4389,3159
25.4417,2653
25.4444,2147
25.4472,1751
25.4500,1533
25.4528,1468
25.4556,1489
25.4583,1561
25.4611,1614
25.4639,1645
25.4667,1667
25.4694,1639
25.4722,1612
25.4750,1563
25.4778,1546
25.4806,1548
25.4833,1562
25.4861,1589
25.4889,1615
25.4917,1618
25.4944,1608
25.4972,1589
25.5000,1589
25.5028,1584
25.5056,1589
25.5083,1614
25.5111,1633
25.5139,1639
25.5167,1633
25.5194,1633
25.5222,1633
25.5250,1627
25.5278,1633
25.5306,1637
25.5333,1637
25.5361,1622
25.5389,1625
25.5417,1638
25.5444,1648
25.5472,1672
25.5500,1679
25.5528,1691
25.5556,1686
25.5583,1679
25.5611,1676
25.5639,1666
25.5667,1682
25.5694,1676
25.5722,1686
25.5750,1683
25.5778,1692
25.5806,1699
25.5833,1701
25.5861,1710
25.5889,1717
25.5917,1733
25.5944,1720
25.5972,1727
25.6000,1750
25.6028,1792
25.6056,1828
25.6083,1858
25.6111,1870
25.6139,1855
25.6167,1844
25.6194,1830
25.6222,1843
25.6250,1852
25.6278,1870
25.6306,1903
25.6333,1925
25.6361,1940
25.6389,1946
25.6417,1833
25.6444,1834
25.6472,1856
25.6500,1865
25.6528,1858
25.6556,1831
25.6583,1785
25.6611,1756
25.6639,1721
25.6667,1702
25.6694,1682
25.6722,1654
25.6750,1626
25.6778,1594
25.6806,1597
25.6833,1598
25.6861,1558
25.6889,1478
25.6917,1447
25.6944,1456
25.6972,1511
25.7000,1585
25.7028,1637
25.7056,1679
25.7083,1660
25.7111,1592
25.7139,1556
25.7167,1593
25.7194,1646
25.7222,1673
25.7250,1683
25.7278,1686
25.7306,1674
25.7333,1671
25.7361,1658
25.7389,1648
25.7417,1625
25.7444,1635
25.7472,1641
25.7500,1650
25.7528,1659
25.7556,1656
25.7583,1629
25.7611,1616
25.7639,1620
25.7667,1631
25.7694,1663
25.7722,1689
25.7750,1675
25.7778,1654
25.7806,1634
25.7833,1628
25.7861,1635
25.7889,1655
25.7917,1670
25.7944,1685
25.7972,1681
25.8000,1671
25.8028,1633
25.8056,1587
25.8083,1596
25.8111,1613
25.8139,1646
25.8167,1669
25.8194,1652
25.8222,1635
25.8250,1629
25.8278,1628
25.8306,1605
25.8333,1596
25.8361,1591
25.8389,1594
25.8417,1591
25.8444,1593
25.8472,1591
25.8500,1605
25.8528,1605
25.8556,1605
25.8583,1584
25.8611,1559
25.8639,1542
25.8667,1546
25.8694,1567
25.8722,1595
25.8750,1599
25.8778,1593
25.8806,1595
25.8833,1597
25.8861,1596
25.8889,1593
25.8917,1585
25.8944,1574
25.8972,1561
25.9000,1556
25.9028,1553
25.9056,1568
25.9083,1586
25.9111,1610
25.9139,1610
25.9167,1611
25.9194,1604
25.9222,1587
25.9250,1579
25.9278,1574
25.9306,1575
25.9333,1579
25.9361,1559
25.9389,1552
25.9417,1553
25.9444,1578
25.9472,1587
25.9500,1598
25.9528,1596
25.9556,1590
25.9583,1574
25.9611,1577
25.9639,1589
25.9667,1600
25.9694,1604
25.9722,1602
25.9750,1575
25.9778,1552
25.9806,1539
25.9833,1572
25.9861,1605
25.9889,1629
25.9917,1618
25.9944,1595
25.9972,1591
26.0000,1600
26.0028,1599
26.0056,1588
26.0083,1565
26.0111,1577
26.0139,1617
26.0167,1629
26.0194,1627
26.0222,1630
26.0250,1620
26.0278,1617
26.0306,1602
26.0333,1577
26.0361,1574
26.0389,1585
26.0417,1596
26.0444,1606
26.0472,1617
26.0500,1613
26.0528,1613
26.0556,1625
26.0583,1640
26.0611,1651
26.0639,1649
26.0667,1657
26.0694,1630
26.0722,1621
26.0750,1620
26.0778,1649
26.0806,1670
26.0833,1674
26.0861,1691
26.0889,1720
26.0917,1741
26.0944,1746
26.0972,1729
26.1000,1699
26.1028,1692
26.1056,1704
26.1083,1722
26.1111,1726
26.1139,1756
26.1167,1778
26.1194,1812
26.1222,1827
26.1250,1828
26.1278,1821
26.1306,1827
26.1333,1806
26.1361,1784
26.1389,1755
26.1417,1735
26.1444,1733
26.1472,1727
26.1500,1725
26.1528,1716
26.1556,1706
26.1583,1685
26.1611,1655
26.1639,1624
26.1667,1622
26.1694,1650
26.1722,1659
26.1750,1653
26.1778,1644
26.1806,1641
26.1833,1638
26.1861,1637
26.1889,1639
26.1917,1657
26.1944,1671
26.1972,1671
26.2000,1663
26.2028,1640
26.2056,1602
26.2083,1580
26.2111,1561
26.2139,1548
26.2167,1525
26.2194,1556
26.2222,1684
26.2250,1863
26.2278,2128
26.2306,2522
26.2333,2983
26.2361,3343
26.2389,3360
26.2417,3374
26.2444,3382
26.2472,3376
26.2500,3135
26.2528,2528
26.2556,1904
26.2583,1485
26.2611,1333
26.2639,1367
26.2667,1462
26.2694,1550
26.2722,1593
26.2750,1584
26.2778,1550
26.2806,1514
26.2833,1500
26.2861,1491
26.2889,1476
26.2917,1499
26.2944,1529
26.2972,1556
26.3000,1548
26.3028,1532
26.3056,1499
26.3083,1491
26.3111,1497
26.3139,1514
26.3167,1549
26.3194,1572
26.3222,1569
26.3250,1553
26.3278,1532
26.3306,1516
26.3333,1514
26.3361,1530
26.3389,1551
26.3417,1584
26.3444,1594
26.3472,1578
26.3500,1557
26.3528,1569
26.3556,1596
26.3583,1625
26.3611,1642
26.3639,1650
26.3667,1623
26.3694,1605
26.3722,1602
26.3750,1618
26.3778,1627
26.3806,1640
26.3833,1638
26.3861,1646
26.3889,1641
26.3917,1649
26.3944,1675
26.3972,1689
26.4000,1700
26.4028,1703
26.4056,1713
