Tiempo(s),Valor_ADC
0.0028,1655
0.0056,1649
0.0083,1648
0.0111,1650
0.0139,1641
0.0167,1647
0.0194,1650
0.0222,1649
0.0250,1647
0.0278,1651
0.0306,1648
0.0333,1646
0.0361,1643
0.0389,1632
0.0417,1628
0.0444,1616
0.0472,1626
0.0500,1635
0.0528,1650
0.0556,1661
0.0583,1663
0.0611,1651
0.0639,1646
0.0667,1639
0.0694,1647
0.0722,1646
0.0750,1656
0.0778,1658
0.0806,1660
0.0833,1658
0.0861,1650
0.0889,1659
0.0917,1650
0.0944,1657
0.0972,1655
0.1000,1658
0.1028,1657
0.1056,1651
0.1083,1651
0.1111,1642
0.1139,1644
0.1167,1642
0.1194,1655
0.1222,1657
0.1250,1659
0.1278,1652
0.1306,1660
0.1333,1668
0.1361,1672
0.1389,1667
0.1417,1662
0.1444,1660
0.1472,1652
0.1500,1659
0.1528,1659
0.1556,1659
0.1583,1666
0.1611,1675
0.1639,1683
0.1667,1692
0.1694,1686
0.1722,1695
0.1750,1696
0.1778,1690
0.1806,1692
0.1833,1689
0.1861,1698
0.1889,1695
0.1917,1696
0.1944,1701
0.1972,1695
0.2000,1709
0.2028,1715
0.2056,1713
0.2083,1704
0.2111,1704
0.2139,1699
0.2167,1706
0.2194,1700
0.2222,1698
0.2250,1696
0.2278,1694
0.2306,1696
0.2333,1700
0.2361,1694
0.2389,1692
0.2417,1702
0.2444,1701
0.2472,1704
0.2500,1696
0.2528,1697
0.2556,1695
0.2583,1696
0.2611,1689
0.2639,1686
0.2667,1683
0.2694,1692
0.2722,1703
0.2750,1718
0.2778,1715
0.2806,1713
0.2833,1703
0.2861,1698
0.2889,1696
0.2917,1698
0.2944,1701
0.2972,1700
0.3000,1708
0.3028,1702
0.3056,1704
0.3083,1702
0.3111,1692
0.3139,1696
0.3167,1702
0.3194,1704
0.3222,1713
0.3250,1714
0.3278,1719
0.3306,1708
0.3333,1704
0.3361,1701
0.3389,1694
0.3417,1705
0.3444,1712
0.3472,1717
0.3500,1714
0.3528,1714
0.3556,1717
0.3583,1717
0.3611,1721
0.3639,1722
0.3667,1723
0.3694,1723
0.3722,1715
0.3750,1709
0.3778,1710
0.3806,1714
0.3833,1711
0.3861,1711
0.3889,1706
0.3917,1710
0.3944,1717
0.3972,1721
0.4000,1725
0.4028,1722
0.4056,1726
0.4083,1723
0.4111,1720
0.4139,1728
0.4167,1721
0.4194,1720
0.4222,1715
0.4250,1716
0.4278,1712
0.4306,1709
0.4333,1712
0.4361,1704
0.4389,1710
0.4417,1721
0.4444,1724
0.4472,1718
0.4500,1712
0.4528,1704
0.4556,1702
0.4583,1697
0.4611,1714
0.4639,1726
0.4667,1728
0.4694,1729
0.4722,1725
0.4750,1722
0.4778,1732
0.4806,1737
0.4833,1728
0.4861,1733
0.4889,1737
0.4917,1727
0.4944,1742
0.4972,1726
0.5000,1732
0.5028,1732
0.5056,1733
0.5083,1740
0.5111,1741
0.5139,1741
0.5167,1734
0.5194,1735
0.5222,1735
0.5250,1730
0.5278,1736
0.5306,1738
0.5333,1736
0.5361,1730
0.5389,1730
0.5417,1731
0.5444,1728
0.5472,1736
0.5500,1741
0.5528,1744
0.5556,1756
0.5583,1757
0.5611,1752
0.5639,1745
0.5667,1744
0.5694,1745
0.5722,1740
0.5750,1729
0.5778,1733
0.5806,1728
0.5833,1727
0.5861,1732
0.5889,1735
0.5917,1735
0.5944,1736
0.5972,1733
0.6000,1745
0.6028,1733
0.6056,1733
0.6083,1726
0.6111,1727
0.6139,1734
0.6167,1751
0.6194,1755
0.6222,1768
0.6250,1780
0.6278,1761
0.6306,1728
0.6333,1666
0.6361,1621
0.6389,1621
0.6417,1683
0.6444,1809
0.6472,1999
0.6500,2243
0.6528,2562
0.6556,2951
0.6583,3326
0.6611,3358
0.6639,3367
0.6667,3381
0.6694,3385
0.6722,3347
0.6750,3357
0.6778,3148
0.6806,2517
0.6833,1841
0.6861,1345
0.6889,1048
0.6917,908
0.6944,851
0.6972,853
0.7000,906
0.7028,967
0.7056,1031
0.7083,1098
0.7111,1205
0.7139,1344
0.7167,1490
0.7194,1599
0.7222,1678
0.7250,1701
0.7278,1695
0.7306,1657
0.7333,1624
0.7361,1597
0.7389,1604
0.7417,1643
0.7444,1676
0.7472,1702
0.7500,1686
0.7528,1673
0.7556,1659
0.7583,1647
0.7611,1663
0.7639,1690
0.7667,1700
0.7694,1697
0.7722,1681
0.7750,1655
0.7778,1654
0.7806,1662
0.7833,1684
0.7861,1700
0.7889,1716
0.7917,1705
0.7944,1684
0.7972,1664
0.8000,1675
0.8028,1694
0.8056,1712
0.8083,1720
0.8111,1711
0.8139,1691
0.8167,1686
0.8194,1682
0.8222,1699
0.8250,1727
0.8278,1750
0.8306,1750
0.8333,1724
0.8361,1713
0.8389,1706
0.8417,1715
0.8444,1735
0.8472,1746
0.8500,1756
0.8528,1736
0.8556,1728
0.8583,1728
0.8611,1745
0.8639,1751
0.8667,1770
0.8694,1771
0.8722,1752
0.8750,1748
0.8778,1743
0.8806,1918
0.8833,1940
0.8861,1966
0.8889,1962
0.8917,1967
0.8944,1967
0.8972,1968
0.9000,1980
0.9028,2007
0.9056,2024
0.9083,2029
0.9111,2017
0.9139,2004
0.9167,1994
0.9194,2005
0.9222,2026
0.9250,2056
0.9278,2066
0.9306,2076
0.9333,2049
0.9361,2025
0.9389,2007
0.9417,2001
0.9444,1993
0.9472,1985
0.9500,1960
0.9528,1921
0.9556,1884
0.9583,1855
0.9611,1844
0.9639,1822
0.9667,1805
0.9694,1781
0.9722,1744
0.9750,1706
0.9778,1680
0.9806,1667
0.9833,1665
0.9861,1654
0.9889,1639
0.9917,1620
0.9944,1601
0.9972,1583
1.0000,1577
1.0028,1578
1.0056,1585
1.0083,1592
1.0111,1590
1.0139,1574
1.0167,1561
1.0194,1552
1.0222,1550
1.0250,1552
1.0278,1555
1.0306,1549
1.0333,1549
1.0361,1547
1.0389,1557
1.0417,1573
1.0444,1591
1.0472,1608
1.0500,1610
1.0528,1600
1.0556,1574
1.0583,1566
1.0611,1566
1.0639,1576
1.0667,1592
1.0694,1577
1.0722,1575
1.0750,1564
1.0778,1560
1.0806,1561
1.0833,1571
1.0861,1584
1.0889,1596
1.0917,1584
1.0944,1579
1.0972,1588
1.1000,1586
1.1028,1589
1.1056,1581
1.1083,1576
1.1111,1556
1.1139,1551
1.1167,1560
1.1194,1566
1.1222,1576
1.1250,1598
1.1278,1614
1.1306,1613
1.1333,1597
1.1361,1579
1.1389,1562
1.1417,1564
1.1444,1574
1.1472,1582
1.1500,1586
1.1528,1583
1.1556,1569
1.1583,1559
1.1611,1555
1.1639,1562
1.1667,1560
1.1694,1566
1.1722,1563
1.1750,1569
1.1778,1572
1.1806,1569
1.1833,1577
1.1861,1568
1.1889,1559
1.1917,1550
1.1944,1546
1.1972,1540
1.2000,1540
1.2028,1559
1.2056,1563
1.2083,1569
1.2111,1566
1.2139,1564
1.2167,1557
1.2194,1546
1.2222,1553
1.2250,1566
1.2278,1575
1.2306,1574
1.2333,1570
1.2361,1564
1.2389,1552
1.2417,1552
1.2444,1554
1.2472,1557
1.2500,1557
1.2528,1562
1.2556,1560
1.2583,1568
1.2611,1568
1.2639,1575
1.2667,1573
1.2694,1572
1.2722,1558
1.2750,1559
1.2778,1565
1.2806,1574
1.2833,1575
1.2861,1591
1.2889,1587
1.2917,1588
1.2944,1583
1.2972,1582
1.3000,1582
1.3028,1598
1.3056,1603
1.3083,1597
1.3111,1609
1.3139,1602
1.3167,1601
1.3194,1596
1.3222,1595
1.3250,1598
1.3278,1598
1.3306,1585
1.3333,1570
1.3361,1576
1.3389,1596
1.3417,1610
1.3444,1607
1.3472,1616
1.3500,1614
1.3528,1615
1.3556,1608
1.3583,1607
1.3611,1598
1.3639,1608
1.3667,1613
1.3694,1612
1.3722,1616
1.3750,1614
1.3778,1597
1.3806,1600
1.3833,1608
1.3861,1613
1.3889,1623
1.3917,1621
1.3944,1622
1.3972,1618
1.4000,1610
1.4028,1616
1.4056,1620
1.4083,1625
1.4111,1623
1.4139,1622
1.4167,1616
1.4194,1601
1.4222,1602
1.4250,1599
1.4278,1618
1.4306,1631
1.4333,1624
1.4361,1619
1.4389,1623
1.4417,1631
1.4444,1636
1.4472,1638
1.4500,1638
1.4528,1649
1.4556,1641
1.4583,1639
1.4611,1627
1.4639,1623
1.4667,1620
1.4694,1621
1.4722,1631
1.4750,1637
1.4778,1638
1.4806,1644
1.4833,1647
1.4861,1641
1.4889,1631
1.4917,1636
1.4944,1629
1.4972,1636
1.5000,1649
1.5028,1648
1.5056,1659
1.5083,1650
1.5111,1647
1.5139,1641
1.5167,1630
1.5194,1633
1.5222,1629
1.5250,1634
1.5278,1635
1.5306,1647
1.5333,1655
1.5361,1669
1.5389,1670
1.5417,1673
1.5444,1656
1.5472,1649
1.5500,1639
1.5528,1621
1.5556,1625
1.5583,1633
1.5611,1647
1.5639,1661
1.5667,1666
1.5694,1668
1.5722,1670
1.5750,1664
1.5778,1659
1.5806,1655
1.5833,1663
1.5861,1669
1.5889,1680
1.5917,1687
1.5944,1687
1.5972,1681
1.6000,1671
1.6028,1671
1.6056,1683
1.6083,1674
1.6111,1670
1.6139,1672
1.6167,1678
1.6194,1680
1.6222,1688
1.6250,1684
1.6278,1686
1.6306,1685
1.6333,1678
1.6361,1685
1.6389,1678
1.6417,1681
1.6444,1683
1.6472,1689
1.6500,1698
1.6528,1701
1.6556,1707
1.6583,1705
1.6611,1698
1.6639,1702
1.6667,1699
1.6694,1696
1.6722,1693
1.6750,1690
1.6778,1696
1.6806,1704
1.6833,1698
1.6861,1701
1.6889,1694
1.6917,1694
1.6944,1706
1.6972,1719
1.7000,1721
1.7028,1727
1.7056,1719
1.7083,1716
1.7111,1703
1.7139,1707
1.7167,1711
1.7194,1701
1.7222,1703
1.7250,1694
1.7278,1693
1.7306,1693
1.7333,1706
1.7361,1712
1.7389,1714
1.7417,1709
1.7444,1707
1.7472,1702
1.7500,1705
1.7528,1705
1.7556,1712
1.7583,1716
1.7611,1720
1.7639,1728
1.7667,1730
1.7694,1729
1.7722,1725
1.7750,1719
1.7778,1711
1.7806,1717
1.7833,1717
1.7861,1718
1.7889,1726
1.7917,1715
1.7944,1700
1.7972,1707
1.8000,1710
1.8028,1718
1.8056,1731
1.8083,1730
1.8111,1717
1.8139,1709
1.8167,1693
1.8194,1694
1.8222,1702
1.8250,1706
1.8278,1714
1.8306,1731
1.8333,1711
1.8361,1716
1.8389,1713
1.8417,1712
1.8444,1718
1.8472,1723
1.8500,1721
1.8528,1731
1.8556,1724
1.8583,1711
1.8611,1706
1.8639,1711
1.8667,1705
1.8694,1713
1.8722,1707
1.8750,1711
1.8778,1712
1.8806,1713
1.8833,1712
1.8861,1708
1.8889,1707
1.8917,1716
1.8944,1731
1.8972,1744
1.9000,1758
1.9028,1774
1.9056,1783
1.9083,1796
1.9111,1796
1.9139,1796
1.9167,1797
1.9194,1791
1.9222,1786
1.9250,1790
1.9278,1801
1.9306,1800
1.9333,1808
1.9361,1825
1.9389,1837
1.9417,1842
1.9444,1856
1.9472,1853
1.9500,1833
1.9528,1799
1.9556,1773
1.9583,1761
1.9611,1763
1.9639,1763
1.9667,1782
1.9694,1789
1.9722,1793
1.9750,1776
1.9778,1747
1.9806,1698
1.9833,1631
1.9861,1554
1.9889,1524
1.9917,1546
1.9944,1645
1.9972,1784
2.0000,1982
2.0028,2230
2.0056,2531
2.0083,2892
2.0111,3236
2.0139,3361
2.0167,3371
2.0194,3374
2.0222,3372
2.0250,3356
2.0278,3047
2.0306,2495
2.0333,1920
2.0361,1489
2.0389,1222
2.0417,1071
2.0444,999
2.0472,936
2.0500,906
2.0528,915
2.0556,945
2.0583,965
2.0611,1000
2.0639,1063
2.0667,1191
2.0694,1347
2.0722,1507
2.0750,1628
2.0778,1690
2.0806,1693
2.0833,1666
2.0861,1630
2.0889,1624
2.0917,1638
2.0944,1660
2.0972,1679
2.1000,1683
2.1028,1671
2.1056,1673
2.1083,1665
2.1111,1676
2.1139,1702
2.1167,1724
2.1194,1728
2.1222,1711
2.1250,1704
2.1278,1697
2.1306,1710
2.1333,1713
2.1361,1729
2.1389,1741
2.1417,1726
2.1444,1711
2.1472,1700
2.1500,1707
2.1528,1724
2.1556,1751
2.1583,1755
2.1611,1768
2.1639,1752
2.1667,1741
2.1694,1736
2.1722,1738
2.1750,1747
2.1778,1752
2.1806,1757
2.1833,1752
2.1861,1743
2.1889,1748
2.1917,1756
2.1944,1761
2.1972,1767
2.2000,1771
2.2028,1761
2.2056,1763
2.2083,1768
2.2111,1785
2.2139,1791
2.2167,1807
2.2194,1813
2.2222,1814
2.2250,1810
2.2278,1940
2.2306,1941
2.2333,1963
2.2361,1989
2.2389,1999
2.2417,1998
2.2444,1999
2.2472,1989
2.2500,1993
2.2528,2004
2.2556,2019
2.2583,2035
2.2611,2057
2.2639,2064
2.2667,2068
2.2694,2054
2.2722,2051
2.2750,2054
2.2778,2068
2.2806,2080
2.2833,2088
2.2861,2088
2.2889,2085
2.2917,2074
2.2944,2052
2.2972,2032
2.3000,2012
2.3028,1984
2.3056,1951
2.3083,1938
2.3111,1913
2.3139,1898
2.3167,1867
2.3194,1852
2.3222,1832
2.3250,1815
2.3278,1784
2.3306,1763
2.3333,1762
2.3361,1754
2.3389,1742
2.3417,1718
2.3444,1692
2.3472,1679
2.3500,1678
2.3528,1674
2.3556,1681
2.3583,1672
2.3611,1672
2.3639,1656
2.3667,1638
2.3694,1633
2.3722,1629
2.3750,1637
2.3778,1642
2.3806,1638
2.3833,1632
2.3861,1622
2.3889,1609
2.3917,1619
2.3944,1633
2.3972,1646
2.4000,1658
2.4028,1650
2.4056,1638
2.4083,1631
2.4111,1626
2.4139,1620
2.4167,1630
2.4194,1620
2.4222,1614
2.4250,1610
2.4278,1608
2.4306,1616
2.4333,1628
2.4361,1645
2.4389,1656
2.4417,1650
2.4444,1652
2.4472,1646
2.4500,1630
2.4528,1631
2.4556,1636
2.4583,1641
2.4611,1650
2.4639,1645
2.4667,1648
2.4694,1652
2.4722,1662
2.4750,1669
2.4778,1659
2.4806,1650
2.4833,1640
2.4861,1638
2.4889,1638
2.4917,1638
2.4944,1646
2.4972,1662
2.5000,1660
2.5028,1659
2.5056,1650
2.5083,1652
2.5111,1646
2.5139,1646
2.5167,1655
2.5194,1651
2.5222,1649
2.5250,1649
2.5278,1647
2.5306,1646
2.5333,1644
2.5361,1642
2.5389,1645
2.5417,1650
2.5444,1645
2.5472,1649
2.5500,1642
2.5528,1639
2.5556,1637
2.5583,1641
2.5611,1650
2.5639,1651
2.5667,1642
2.5694,1647
2.5722,1654
2.5750,1661
2.5778,1660
2.5806,1653
2.5833,1654
2.5861,1652
2.5889,1649
2.5917,1658
2.5944,1661
2.5972,1663
2.6000,1670
2.6028,1668
2.6056,1664
2.6083,1663
2.6111,1668
2.6139,1659
2.6167,1661
2.6194,1667
2.6222,1671
2.6250,1671
2.6278,1675
2.6306,1678
2.6333,1669
2.6361,1673
2.6389,1674
2.6417,1670
2.6444,1661
2.6472,1667
2.6500,1668
2.6528,1667
2.6556,1671
2.6583,1666
2.6611,1668
2.6639,1673
2.6667,1678
2.6694,1679
2.6722,1683
2.6750,1689
2.6778,1691
2.6806,1678
2.6833,1672
2.6861,1661
2.6889,1657
2.6917,1658
2.6944,1678
2.6972,1681
2.7000,1680
2.7028,1678
2.7056,1678
2.7083,1676
2.7111,1684
2.7139,1687
2.7167,1688
2.7194,1694
2.7222,1693
2.7250,1692
2.7278,1692
2.7306,1695
2.7333,1691
2.7361,1697
2.7389,1699
2.7417,1704
2.7444,1693
2.7472,1690
2.7500,1681
2.7528,1686
2.7556,1681
2.7583,1679
2.7611,1684
2.7639,1691
2.7667,1698
2.7694,1711
2.7722,1694
2.7750,1705
2.7778,1700
2.7806,1696
2.7833,1683
2.7861,1681
2.7889,1692
2.7917,1704
2.7944,1703
2.7972,1713
2.8000,1717
2.8028,1712
2.8056,1711
2.8083,1702
2.8111,1701
2.8139,1712
2.8167,1706
2.8194,1713
2.8222,1716
2.8250,1724
2.8278,1718
2.8306,1724
2.8333,1715
2.8361,1721
2.8389,1726
2.8417,1721
2.8444,1726
2.8472,1724
2.8500,1732
2.8528,1728
2.8556,1726
2.8583,1725
2.8611,1723
2.8639,1728
2.8667,1723
2.8694,1723
2.8722,1725
2.8750,1725
2.8778,1733
2.8806,1732
2.8833,1736
2.8861,1752
2.8889,1755
2.8917,1762
2.8944,1745
2.8972,1753
2.9000,1758
2.9028,1758
2.9056,1748
2.9083,1749
2.9111,1755
2.9139,1751
2.9167,1759
2.9194,1748
2.9222,1752
2.9250,1750
2.9278,1752
2.9306,1752
2.9333,1759
2.9361,1767
2.9389,1771
2.9417,1777
2.9444,1770
2.9472,1769
2.9500,1762
2.9528,1768
2.9556,1759
2.9583,1763
2.9611,1759
2.9639,1756
2.9667,1754
2.9694,1761
2.9722,1771
2.9750,1771
2.9778,1771
2.9806,1770
2.9833,1770
2.9861,1769
2.9889,1760
2.9917,1765
2.9944,1766
2.9972,1774
3.0000,1780
3.0028,1774
3.0056,1783
3.0083,1774
3.0111,1772
3.0139,1770
3.0167,1776
3.0194,1775
3.0222,1784
3.0250,1777
3.0278,1779
3.0306,1776
3.0333,1779
3.0361,1773
3.0389,1768
3.0417,1772
3.0444,1771
3.0472,1772
3.0500,1780
3.0528,1789
3.0556,1781
3.0583,1774
3.0611,1776
3.0639,1779
3.0667,1771
3.0694,1777
3.0722,1773
3.0750,1776
3.0778,1773
3.0806,1768
3.0833,1772
3.0861,1766
3.0889,1753
3.0917,1761
3.0944,1761
3.0972,1764
3.1000,1771
3.1028,1767
3.1056,1758
3.1083,1762
3.1111,1762
3.1139,1758
3.1167,1768
3.1194,1768
3.1222,1769
3.1250,1771
3.1278,1763
3.1306,1764
3.1333,1767
3.1361,1768
3.1389,1765
3.1417,1762
3.1444,1765
3.1472,1761
3.1500,1751
3.1528,1750
3.1556,1743
3.1583,1740
3.1611,1743
3.1639,1756
3.1667,1770
3.1694,1784
3.1722,1778
3.1750,1781
3.1778,1769
3.1806,1760
3.1833,1769
3.1861,1778
3.1889,1794
3.1917,1808
3.1944,1828
3.1972,1831
3.2000,1838
3.2028,1829
3.2056,1833
3.2083,1828
3.2111,1821
3.2139,1816
3.2167,1824
3.2194,1838
3.2222,1844
3.2250,1850
3.2278,1870
3.2306,1861
3.2333,1874
3.2361,1856
3.2389,1836
3.2417,1821
3.2444,1800
3.2472,1788
3.2500,1793
3.2528,1796
3.2556,1798
3.2583,1804
3.2611,1798
3.2639,1792
3.2667,1780
3.2694,1759
3.2722,1737
3.2750,1729
3.2778,1727
3.2806,1721
3.2833,1715
3.2861,1719
3.2889,1713
3.2917,1710
3.2944,1710
3.2972,1713
3.3000,1712
3.3028,1710
3.3056,1700
3.3083,1673
3.3111,1616
3.3139,1562
3.3167,1530
3.3194,1563
3.3222,1653
3.3250,1794
3.3278,1997
3.3306,2244
3.3333,2562
3.3361,2938
3.3389,3272
3.3417,3354
3.3444,3374
3.3472,3368
3.3500,3375
3.3528,3366
3.3556,3039
3.3583,2432
3.3611,1811
3.3639,1356
3.3667,1088
3.3694,959
3.3722,897
3.3750,880
3.3778,894
3.3806,934
3.3833,987
3.3861,1026
3.3889,1083
3.3917,1189
3.3944,1352
3.3972,1516
3.4000,1636
3.4028,1718
3.4056,1750
3.4083,1739
3.4111,1705
3.4139,1674
3.4167,1666
3.4194,1683
3.4222,1704
3.4250,1720
3.4278,1731
3.4306,1719
3.4333,1715
3.4361,1698
3.4389,1701
3.4417,1711
3.4444,1726
3.4472,1731
3.4500,1732
3.4528,1707
3.4556,1702
3.4583,1707
3.4611,1736
3.4639,1744
3.4667,1745
3.4694,1736
3.4722,1718
3.4750,1709
3.4778,1717
3.4806,1732
3.4833,1761
3.4861,1763
3.4889,1761
3.4917,1748
3.4944,1735
3.4972,1730
3.5000,1746
3.5028,1760
3.5056,1767
3.5083,1775
3.5111,1773
3.5139,1780
3.5167,1766
3.5194,1773
3.5222,1787
3.5250,1787
3.5278,1795
3.5306,1794
3.5333,1782
3.5361,1792
3.5389,1798
3.5417,1809
3.5444,1815
3.5472,1818
3.5500,1806
3.5528,1800
3.5556,1943
3.5583,1946
3.5611,1967
3.5639,1998
3.5667,2019
3.5694,2023
3.5722,2025
3.5750,2021
3.5778,2018
3.5806,2031
3.5833,2048
3.5861,2063
3.5889,2059
3.5917,2054
3.5944,2058
3.5972,2062
3.6000,2075
3.6028,2093
3.6056,2109
3.6083,2101
3.6111,2083
3.6139,2065
3.6167,2056
3.6194,2051
3.6222,2035
3.6250,2025
3.6278,2004
3.6306,1975
3.6333,1944
3.6361,1913
3.6389,1880
3.6417,1861
3.6444,1846
3.6472,1818
3.6500,1779
3.6528,1746
3.6556,1726
3.6583,1704
3.6611,1697
3.6639,1693
3.6667,1678
3.6694,1665
3.6722,1640
3.6750,1607
3.6778,1597
3.6806,1594
3.6833,1596
3.6861,1597
3.6889,1589
3.6917,1576
3.6944,1566
3.6972,1562
3.7000,1560
3.7028,1562
3.7056,1583
3.7083,1588
3.7111,1584
3.7139,1576
3.7167,1567
3.7194,1569
3.7222,1570
3.7250,1575
3.7278,1574
3.7306,1568
3.7333,1563
3.7361,1572
3.7389,1579
3.7417,1579
3.7444,1597
3.7472,1597
3.7500,1587
3.7528,1588
3.7556,1578
3.7583,1581
3.7611,1592
3.7639,1592
3.7667,1591
3.7694,1590
3.7722,1585
3.7750,1576
3.7778,1586
3.7806,1599
3.7833,1602
3.7861,1622
3.7889,1598
3.7917,1601
3.7944,1598
3.7972,1596
3.8000,1589
3.8028,1598
3.8056,1607
3.8083,1598
3.8111,1596
3.8139,1593
3.8167,1598
3.8194,1601
3.8222,1604
3.8250,1598
3.8278,1608
3.8306,1595
3.8333,1587
3.8361,1586
3.8389,1595
3.8417,1599
3.8444,1589
3.8472,1590
3.8500,1584
3.8528,1600
3.8556,1610
3.8583,1603
3.8611,1600
3.8639,1608
3.8667,1596
3.8694,1599
3.8722,1585
3.8750,1574
3.8778,1562
3.8806,1572
3.8833,1581
3.8861,1584
3.8889,1590
3.8917,1591
3.8944,1581
3.8972,1582
3.9000,1584
3.9028,1585
3.9056,1600
3.9083,1586
3.9111,1581
3.9139,1570
3.9167,1569
3.9194,1576
3.9222,1576
3.9250,1583
3.9278,1586
3.9306,1594
3.9333,1591
3.9361,1580
3.9389,1579
3.9417,1575
3.9444,1593
3.9472,1587
3.9500,1592
3.9528,1587
3.9556,1592
3.9583,1594
3.9611,1600
3.9639,1604
3.9667,1610
3.9694,1609
3.9722,1615
3.9750,1604
3.9778,1600
3.9806,1605
3.9833,1609
3.9861,1608
3.9889,1609
3.9917,1596
3.9944,1596
3.9972,1591
4.0000,1599
4.0028,1616
4.0056,1626
4.0083,1626
4.0111,1617
4.0139,1618
4.0167,1611
4.0194,1615
4.0222,1604
4.0250,1605
4.0278,1612
4.0306,1608
4.0333,1609
4.0361,1626
4.0389,1639
4.0417,1643
4.0444,1638
4.0472,1627
4.0500,1634
4.0528,1624
4.0556,1619
4.0583,1614
4.0611,1606
4.0639,1616
4.0667,1620
4.0694,1639
4.0722,1631
4.0750,1628
4.0778,1638
4.0806,1644
4.0833,1642
4.0861,1643
4.0889,1639
4.0917,1627
4.0944,1623
4.0972,1634
4.1000,1644
4.1028,1638
4.1056,1638
4.1083,1627
4.1111,1632
4.1139,1634
4.1167,1629
4.1194,1628
4.1222,1623
4.1250,1633
4.1278,1633
4.1306,1635
4.1333,1642
4.1361,1638
4.1389,1640
4.1417,1641
4.1444,1638
4.1472,1635
4.1500,1642
4.1528,1646
4.1556,1641
4.1583,1637
4.1611,1649
4.1639,1656
4.1667,1656
4.1694,1650
4.1722,1655
4.1750,1646
4.1778,1638
4.1806,1647
4.1833,1670
4.1861,1666
4.1889,1663
4.1917,1665
4.1944,1667
4.1972,1662
4.2000,1667
4.2028,1672
4.2056,1671
4.2083,1680
4.2111,1678
4.2139,1672
4.2167,1678
4.2194,1680
4.2222,1678
4.2250,1680
4.2278,1676
4.2306,1680
4.2333,1687
4.2361,1693
4.2389,1698
4.2417,1696
4.2444,1696
4.2472,1691
4.2500,1682
4.2528,1681
4.2556,1695
4.2583,1687
4.2611,1689
4.2639,1702
4.2667,1700
4.2694,1694
4.2722,1691
4.2750,1681
4.2778,1679
4.2806,1675
4.2833,1682
4.2861,1693
4.2889,1697
4.2917,1695
4.2944,1696
4.2972,1694
4.3000,1708
4.3028,1709
4.3056,1711
4.3083,1700
4.3111,1694
4.3139,1691
4.3167,1683
4.3194,1686
4.3222,1692
4.3250,1686
4.3278,1684
4.3306,1686
4.3333,1695
4.3361,1705
4.3389,1701
4.3417,1716
4.3444,1709
4.3472,1713
4.3500,1710
4.3528,1718
4.3556,1711
4.3583,1710
4.3611,1719
4.3639,1715
4.3667,1712
4.3694,1710
4.3722,1703
4.3750,1701
4.3778,1707
4.3806,1701
4.3833,1703
4.3861,1716
4.3889,1726
4.3917,1723
4.3944,1726
4.3972,1727
4.4000,1727
4.4028,1712
4.4056,1702
4.4083,1699
4.4111,1698
4.4139,1703
4.4167,1715
4.4194,1729
4.4222,1738
4.4250,1750
4.4278,1746
4.4306,1739
4.4333,1734
4.4361,1728
4.4389,1727
4.4417,1729
4.4444,1728
4.4472,1735
4.4500,1739
4.4528,1739
4.4556,1731
4.4583,1739
4.4611,1741
4.4639,1738
4.4667,1741
4.4694,1745
4.4722,1744
4.4750,1743
4.4778,1730
4.4806,1731
4.4833,1738
4.4861,1738
4.4889,1728
4.4917,1737
4.4944,1728
4.4972,1726
4.5000,1726
4.5028,1725
4.5056,1728
4.5083,1734
4.5111,1743
4.5139,1736
4.5167,1733
4.5194,1732
4.5222,1727
4.5250,1734
4.5278,1733
4.5306,1732
4.5333,1732
4.5361,1725
4.5389,1724
4.5417,1733
4.5444,1724
4.5472,1724
4.5500,1727
4.5528,1729
4.5556,1731
4.5583,1723
4.5611,1715
4.5639,1727
4.5667,1737
4.5694,1733
4.5722,1732
4.5750,1726
4.5778,1728
4.5806,1733
4.5833,1743
4.5861,1768
4.5889,1796
4.5917,1805
4.5944,1813
4.5972,1821
4.6000,1821
4.6028,1815
4.6056,1806
4.6083,1807
4.6111,1815
4.6139,1818
4.6167,1828
4.6194,1819
4.6222,1832
4.6250,1838
4.6278,1853
4.6306,1853
4.6333,1837
4.6361,1831
4.6389,1812
4.6417,1796
4.6444,1792
4.6472,1791
4.6500,1795
4.6528,1799
4.6556,1802
4.6583,1802
4.6611,1797
4.6639,1759
4.6667,1688
4.6694,1586
4.6722,1516
4.6750,1513
4.6778,1593
4.6806,1733
4.6833,1919
4.6861,2171
4.6889,2471
4.6917,2854
4.6944,3238
4.6972,3356
4.7000,3367
4.7028,3379
4.7056,3371
4.7083,3371
4.7111,3281
4.7139,2762
4.7167,2087
4.7194,1477
4.7222,1088
4.7250,885
4.7278,808
4.7306,783
4.7333,802
4.7361,865
4.7389,928
4.7417,984
4.7444,1056
4.7472,1175
4.7500,1340
4.7528,1491
4.7556,1597
4.7583,1676
4.7611,1699
4.7639,1692
4.7667,1659
4.7694,1631
4.7722,1618
4.7750,1626
4.7778,1660
4.7806,1695
4.7833,1703
4.7861,1703
4.7889,1686
4.7917,1667
4.7944,1672
4.7972,1689
4.8000,1718
4.8028,1736
4.8056,1730
4.8083,1704
4.8111,1682
4.8139,1683
4.8167,1693
4.8194,1720
4.8222,1745
4.8250,1737
4.8278,1724
4.8306,1709
4.8333,1698
4.8361,1717
4.8389,1734
4.8417,1745
4.8444,1746
4.8472,1723
4.8500,1712
4.8528,1705
4.8556,1713
4.8583,1737
4.8611,1768
4.8639,1777
4.8667,1767
4.8694,1742
4.8722,1743
4.8750,1742
4.8778,1761
4.8806,1769
4.8833,1783
4.8861,1787
4.8889,1770
4.8917,1760
4.8944,1769
4.8972,1792
4.9000,1810
4.9028,1816
4.9056,1818
4.9083,1800
4.9111,1792
4.9139,1935
4.9167,1947
4.9194,1972
4.9222,1979
4.9250,1985
4.9278,1982
4.9306,1983
4.9333,1979
4.9361,1989
4.9389,2015
4.9417,2034
4.9444,2052
4.9472,2055
4.9500,2044
4.9528,2046
4.9556,2061
4.9583,2065
4.9611,2068
4.9639,2061
4.9667,2047
4.9694,2023
4.9722,2001
4.9750,2003
4.9778,2013
4.9806,2027
4.9833,2022
4.9861,1994
4.9889,1959
4.9917,1924
4.9944,1882
4.9972,1860
5.0000,1836
5.0028,1813
5.0056,1779
5.0083,1764
5.0111,1736
5.0139,1707
5.0167,1705
5.0194,1694
5.0222,1671
5.0250,1656
5.0278,1631
5.0306,1604
5.0333,1587
5.0361,1595
5.0389,1592
5.0417,1602
5.0444,1594
5.0472,1588
5.0500,1571
5.0528,1560
5.0556,1559
5.0583,1565
5.0611,1577
5.0639,1583
5.0667,1562
5.0694,1559
5.0722,1558
5.0750,1572
5.0778,1571
5.0806,1577
5.0833,1576
5.0861,1578
5.0889,1571
5.0917,1577
5.0944,1570
5.0972,1584
5.1000,1596
5.1028,1591
5.1056,1592
5.1083,1587
5.1111,1576
5.1139,1577
5.1167,1591
5.1194,1608
5.1222,1620
5.1250,1618
5.1278,1607
5.1306,1597
5.1333,1600
5.1361,1598
5.1389,1589
5.1417,1590
5.1444,1590
5.1472,1594
5.1500,1591
5.1528,1591
5.1556,1588
5.1583,1599
5.1611,1599
5.1639,1600
5.1667,1597
5.1694,1591
5.1722,1586
5.1750,1583
5.1778,1597
5.1806,1600
5.1833,1606
5.1861,1606
5.1889,1610
5.1917,1600
5.1944,1597
5.1972,1599
5.2000,1600
5.2028,1597
5.2056,1595
5.2083,1585
5.2111,1576
5.2139,1580
5.2167,1583
5.2194,1588
5.2222,1600
5.2250,1593
5.2278,1591
5.2306,1580
5.2333,1569
5.2361,1564
5.2389,1571
5.2417,1572
5.2444,1571
5.2472,1568
5.2500,1572
5.2528,1572
5.2556,1579
5.2583,1584
5.2611,1592
5.2639,1583
5.2667,1585
5.2694,1570
5.2722,1560
5.2750,1560
5.2778,1562
5.2806,1573
5.2833,1584
5.2861,1585
5.2889,1580
5.2917,1582
5.2944,1586
5.2972,1584
5.3000,1583
5.3028,1579
5.3056,1569
5.3083,1563
5.3111,1574
5.3139,1584
5.3167,1598
5.3194,1589
5.3222,1587
5.3250,1579
5.3278,1586
5.3306,1585
5.3333,1597
5.3361,1613
5.3389,1615
5.3417,1619
5.3444,1611
5.3472,1607
5.3500,1599
5.3528,1591
5.3556,1584
5.3583,1597
5.3611,1602
5.3639,1611
5.3667,1594
5.3694,1589
5.3722,1596
5.3750,1600
5.3778,1600
5.3806,1612
5.3833,1615
5.3861,1621
5.3889,1612
5.3917,1599
5.3944,1597
5.3972,1597
5.4000,1609
5.4028,1613
5.4056,1609
5.4083,1599
5.4111,1603
5.4139,1611
5.4167,1613
5.4194,1635
5.4222,1636
5.4250,1641
5.4278,1644
5.4306,1640
5.4333,1627
5.4361,1630
5.4389,1625
5.4417,1637
5.4444,1628
5.4472,1628
5.4500,1634
5.4528,1637
5.4556,1643
5.4583,1646
5.4611,1635
5.4639,1636
5.4667,1631
5.4694,1625
5.4722,1632
5.4750,1626
5.4778,1635
5.4806,1638
5.4833,1640
5.4861,1636
5.4889,1638
5.4917,1640
5.4944,1636
5.4972,1646
5.5000,1647
5.5028,1648
5.5056,1650
5.5083,1645
5.5111,1648
5.5139,1653
5.5167,1652
5.5194,1656
5.5222,1656
5.5250,1657
5.5278,1652
5.5306,1657
5.5333,1660
5.5361,1657
5.5389,1648
5.5417,1647
5.5444,1644
5.5472,1646
5.5500,1642
5.5528,1638
5.5556,1643
5.5583,1646
5.5611,1658
5.5639,1667
5.5667,1657
5.5694,1654
5.5722,1653
5.5750,1642
5.5778,1639
5.5806,1634
5.5833,1646
5.5861,1639
5.5889,1653
5.5917,1655
5.5944,1653
5.5972,1659
5.6000,1663
5.6028,1669
5.6056,1671
5.6083,1673
5.6111,1672
5.6139,1670
5.6167,1658
5.6194,1658
5.6222,1653
5.6250,1656
5.6278,1672
5.6306,1679
5.6333,1673
5.6361,1672
5.6389,1673
5.6417,1670
5.6444,1676
5.6472,1676
5.6500,1688
5.6528,1689
5.6556,1692
5.6583,1688
5.6611,1677
5.6639,1674
5.6667,1667
5.6694,1677
5.6722,1671
5.6750,1690
5.6778,1695
5.6806,1692
5.6833,1693
5.6861,1694
5.6889,1681
5.6917,1673
5.6944,1672
5.6972,1677
5.7000,1685
5.7028,1684
5.7056,1681
5.7083,1678
5.7111,1673
5.7139,1675
5.7167,1682
5.7194,1682
5.7222,1700
5.7250,1688
5.7278,1691
5.7306,1692
5.7333,1684
5.7361,1681
5.7389,1671
5.7417,1655
5.7444,1661
5.7472,1666
5.7500,1687
5.7528,1690
5.7556,1694
5.7583,1703
5.7611,1706
5.7639,1705
5.7667,1697
5.7694,1686
5.7722,1685
5.7750,1685
5.7778,1688
5.7806,1696
5.7833,1688
5.7861,1695
5.7889,1695
5.7917,1694
5.7944,1693
5.7972,1694
5.8000,1696
5.8028,1694
5.8056,1698
5.8083,1696
5.8111,1694
5.8139,1694
5.8167,1685
5.8194,1668
5.8222,1681
5.8250,1681
5.8278,1681
5.8306,1678
5.8333,1680
5.8361,1686
5.8389,1694
5.8417,1704
5.8444,1708
5.8472,1703
5.8500,1693
5.8528,1692
5.8556,1685
5.8583,1686
5.8611,1677
5.8639,1682
5.8667,1683
5.8694,1678
5.8722,1685
5.8750,1687
5.8778,1692
5.8806,1706
5.8833,1707
5.8861,1700
5.8889,1692
5.8917,1674
5.8944,1663
5.8972,1673
5.9000,1676
5.9028,1675
5.9056,1674
5.9083,1691
5.9111,1703
5.9139,1708
5.9167,1717
5.9194,1730
5.9222,1737
5.9250,1750
5.9278,1766
5.9306,1766
5.9333,1774
5.9361,1766
5.9389,1760
5.9417,1741
5.9444,1732
5.9472,1739
5.9500,1765
5.9528,1773
5.9556,1793
5.9583,1805
5.9611,1811
5.9639,1807
5.9667,1811
5.9694,1789
5.9722,1766
5.9750,1742
5.9778,1746
5.9806,1741
5.9833,1743
5.9861,1746
5.9889,1748
5.9917,1758
5.9944,1749
5.9972,1742
6.0000,1711
6.0028,1662
6.0056,1602
6.0083,1518
6.0111,1472
6.0139,1484
6.0167,1564
6.0194,1712
6.0222,1909
6.0250,2166
6.0278,2486
6.0306,2842
6.0333,3214
6.0361,3351
6.0389,3363
6.0417,3376
6.0444,3370
6.0472,3354
6.0500,2998
6.0528,2398
6.0556,1797
6.0583,1357
6.0611,1092
6.0639,949
6.0667,875
6.0694,827
6.0722,820
6.0750,851
6.0778,895
6.0806,937
6.0833,973
6.0861,1062
6.0889,1200
6.0917,1375
6.0944,1515
6.0972,1607
6.1000,1645
6.1028,1645
6.1056,1613
6.1083,1594
6.1111,1583
6.1139,1593
6.1167,1618
6.1194,1630
6.1222,1626
6.1250,1619
6.1278,1605
6.1306,1618
6.1333,1629
6.1361,1647
6.1389,1655
6.1417,1662
6.1444,1657
6.1472,1653
6.1500,1652
6.1528,1656
6.1556,1658
6.1583,1668
6.1611,1672
6.1639,1661
6.1667,1661
6.1694,1663
6.1722,1677
6.1750,1693
6.1778,1711
6.1806,1709
6.1833,1691
6.1861,1681
6.1889,1675
6.1917,1685
6.1944,1695
6.1972,1701
6.2000,1706
6.2028,1705
6.2056,1700
6.2083,1706
6.2111,1714
6.2139,1723
6.2167,1739
6.2194,1748
6.2222,1741
6.2250,1739
6.2278,1726
6.2306,1723
6.2333,1733
6.2361,1732
6.2389,1734
6.2417,1730
6.2444,1743
6.2472,1732
6.2500,1896
6.2528,1896
6.2556,1888
6.2583,1922
6.2611,1948
6.2639,1973
6.2667,1989
6.2694,1989
6.2722,1973
6.2750,1982
6.2778,2001
6.2806,2024
6.2833,2036
6.2861,2018
6.2889,2001
6.2917,2009
6.2944,2021
6.2972,2041
6.3000,2042
6.3028,2044
6.3056,2031
6.3083,2021
6.3111,2008
6.3139,1998
6.3167,1989
6.3194,1973
6.3222,1947
6.3250,1925
6.3278,1890
6.3306,1867
6.3333,1859
6.3361,1847
6.3389,1832
6.3417,1797
6.3444,1772
6.3472,1743
6.3500,1716
6.3528,1695
6.3556,1673
6.3583,1662
6.3611,1646
6.3639,1639
6.3667,1614
6.3694,1594
6.3722,1577
6.3750,1582
6.3778,1588
6.3806,1595
6.3833,1591
6.3861,1567
6.3889,1530
6.3917,1530
6.3944,1551
6.3972,1572
6.4000,1587
6.4028,1584
6.4056,1568
6.4083,1549
6.4111,1554
6.4139,1562
6.4167,1572
6.4194,1592
6.4222,1589
6.4250,1586
6.4278,1572
6.4306,1570
6.4333,1580
6.4361,1591
6.4389,1584
6.4417,1580
6.4444,1570
6.4472,1560
6.4500,1560
6.4528,1564
6.4556,1565
6.4583,1581
6.4611,1587
6.4639,1594
6.4667,1596
6.4694,1583
6.4722,1584
6.4750,1568
6.4778,1575
6.4806,1588
6.4833,1580
6.4861,1584
6.4889,1581
6.4917,1592
6.4944,1606
6.4972,1636
6.5000,1644
6.5028,1634
6.5056,1619
6.5083,1591
6.5111,1574
6.5139,1574
6.5167,1582
6.5194,1605
6.5222,1603
6.5250,1605
6.5278,1597
6.5306,1602
6.5333,1610
6.5361,1599
6.5389,1600
6.5417,1602
6.5444,1604
6.5472,1602
6.5500,1592
6.5528,1577
6.5556,1567
6.5583,1574
6.5611,1589
6.5639,1596
6.5667,1596
6.5694,1602
6.5722,1590
6.5750,1581
6.5778,1578
6.5806,1583
6.5833,1583
6.5861,1592
6.5889,1604
6.5917,1609
6.5944,1596
6.5972,1590
6.6000,1589
6.6028,1592
6.6056,1594
6.6083,1595
6.6111,1582
6.6139,1581
6.6167,1584
6.6194,1604
6.6222,1623
6.6250,1630
6.6278,1620
6.6306,1610
6.6333,1603
6.6361,1591
6.6389,1613
6.6417,1611
6.6444,1621
6.6472,1613
6.6500,1604
6.6528,1595
6.6556,1598
6.6583,1594
6.6611,1599
6.6639,1604
6.6667,1597
6.6694,1611
6.6722,1606
6.6750,1602
6.6778,1614
6.6806,1625
6.6833,1621
6.6861,1622
6.6889,1616
6.6917,1591
6.6944,1595
6.6972,1608
6.7000,1614
6.7028,1613
6.7056,1597
6.7083,1584
6.7111,1581
6.7139,1606
6.7167,1625
6.7194,1640
6.7222,1636
6.7250,1628
6.7278,1616
6.7306,1609
6.7333,1619
6.7361,1621
6.7389,1605
6.7417,1592
6.7444,1579
6.7472,1600
6.7500,1607
6.7528,1623
6.7556,1633
6.7583,1632
6.7611,1638
6.7639,1645
6.7667,1631
6.7694,1616
6.7722,1617
6.7750,1615
6.7778,1623
6.7806,1638
6.7833,1648
6.7861,1660
6.7889,1647
6.7917,1647
6.7944,1648
6.7972,1641
6.8000,1643
6.8028,1633
6.8056,1638
6.8083,1654
6.8111,1659
6.8139,1671
6.8167,1678
6.8194,1658
6.8222,1663
6.8250,1656
6.8278,1662
6.8306,1659
6.8333,1658
6.8361,1644
6.8389,1648
6.8417,1650
6.8444,1658
6.8472,1666
6.8500,1679
6.8528,1669
6.8556,1663
6.8583,1662
6.8611,1671
6.8639,1668
6.8667,1660
6.8694,1667
6.8722,1676
6.8750,1690
6.8778,1680
6.8806,1662
6.8833,1661
6.8861,1663
6.8889,1670
6.8917,1673
6.8944,1665
6.8972,1667
6.9000,1667
6.9028,1662
6.9056,1657
6.9083,1671
6.9111,1676
6.9139,1685
6.9167,1685
6.9194,1684
6.9222,1672
6.9250,1679
6.9278,1680
6.9306,1679
6.9333,1668
6.9361,1673
6.9389,1660
6.9417,1671
6.9444,1683
6.9472,1701
6.9500,1713
6.9528,1715
6.9556,1715
6.9583,1700
6.9611,1684
6.9639,1675
6.9667,1670
6.9694,1684
6.9722,1688
6.9750,1700
6.9778,1709
6.9806,1717
6.9833,1719
6.9861,1719
6.9889,1708
6.9917,1689
6.9944,1689
6.9972,1698
7.0000,1713
7.0028,1726
7.0056,1721
7.0083,1707
7.0111,1696
7.0139,1697
7.0167,1710
7.0194,1715
7.0222,1727
7.0250,1731
7.0278,1723
7.0306,1718
7.0333,1704
7.0361,1710
7.0389,1711
7.0417,1713
7.0444,1724
7.0472,1729
7.0500,1718
7.0528,1707
7.0556,1690
7.0583,1692
7.0611,1691
7.0639,1694
7.0667,1700
7.0694,1703
7.0722,1715
7.0750,1725
7.0778,1726
7.0806,1724
7.0833,1719
7.0861,1722
7.0889,1732
7.0917,1745
7.0944,1730
7.0972,1726
7.1000,1729
7.1028,1729
7.1056,1725
7.1083,1728
7.1111,1736
7.1139,1731
7.1167,1746
7.1194,1751
7.1222,1754
7.1250,1751
7.1278,1748
7.1306,1745
7.1333,1740
7.1361,1730
7.1389,1722
7.1417,1714
7.1444,1718
7.1472,1723
7.1500,1735
7.1528,1748
7.1556,1749
7.1583,1749
7.1611,1737
7.1639,1745
7.1667,1744
7.1694,1754
7.1722,1762
7.1750,1757
7.1778,1754
7.1806,1755
7.1833,1758
7.1861,1756
7.1889,1771
7.1917,1758
7.1944,1755
7.1972,1755
7.2000,1752
7.2028,1748
7.2056,1739
7.2083,1747
7.2111,1750
7.2139,1742
7.2167,1747
7.2194,1754
7.2222,1751
7.2250,1756
7.2278,1766
7.2306,1782
7.2333,1796
7.2361,1811
7.2389,1821
7.2417,1839
7.2444,1843
7.2472,1837
7.2500,1818
7.2528,1805
7.2556,1800
7.2583,1815
7.2611,1834
7.2639,1849
7.2667,1849
7.2694,1850
7.2722,1849
7.2750,1854
7.2778,1849
7.2806,1833
7.2833,1819
7.2861,1805
7.2889,1804
7.2917,1809
7.2944,1811
7.2972,1807
7.3000,1817
7.3028,1808
7.3056,1819
7.3083,1812
7.3111,1804
7.3139,1782
7.3167,1761
7.3194,1747
7.3222,1722
7.3250,1697
7.3278,1685
7.3306,1650
7.3333,1606
7.3361,1561
7.3389,1538
7.3417,1580
7.3444,1678
7.3472,1833
7.3500,2037
7.3528,2286
7.3556,2595
7.3583,2954
7.3611,3268
7.3639,3349
7.3667,3369
7.3694,3368
7.3722,3373
7.3750,3338
7.3778,2981
7.3806,2403
7.3833,1866
7.3861,1469
7.3889,1242
7.3917,1109
7.3944,1045
7.3972,993
7.4000,968
7.4028,973
7.4056,984
7.4083,1000
7.4111,1042
7.4139,1118
7.4167,1262
7.4194,1432
7.4222,1572
7.4250,1665
7.4278,1702
7.4306,1698
7.4333,1681
7.4361,1679
7.4389,1682
7.4417,1693
7.4444,1712
7.4472,1705
7.4500,1712
7.4528,1697
7.4556,1688
7.4583,1689
7.4611,1701
7.4639,1719
7.4667,1739
7.4694,1734
7.4722,1729
7.4750,1722
7.4778,1730
7.4806,1746
7.4833,1769
7.4861,1775
7.4889,1772
7.4917,1746
7.4944,1731
7.4972,1721
7.5000,1753
7.5028,1764
7.5056,1784
7.5083,1786
7.5111,1776
7.5139,1769
7.5167,1758
7.5194,1755
7.5222,1770
7.5250,1782
7.5278,1802
7.5306,1802
7.5333,1790
7.5361,1776
7.5389,1778
7.5417,1776
7.5444,1790
7.5472,1796
7.5500,1807
7.5528,1818
7.5556,1809
7.5583,1784
7.5611,1777
7.5639,1787
7.5667,1814
7.5694,1835
7.5722,1840
7.5750,1847
7.5778,1985
7.5806,1989
7.5833,2009
7.5861,2016
7.5889,2023
7.5917,2021
7.5944,2020
7.5972,2024
7.6000,2036
7.6028,2065
7.6056,2087
7.6083,2094
7.6111,2088
7.6139,2084
7.6167,2079
7.6194,2081
7.6222,2088
7.6250,2095
7.6278,2109
7.6306,2103
7.6333,2096
7.6361,2090
7.6389,2063
7.6417,2044
7.6444,2050
7.6472,2046
7.6500,2017
7.6528,2003
7.6556,1984
7.6583,1945
7.6611,1931
7.6639,1918
7.6667,1891
7.6694,1865
7.6722,1844
7.6750,1824
7.6778,1795
7.6806,1769
7.6833,1761
7.6861,1745
7.6889,1731
7.6917,1708
7.6944,1699
7.6972,1671
7.7000,1677
7.7028,1677
7.7056,1689
7.7083,1693
7.7111,1685
7.7139,1662
7.7167,1648
7.7194,1645
7.7222,1658
7.7250,1660
7.7278,1660
7.7306,1660
7.7333,1648
7.7361,1662
7.7389,1664
7.7417,1667
7.7444,1666
7.7472,1663
7.7500,1666
7.7528,1660
7.7556,1666
7.7583,1660
7.7611,1665
7.7639,1675
7.7667,1679
7.7694,1673
7.7722,1681
7.7750,1681
7.7778,1671
7.7806,1679
7.7833,1686
7.7861,1687
7.7889,1682
7.7917,1694
7.7944,1688
7.7972,1672
7.8000,1676
7.8028,1688
7.8056,1692
7.8083,1684
7.8111,1694
7.8139,1681
7.8167,1677
7.8194,1680
7.8222,1678
7.8250,1694
7.8278,1700
7.8306,1705
7.8333,1700
7.8361,1699
7.8389,1693
7.8417,1679
7.8444,1677
7.8472,1676
7.8500,1683
7.8528,1683
7.8556,1687
7.8583,1678
7.8611,1687
7.8639,1687
7.8667,1686
7.8694,1692
7.8722,1690
7.8750,1696
7.8778,1692
7.8806,1688
7.8833,1692
7.8861,1683
7.8889,1683
7.8917,1675
7.8944,1681
7.8972,1677
7.9000,1688
7.9028,1689
7.9056,1684
7.9083,1690
7.9111,1683
7.9139,1673
7.9167,1665
7.9194,1670
7.9222,1675
7.9250,1679
7.9278,1673
7.9306,1680
7.9333,1676
7.9361,1672
7.9389,1671
7.9417,1664
7.9444,1665
7.9472,1672
7.9500,1683
7.9528,1685
7.9556,1698
7.9583,1685
7.9611,1677
7.9639,1664
7.9667,1659
7.9694,1649
7.9722,1647
7.9750,1654
7.9778,1666
7.9806,1679
7.9833,1683
7.9861,1684
7.9889,1690
7.9917,1688
7.9944,1678
7.9972,1664
8.0000,1667
8.0028,1668
8.0056,1667
8.0083,1676
8.0111,1683
8.0139,1688
8.0167,1686
8.0194,1681
8.0222,1675
8.0250,1677
8.0278,1679
8.0306,1682
8.0333,1671
8.0361,1684
8.0389,1693
8.0417,1693
8.0444,1688
8.0472,1697
8.0500,1685
8.0528,1691
8.0556,1697
8.0583,1697
8.0611,1694
8.0639,1681
8.0667,1686
8.0694,1686
8.0722,1685
8.0750,1691
8.0778,1684
8.0806,1686
8.0833,1685
8.0861,1688
8.0889,1687
8.0917,1690
8.0944,1694
8.0972,1697
8.1000,1685
8.1028,1683
8.1056,1687
8.1083,1694
8.1111,1696
8.1139,1698
8.1167,1694
8.1194,1683
8.1222,1682
8.1250,1693
8.1278,1697
8.1306,1697
8.1333,1699
8.1361,1704
8.1389,1702
8.1417,1713
8.1444,1715
8.1472,1704
8.1500,1705
8.1528,1694
8.1556,1698
8.1583,1703
8.1611,1703
8.1639,1705
8.1667,1705
8.1694,1702
8.1722,1695
8.1750,1694
8.1778,1700
8.1806,1699
8.1833,1705
8.1861,1707
8.1889,1707
8.1917,1705
8.1944,1712
8.1972,1706
8.2000,1708
8.2028,1708
8.2056,1708
8.2083,1715
8.2111,1705
8.2139,1705
8.2167,1710
8.2194,1711
8.2222,1720
8.2250,1723
8.2278,1726
8.2306,1722
8.2333,1708
8.2361,1702
8.2389,1710
8.2417,1707
8.2444,1715
8.2472,1728
8.2500,1733
8.2528,1728
8.2556,1737
8.2583,1728
8.2611,1726
8.2639,1723
8.2667,1726
8.2694,1732
8.2722,1729
8.2750,1730
8.2778,1721
8.2806,1718
8.2833,1725
8.2861,1723
8.2889,1729
8.2917,1721
8.2944,1716
8.2972,1715
8.3000,1715
8.3028,1709
8.3056,1715
8.3083,1726
8.3111,1735
8.3139,1737
8.3167,1734
8.3194,1718
8.3222,1720
8.3250,1733
8.3278,1742
8.3306,1735
8.3333,1736
8.3361,1734
8.3389,1732
8.3417,1723
8.3444,1722
8.3472,1735
8.3500,1740
8.3528,1743
8.3556,1745
8.3583,1744
8.3611,1748
8.3639,1752
8.3667,1746
8.3694,1744
8.3722,1743
8.3750,1746
8.3778,1737
8.3806,1744
8.3833,1752
8.3861,1755
8.3889,1761
8.3917,1776
8.3944,1777
8.3972,1771
8.4000,1759
8.4028,1763
8.4056,1756
8.4083,1746
8.4111,1744
8.4139,1749
8.4167,1756
8.4194,1762
8.4222,1766
8.4250,1761
8.4278,1753
8.4306,1754
8.4333,1747
8.4361,1742
8.4389,1747
8.4417,1764
8.4444,1760
8.4472,1770
8.4500,1768
8.4528,1765
8.4556,1760
8.4583,1754
8.4611,1753
8.4639,1746
8.4667,1735
8.4694,1743
8.4722,1736
8.4750,1747
8.4778,1755
8.4806,1761
8.4833,1752
8.4861,1747
8.4889,1737
8.4917,1733
8.4944,1720
8.4972,1728
8.5000,1720
8.5028,1733
8.5056,1738
8.5083,1742
8.5111,1746
8.5139,1746
8.5167,1743
8.5194,1748
8.5222,1744
8.5250,1740
8.5278,1741
8.5306,1741
8.5333,1733
8.5361,1734
8.5389,1736
8.5417,1732
8.5444,1734
8.5472,1726
8.5500,1724
8.5528,1722
8.5556,1722
8.5583,1727
8.5611,1723
8.5639,1719
8.5667,1710
8.5694,1718
8.5722,1721
8.5750,1729
8.5778,1735
8.5806,1732
8.5833,1725
8.5861,1722
8.5889,1726
8.5917,1733
8.5944,1732
8.5972,1736
8.6000,1739
8.6028,1754
8.6056,1766
8.6083,1785
8.6111,1808
8.6139,1814
8.6167,1829
8.6194,1820
8.6222,1816
8.6250,1809
8.6278,1803
8.6306,1804
8.6333,1809
8.6361,1815
8.6389,1801
8.6417,1801
8.6444,1820
8.6472,1823
8.6500,1839
8.6528,1849
8.6556,1836
8.6583,1812
8.6611,1799
8.6639,1775
8.6667,1738
8.6694,1682
8.6722,1609
8.6750,1565
8.6778,1588
8.6806,1677
8.6833,1813
8.6861,1997
8.6889,2234
8.6917,2530
8.6944,2896
8.6972,3270
8.7000,3359
8.7028,3375
8.7056,3377
8.7083,3376
8.7111,3374
8.7139,3228
8.7167,2653
8.7194,1962
8.7222,1369
8.7250,1000
8.7278,815
8.7306,743
8.7333,752
8.7361,795
8.7389,869
8.7417,941
8.7444,1003
8.7472,1086
8.7500,1212
8.7528,1364
8.7556,1505
8.7583,1604
8.7611,1665
8.7639,1680
8.7667,1671
8.7694,1625
8.7722,1599
8.7750,1595
8.7778,1608
8.7806,1642
8.7833,1676
8.7861,1678
8.7889,1668
8.7917,1647
8.7944,1638
8.7972,1649
8.8000,1667
8.8028,1685
8.8056,1686
8.8083,1684
8.8111,1682
8.8139,1665
8.8167,1671
8.8194,1686
8.8222,1708
8.8250,1725
8.8278,1719
8.8306,1687
8.8333,1662
8.8361,1664
8.8389,1682
8.8417,1703
8.8444,1707
8.8472,1703
8.8500,1691
8.8528,1686
8.8556,1681
8.8583,1684
8.8611,1695
8.8639,1713
8.8667,1701
8.8694,1687
8.8722,1673
8.8750,1668
8.8778,1701
8.8806,1745
8.8833,1784
8.8861,1795
8.8889,1785
8.8917,1757
8.8944,1734
8.8972,1730
8.9000,1734
8.9028,1759
8.9056,1777
8.9083,1771
8.9111,1760
8.9139,1754
8.9167,1921
8.9194,1927
8.9222,1953
8.9250,1975
8.9278,1997
8.9306,2002
8.9333,1992
8.9361,1982
8.9389,1992
8.9417,2011
8.9444,2045
8.9472,2047
8.9500,2054
8.9528,2050
8.9556,2039
8.9583,2035
8.9611,2057
8.9639,2084
8.9667,2082
8.9694,2066
8.9722,2048
8.9750,2020
8.9778,2009
8.9806,2016
8.9833,2000
8.9861,1977
8.9889,1950
8.9917,1914
8.9944,1888
8.9972,1864
9.0000,1842
9.0028,1826
9.0056,1805
9.0083,1765
9.0111,1729
9.0139,1703
9.0167,1677
9.0194,1657
9.0222,1647
9.0250,1629
9.0278,1626
9.0306,1613
9.0333,1600
9.0361,1583
9.0389,1580
9.0417,1584
9.0444,1579
9.0472,1579
9.0500,1562
9.0528,1557
9.0556,1549
9.0583,1550
9.0611,1561
9.0639,1568
9.0667,1574
9.0694,1571
9.0722,1549
9.0750,1541
9.0778,1542
9.0806,1562
9.0833,1567
9.0861,1565
9.0889,1558
9.0917,1544
9.0944,1545
9.0972,1559
9.1000,1572
9.1028,1584
9.1056,1599
9.1083,1597
9.1111,1611
9.1139,1594
9.1167,1596
9.1194,1613
9.1222,1624
9.1250,1622
9.1278,1612
9.1306,1600
9.1333,1591
9.1361,1586
9.1389,1602
9.1417,1605
9.1444,1606
9.1472,1603
9.1500,1584
9.1528,1571
9.1556,1568
9.1583,1572
9.1611,1594
9.1639,1599
9.1667,1600
9.1694,1587
9.1722,1576
9.1750,1555
9.1778,1532
9.1806,1523
9.1833,1532
9.1861,1566
9.1889,1579
9.1917,1577
9.1944,1557
9.1972,1553
9.2000,1551
9.2028,1556
9.2056,1573
9.2083,1584
9.2111,1586
9.2139,1587
9.2167,1587
9.2194,1588
9.2222,1589
9.2250,1602
9.2278,1606
9.2306,1595
9.2333,1587
9.2361,1581
9.2389,1578
9.2417,1581
9.2444,1592
9.2472,1587
9.2500,1588
9.2528,1589
9.2556,1596
9.2583,1589
9.2611,1592
9.2639,1601
9.2667,1594
9.2694,1583
9.2722,1572
9.2750,1573
9.2778,1572
9.2806,1573
9.2833,1579
9.2861,1582
9.2889,1578
9.2917,1579
9.2944,1581
9.2972,1588
9.3000,1602
9.3028,1591
9.3056,1585
9.3083,1579
9.3111,1570
9.3139,1577
9.3167,1586
9.3194,1600
9.3222,1608
9.3250,1609
9.3278,1602
9.3306,1600
9.3333,1596
9.3361,1593
9.3389,1600
9.3417,1594
9.3444,1599
9.3472,1591
9.3500,1584
9.3528,1595
9.3556,1606
9.3583,1607
9.3611,1615
9.3639,1619
9.3667,1615
9.3694,1616
9.3722,1607
9.3750,1610
9.3778,1615
9.3806,1612
9.3833,1640
9.3861,1642
9.3889,1631
9.3917,1624
9.3944,1620
9.3972,1616
9.4000,1620
9.4028,1631
9.4056,1636
9.4083,1641
9.4111,1630
9.4139,1626
9.4167,1628
9.4194,1620
9.4222,1636
9.4250,1635
9.4278,1631
9.4306,1635
9.4333,1628
9.4361,1621
9.4389,1627
9.4417,1637
9.4444,1640
9.4472,1629
9.4500,1625
9.4528,1619
9.4556,1617
9.4583,1626
9.4611,1639
9.4639,1648
9.4667,1644
9.4694,1642
9.4722,1640
9.4750,1645
9.4778,1639
9.4806,1633
9.4833,1634
9.4861,1631
9.4889,1643
9.4917,1633
9.4944,1636
9.4972,1634
9.5000,1634
9.5028,1640
9.5056,1636
9.5083,1637
9.5111,1641
9.5139,1649
9.5167,1641
9.5194,1647
9.5222,1631
9.5250,1633
9.5278,1646
9.5306,1660
9.5333,1659
9.5361,1673
9.5389,1659
9.5417,1652
9.5444,1650
9.5472,1658
9.5500,1647
9.5528,1647
9.5556,1643
9.5583,1645
9.5611,1662
9.5639,1665
9.5667,1664
9.5694,1658
9.5722,1655
9.5750,1663
9.5778,1669
9.5806,1681
9.5833,1681
9.5861,1689
9.5889,1684
9.5917,1679
9.5944,1673
9.5972,1661
9.6000,1671
9.6028,1680
9.6056,1678
9.6083,1679
9.6111,1680
9.6139,1685
9.6167,1696
9.6194,1687
9.6222,1698
9.6250,1689
9.6278,1693
9.6306,1683
9.6333,1681
9.6361,1681
9.6389,1677
9.6417,1679
9.6444,1692
9.6472,1686
9.6500,1695
9.6528,1700
9.6556,1703
9.6583,1697
9.6611,1689
9.6639,1683
9.6667,1682
9.6694,1679
9.6722,1692
9.6750,1687
9.6778,1694
9.6806,1694
9.6833,1700
9.6861,1714
9.6889,1717
9.6917,1720
9.6944,1729
9.6972,1718
9.7000,1710
9.7028,1706
9.7056,1711
9.7083,1704
9.7111,1707
9.7139,1707
9.7167,1710
9.7194,1709
9.7222,1704
9.7250,1699
9.7278,1698
9.7306,1716
9.7333,1724
9.7361,1738
9.7389,1730
9.7417,1718
9.7444,1713
9.7472,1707
9.7500,1712
9.7528,1715
9.7556,1725
9.7583,1720
9.7611,1736
9.7639,1732
9.7667,1724
9.7694,1720
9.7722,1710
9.7750,1709
9.7778,1715
9.7806,1709
9.7833,1713
9.7861,1721
9.7889,1733
9.7917,1728
9.7944,1723
9.7972,1723
9.8000,1727
9.8028,1730
9.8056,1737
9.8083,1730
9.8111,1725
9.8139,1740
9.8167,1737
9.8194,1739
9.8222,1748
9.8250,1744
9.8278,1743
9.8306,1745
9.8333,1735
9.8361,1730
9.8389,1731
9.8417,1734
9.8444,1745
9.8472,1743
9.8500,1741
9.8528,1743
9.8556,1731
9.8583,1741
9.8611,1733
9.8639,1728
9.8667,1726
9.8694,1727
9.8722,1731
9.8750,1735
9.8778,1743
9.8806,1724
9.8833,1729
9.8861,1723
9.8889,1730
9.8917,1736
9.8944,1730
9.8972,1739
9.9000,1731
9.9028,1730
9.9056,1732
9.9083,1746
9.9111,1743
9.9139,1744
9.9167,1739
9.9194,1734
9.9222,1726
9.9250,1719
9.9278,1726
9.9306,1731
9.9333,1726
9.9361,1730
9.9389,1728
9.9417,1738
9.9444,1744
9.9472,1737
9.9500,1743
9.9528,1743
9.9556,1734
9.9583,1729
9.9611,1726
9.9639,1719
9.9667,1727
9.9694,1742
9.9722,1752
9.9750,1749
9.9778,1751
9.9806,1746
9.9833,1747
9.9861,1749
9.9889,1744
9.9917,1751
9.9944,1753
9.9972,1755
10.0000,1778
10.0028,1791
10.0056,1816
10.0083,1829
10.0111,1828
10.0139,1812
10.0167,1799
10.0194,1758
10.0222,1699
10.0250,1649
10.0278,1629
10.0306,1676
10.0333,1791
10.0361,1960
10.0389,2200
10.0417,2480
10.0444,2822
10.0472,3195
10.0500,3354
10.0528,3363
10.0556,3374
10.0583,3380
10.0611,3377
10.0639,3362
10.0667,3233
10.0694,2672
10.0722,1960
10.0750,1381
10.0778,1009
10.0806,836
10.0833,751
10.0861,737
10.0889,774
10.0917,836
10.0944,922
10.0972,1020
10.1000,1152
10.1028,1311
10.1056,1464
10.1083,1582
10.1111,1661
10.1139,1699
10.1167,1710
10.1194,1667
10.1222,1634
10.1250,1599
10.1278,1581
10.1306,1609
10.1333,1649
10.1361,1674
10.1389,1683
10.1417,1672
10.1444,1656
10.1472,1650
10.1500,1662
10.1528,1686
10.1556,1694
10.1583,1698
10.1611,1684
10.1639,1663
10.1667,1662
10.1694,1668
10.1722,1700
10.1750,1720
10.1778,1722
10.1806,1707
10.1833,1687
10.1861,1677
10.1889,1678
10.1917,1704
10.1944,1728
10.1972,1730
10.2000,1720
10.2028,1694
10.2056,1677
10.2083,1680
10.2111,1694
10.2139,1721
10.2167,1747
10.2194,1739
10.2222,1717
10.2250,1701
10.2278,1694
10.2306,1710
10.2333,1735
10.2361,1756
10.2389,1755
10.2417,1743
10.2444,1730
10.2472,1727
10.2500,1726
10.2528,1740
10.2556,1761
10.2583,1776
10.2611,1787
10.2639,1781
10.2667,1795
10.2694,1929
10.2722,1949
10.2750,1975
10.2778,1994
10.2806,2005
10.2833,1992
10.2861,1978
10.2889,1976
10.2917,1985
10.2944,2001
10.2972,2024
10.3000,2027
10.3028,2032
10.3056,2027
10.3083,2030
10.3111,2032
10.3139,2047
10.3167,2061
10.3194,2062
10.3222,2045
10.3250,2016
10.3278,2010
10.3306,2002
10.3333,2000
10.3361,1982
10.3389,1971
10.3417,1929
10.3444,1890
10.3472,1855
10.3500,1827
10.3528,1817
10.3556,1803
10.3583,1783
10.3611,1758
10.3639,1724
10.3667,1687
10.3694,1664
10.3722,1651
10.3750,1636
10.3778,1629
10.3806,1601
10.3833,1560
10.3861,1533
10.3889,1523
10.3917,1535
10.3944,1559
10.3972,1577
10.4000,1576
10.4028,1559
10.4056,1543
10.4083,1536
10.4111,1540
10.4139,1548
10.4167,1547
10.4194,1543
10.4222,1540
10.4250,1531
10.4278,1532
10.4306,1528
10.4333,1543
10.4361,1549
10.4389,1556
10.4417,1557
10.4444,1552
10.4472,1557
10.4500,1557
10.4528,1564
10.4556,1564
10.4583,1562
10.4611,1552
10.4639,1549
10.4667,1546
10.4694,1543
10.4722,1554
10.4750,1558
10.4778,1565
10.4806,1570
10.4833,1566
10.4861,1574
10.4889,1573
10.4917,1576
10.4944,1566
10.4972,1570
10.5000,1564
10.5028,1552
10.5056,1542
10.5083,1537
10.5111,1547
10.5139,1559
10.5167,1565
10.5194,1568
10.5222,1560
10.5250,1551
10.5278,1559
10.5306,1554
10.5333,1569
10.5361,1564
10.5389,1566
10.5417,1550
10.5444,1545
10.5472,1537
10.5500,1537
10.5528,1551
10.5556,1566
10.5583,1563
10.5611,1558
10.5639,1546
10.5667,1533
10.5694,1531
10.5722,1531
10.5750,1529
10.5778,1535
10.5806,1539
10.5833,1529
10.5861,1531
10.5889,1518
10.5917,1518
10.5944,1515
10.5972,1527
10.6000,1538
10.6028,1537
10.6056,1546
10.6083,1544
10.6111,1550
10.6139,1553
10.6167,1551
10.6194,1523
10.6222,1515
10.6250,1499
10.6278,1496
10.6306,1515
10.6333,1535
10.6361,1548
10.6389,1545
10.6417,1529
10.6444,1517
10.6472,1508
10.6500,1514
10.6528,1522
10.6556,1537
10.6583,1547
10.6611,1550
10.6639,1544
10.6667,1531
10.6694,1536
10.6722,1535
10.6750,1529
10.6778,1543
10.6806,1552
10.6833,1568
10.6861,1572
10.6889,1562
10.6917,1550
10.6944,1556
10.6972,1552
10.7000,1545
10.7028,1550
10.7056,1564
10.7083,1562
10.7111,1563
10.7139,1561
10.7167,1562
10.7194,1559
10.7222,1553
10.7250,1543
10.7278,1554
10.7306,1565
10.7333,1582
10.7361,1591
10.7389,1586
10.7417,1582
10.7444,1573
10.7472,1566
10.7500,1567
10.7528,1586
10.7556,1593
10.7583,1595
10.7611,1592
10.7639,1585
10.7667,1586
10.7694,1595
10.7722,1597
10.7750,1592
10.7778,1597
10.7806,1595
10.7833,1597
10.7861,1591
10.7889,1601
10.7917,1598
10.7944,1601
10.7972,1593
10.8000,1589
10.8028,1589
10.8056,1593
10.8083,1596
10.8111,1602
10.8139,1604
10.8167,1602
10.8194,1621
10.8222,1620
10.8250,1631
10.8278,1629
10.8306,1614
10.8333,1614
10.8361,1616
10.8389,1625
10.8417,1628
10.8444,1611
10.8472,1598
10.8500,1586
10.8528,1580
10.8556,1586
10.8583,1591
10.8611,1592
10.8639,1611
10.8667,1621
10.8694,1622
10.8722,1628
10.8750,1624
10.8778,1624
10.8806,1621
10.8833,1611
10.8861,1609
10.8889,1616
10.8917,1619
10.8944,1617
10.8972,1610
10.9000,1617
10.9028,1623
10.9056,1636
10.9083,1644
10.9111,1644
10.9139,1640
10.9167,1634
10.9194,1634
10.9222,1617
10.9250,1622
10.9278,1617
10.9306,1625
10.9333,1621
10.9361,1631
10.9389,1629
10.9417,1640
10.9444,1631
10.9472,1638
10.9500,1637
10.9528,1639
10.9556,1653
10.9583,1640
10.9611,1635
10.9639,1641
10.9667,1641
10.9694,1639
10.9722,1651
10.9750,1659
10.9778,1670
10.9806,1677
10.9833,1675
10.9861,1666
10.9889,1673
10.9917,1662
10.9944,1666
10.9972,1670
11.0000,1671
11.0028,1672
11.0056,1657
11.0083,1668
11.0111,1668
11.0139,1673
11.0167,1671
11.0194,1673
11.0222,1657
11.0250,1648
11.0278,1650
11.0306,1668
11.0333,1674
11.0361,1679
11.0389,1686
11.0417,1684
11.0444,1667
11.0472,1655
11.0500,1653
11.0528,1668
11.0556,1691
11.0583,1702
11.0611,1695
11.0639,1699
11.0667,1700
11.0694,1693
11.0722,1687
11.0750,1691
11.0778,1691
11.0806,1686
11.0833,1684
11.0861,1692
11.0889,1684
11.0917,1679
11.0944,1671
11.0972,1676
11.1000,1685
11.1028,1683
11.1056,1695
11.1083,1694
11.1111,1701
11.1139,1711
11.1167,1719
11.1194,1710
11.1222,1696
11.1250,1685
11.1278,1664
11.1306,1668
11.1333,1662
11.1361,1662
11.1389,1654
11.1417,1674
11.1444,1678
11.1472,1682
11.1500,1677
11.1528,1675
11.1556,1670
11.1583,1677
11.1611,1686
11.1639,1691
11.1667,1697
11.1694,1695
11.1722,1709
11.1750,1710
11.1778,1723
11.1806,1709
11.1833,1698
11.1861,1692
11.1889,1674
11.1917,1676
11.1944,1681
11.1972,1691
11.2000,1690
11.2028,1696
11.2056,1694
11.2083,1685
11.2111,1686
11.2139,1679
11.2167,1687
11.2194,1691
11.2222,1702
11.2250,1700
11.2278,1697
11.2306,1703
11.2333,1703
11.2361,1700
11.2389,1704
11.2417,1689
11.2444,1690
11.2472,1691
11.2500,1702
11.2528,1696
11.2556,1696
11.2583,1689
11.2611,1693
11.2639,1689
11.2667,1693
11.2694,1698
11.2722,1705
11.2750,1707
11.2778,1726
11.2806,1728
11.2833,1746
11.2861,1756
11.2889,1760
11.2917,1782
11.2944,1773
11.2972,1775
11.3000,1771
11.3028,1773
11.3056,1779
11.3083,1772
11.3111,1769
11.3139,1771
11.3167,1780
11.3194,1781
11.3222,1796
11.3250,1806
11.3278,1817
11.3306,1821
11.3333,1809
11.3361,1788
11.3389,1762
11.3417,1742
11.3444,1727
11.3472,1687
11.3500,1639
11.3528,1608
11.3556,1617
11.3583,1669
11.3611,1769
11.3639,1913
11.3667,2140
11.3694,2438
11.3722,2803
11.3750,3169
11.3778,3356
11.3806,3361
11.3833,3366
11.3861,3369
11.3889,3374
11.3917,3247
11.3944,2725
11.3972,2114
11.4000,1606
11.4028,1273
11.4056,1086
11.4083,982
11.4111,915
11.4139,874
11.4167,870
11.4194,907
11.4222,930
11.4250,967
11.4278,1033
11.4306,1155
11.4333,1314
11.4361,1479
11.4389,1592
11.4417,1664
11.4444,1674
11.4472,1651
11.4500,1626
11.4528,1598
11.4556,1609
11.4583,1633
11.4611,1653
11.4639,1674
11.4667,1667
11.4694,1656
11.4722,1640
11.4750,1649
11.4778,1665
11.4806,1681
11.4833,1694
11.4861,1692
11.4889,1673
11.4917,1660
11.4944,1652
11.4972,1664
11.5000,1674
11.5028,1688
11.5056,1699
11.5083,1703
11.5111,1695
11.5139,1697
11.5167,1699
11.5194,1711
11.5222,1727
11.5250,1728
11.5278,1726
11.5306,1715
11.5333,1716
11.5361,1716
11.5389,1728
11.5417,1748
11.5444,1762
11.5472,1757
11.5500,1728
11.5528,1718
11.5556,1714
11.5583,1737
11.5611,1758
11.5639,1769
11.5667,1762
11.5694,1749
11.5722,1739
11.5750,1745
11.5778,1762
11.5806,1784
11.5833,1778
11.5861,1774
11.5889,1779
11.5917,1782
11.5944,1926
11.5972,1935
11.6000,1960
11.6028,1973
11.6056,1974
11.6083,1971
11.6111,1974
11.6139,1976
11.6167,1994
11.6194,2007
11.6222,2022
11.6250,2030
11.6278,2020
11.6306,2010
11.6333,2021
11.6361,2034
11.6389,2044
11.6417,2038
11.6444,2040
11.6472,2027
11.6500,2025
11.6528,2015
11.6556,2010
11.6583,2008
11.6611,2006
11.6639,1993
11.6667,1978
11.6694,1943
11.6722,1891
11.6750,1851
11.6778,1851
11.6806,1848
11.6833,1840
11.6861,1812
11.6889,1765
11.6917,1727
11.6944,1711
11.6972,1708
11.7000,1705
11.7028,1693
11.7056,1672
11.7083,1639
11.7111,1627
11.7139,1642
11.7167,1644
11.7194,1645
11.7222,1642
11.7250,1629
11.7278,1608
11.7306,1591
11.7333,1579
11.7361,1587
11.7389,1596
11.7417,1609
11.7444,1620
11.7472,1610
11.7500,1603
11.7528,1599
11.7556,1592
11.7583,1591
11.7611,1599
11.7639,1598
11.7667,1612
11.7694,1621
11.7722,1615
11.7750,1627
11.7778,1621
11.7806,1619
11.7833,1615
11.7861,1602
11.7889,1605
11.7917,1590
11.7944,1584
11.7972,1594
11.8000,1614
11.8028,1631
11.8056,1645
11.8083,1643
11.8111,1646
11.8139,1640
11.8167,1637
11.8194,1632
11.8222,1619
11.8250,1625
11.8278,1629
11.8306,1633
11.8333,1634
11.8361,1618
11.8389,1609
11.8417,1613
11.8444,1623
11.8472,1628
11.8500,1645
11.8528,1643
11.8556,1635
11.8583,1621
11.8611,1611
11.8639,1602
11.8667,1607
11.8694,1617
11.8722,1618
11.8750,1634
11.8778,1637
11.8806,1635
11.8833,1638
11.8861,1631
11.8889,1633
11.8917,1630
11.8944,1620
11.8972,1628
11.9000,1638
11.9028,1645
11.9056,1644
11.9083,1649
11.9111,1636
11.9139,1631
11.9167,1632
11.9194,1628
11.9222,1638
11.9250,1643
11.9278,1645
11.9306,1653
11.9333,1650
11.9361,1641
11.9389,1635
11.9417,1617
11.9444,1613
11.9472,1613
11.9500,1624
11.9528,1629
11.9556,1643
11.9583,1646
11.9611,1652
11.9639,1650
11.9667,1642
11.9694,1639
11.9722,1633
11.9750,1620
11.9778,1626
11.9806,1628
11.9833,1632
11.9861,1632
11.9889,1648
11.9917,1656
11.9944,1659
11.9972,1654
12.0000,1652
12.0028,1644
12.0056,1648
12.0083,1649
12.0111,1640
12.0139,1640
12.0167,1652
12.0194,1654
12.0222,1644
12.0250,1647
12.0278,1634
12.0306,1619
12.0333,1623
12.0361,1635
12.0389,1641
12.0417,1646
12.0444,1652
12.0472,1650
12.0500,1653
12.0528,1650
12.0556,1642
12.0583,1641
12.0611,1643
12.0639,1655
12.0667,1660
12.0694,1662
12.0722,1667
12.0750,1662
12.0778,1667
12.0806,1673
12.0833,1681
12.0861,1671
12.0889,1668
12.0917,1664
12.0944,1660
12.0972,1664
12.1000,1668
12.1028,1674
12.1056,1674
12.1083,1689
12.1111,1690
12.1139,1694
12.1167,1704
12.1194,1694
12.1222,1700
12.1250,1699
12.1278,1697
12.1306,1691
12.1333,1691
12.1361,1692
12.1389,1700
12.1417,1703
12.1444,1699
12.1472,1698
12.1500,1695
12.1528,1694
12.1556,1695
12.1583,1694
12.1611,1702
12.1639,1701
12.1667,1702
12.1694,1706
12.1722,1700
12.1750,1709
12.1778,1722
12.1806,1728
12.1833,1731
12.1861,1731
12.1889,1718
12.1917,1709
12.1944,1710
12.1972,1713
12.2000,1714
12.2028,1722
12.2056,1721
12.2083,1716
12.2111,1721
12.2139,1731
12.2167,1737
12.2194,1734
12.2222,1742
12.2250,1748
12.2278,1749
12.2306,1747
12.2333,1751
12.2361,1750
12.2389,1746
12.2417,1740
12.2444,1736
12.2472,1729
12.2500,1734
12.2528,1736
12.2556,1742
12.2583,1752
12.2611,1750
12.2639,1750
12.2667,1756
12.2694,1739
12.2722,1735
12.2750,1733
12.2778,1743
12.2806,1748
12.2833,1758
12.2861,1755
12.2889,1757
12.2917,1755
12.2944,1754
12.2972,1751
12.3000,1754
12.3028,1755
12.3056,1761
12.3083,1768
12.3111,1769
12.3139,1760
12.3167,1768
12.3194,1760
12.3222,1767
12.3250,1767
12.3278,1768
12.3306,1763
12.3333,1769
12.3361,1764
12.3389,1766
12.3417,1761
12.3444,1757
12.3472,1768
12.3500,1778
12.3528,1774
12.3556,1768
12.3583,1780
12.3611,1771
12.3639,1767
12.3667,1774
12.3694,1786
12.3722,1782
12.3750,1774
12.3778,1774
12.3806,1776
12.3833,1776
12.3861,1781
12.3889,1784
12.3917,1786
12.3944,1780
12.3972,1783
12.4000,1784
12.4028,1788
12.4056,1777
12.4083,1781
12.4111,1783
12.4139,1781
12.4167,1797
12.4194,1786
12.4222,1789
12.4250,1794
12.4278,1792
12.4306,1784
12.4333,1776
12.4361,1771
12.4389,1771
12.4417,1764
12.4444,1781
12.4472,1787
12.4500,1791
12.4528,1793
12.4556,1781
12.4583,1781
12.4611,1780
12.4639,1786
12.4667,1788
12.4694,1796
12.4722,1795
12.4750,1798
12.4778,1799
12.4806,1785
12.4833,1786
12.4861,1784
12.4889,1790
12.4917,1794
12.4944,1794
12.4972,1798
12.5000,1798
12.5028,1789
12.5056,1802
12.5083,1819
12.5111,1844
12.5139,1858
12.5167,1881
12.5194,1890
12.5222,1898
12.5250,1883
12.5278,1866
12.5306,1858
12.5333,1855
12.5361,1866
12.5389,1886
12.5417,1897
12.5444,1906
12.5472,1905
12.5500,1900
12.5528,1897
12.5556,1896
12.5583,1883
12.5611,1858
12.5639,1843
12.5667,1822
12.5694,1819
12.5722,1809
12.5750,1811
12.5778,1822
12.5806,1822
12.5833,1833
12.5861,1834
12.5889,1825
12.5917,1797
12.5944,1775
12.5972,1753
12.6000,1743
12.6028,1733
12.6056,1737
12.6083,1749
12.6111,1756
12.6139,1752
12.6167,1754
12.6194,1751
12.6222,1733
12.6250,1718
12.6278,1703
12.6306,1682
12.6333,1621
12.6361,1566
12.6389,1558
12.6417,1607
12.6444,1708
12.6472,1857
12.6500,2063
12.6528,2309
12.6556,2641
12.6583,3001
12.6611,3317
12.6639,3353
12.6667,3367
12.6694,3376
12.6722,3369
12.6750,3338
12.6778,2941
12.6806,2323
12.6833,1740
12.6861,1325
12.6889,1092
12.6917,980
12.6944,933
12.6972,909
12.7000,932
12.7028,979
12.7056,1011
12.7083,1049
12.7111,1104
12.7139,1222
12.7167,1382
12.7194,1546
12.7222,1675
12.7250,1755
12.7278,1778
12.7306,1754
12.7333,1722
12.7361,1689
12.7389,1691
12.7417,1701
12.7444,1729
12.7472,1746
12.7500,1746
12.7528,1742
12.7556,1731
12.7583,1725
12.7611,1738
12.7639,1749
12.7667,1762
12.7694,1760
12.7722,1754
12.7750,1749
12.7778,1741
12.7806,1746
12.7833,1772
12.7861,1780
12.7889,1776
12.7917,1760
12.7944,1744
12.7972,1738
12.8000,1746
12.8028,1768
12.8056,1780
12.8083,1798
12.8111,1794
12.8139,1791
12.8167,1791
12.8194,1793
12.8222,1810
12.8250,1814
12.8278,1830
12.8306,1817
12.8333,1804
12.8361,1788
12.8389,1787
12.8417,1799
12.8444,1824
12.8472,1825
12.8500,1836
12.8528,1829
12.8556,1812
12.8583,1798
12.8611,1800
12.8639,1812
12.8667,1817
12.8694,1831
12.8722,1826
12.8750,1831
12.8778,1974
12.8806,1988
12.8833,2002
12.8861,2022
12.8889,2019
12.8917,2026
12.8944,2035
12.8972,2028
12.9000,2049
12.9028,2065
12.9056,2084
12.9083,2102
12.9111,2100
12.9139,2098
12.9167,2086
12.9194,2083
12.9222,2089
12.9250,2107
12.9278,2115
12.9306,2121
12.9333,2108
12.9361,2091
12.9389,2081
12.9417,2062
12.9444,2054
12.9472,2040
12.9500,2012
12.9528,1982
12.9556,1943
12.9583,1920
12.9611,1890
12.9639,1872
12.9667,1850
12.9694,1827
12.9722,1799
12.9750,1759
12.9778,1732
12.9806,1717
12.9833,1704
12.9861,1698
12.9889,1684
12.9917,1658
12.9944,1637
12.9972,1615
13.0000,1602
13.0028,1610
13.0056,1612
13.0083,1606
13.0111,1604
13.0139,1600
13.0167,1594
13.0194,1599
13.0222,1602
13.0250,1603
13.0278,1599
13.0306,1590
13.0333,1582
13.0361,1564
13.0389,1561
13.0417,1570
13.0444,1591
13.0472,1598
13.0500,1594
13.0528,1592
13.0556,1578
13.0583,1574
13.0611,1575
13.0639,1588
13.0667,1592
13.0694,1602
13.0722,1599
13.0750,1590
13.0778,1586
13.0806,1594
13.0833,1605
13.0861,1613
13.0889,1614
13.0917,1614
13.0944,1604
13.0972,1593
13.1000,1590
13.1028,1592
13.1056,1598
13.1083,1605
13.1111,1615
13.1139,1621
13.1167,1617
13.1194,1625
13.1222,1634
13.1250,1642
13.1278,1625
13.1306,1628
13.1333,1622
13.1361,1618
13.1389,1626
13.1417,1629
13.1444,1633
13.1472,1631
13.1500,1638
13.1528,1629
13.1556,1632
13.1583,1626
13.1611,1622
13.1639,1619
13.1667,1618
13.1694,1620
13.1722,1619
13.1750,1618
13.1778,1609
13.1806,1615
13.1833,1617
13.1861,1618
13.1889,1616
13.1917,1619
13.1944,1621
13.1972,1608
13.2000,1601
13.2028,1597
13.2056,1588
13.2083,1590
13.2111,1597
13.2139,1596
13.2167,1600
13.2194,1612
13.2222,1611
13.2250,1604
13.2278,1608
13.2306,1607
13.2333,1607
13.2361,1605
13.2389,1600
13.2417,1599
13.2444,1597
13.2472,1593
13.2500,1603
13.2528,1606
13.2556,1602
13.2583,1598
13.2611,1615
13.2639,1613
13.2667,1617
13.2694,1624
13.2722,1626
13.2750,1626
13.2778,1616
13.2806,1625
13.2833,1623
13.2861,1621
13.2889,1616
13.2917,1616
13.2944,1618
13.2972,1616
13.3000,1625
13.3028,1631
13.3056,1633
13.3083,1636
13.3111,1631
13.3139,1626
13.3167,1622
13.3194,1620
13.3222,1619
13.3250,1623
13.3278,1631
13.3306,1641
13.3333,1636
13.3361,1640
13.3389,1634
13.3417,1643
13.3444,1651
13.3472,1657
13.3500,1649
13.3528,1645
13.3556,1649
13.3583,1642
13.3611,1654
13.3639,1658
13.3667,1666
13.3694,1658
13.3722,1653
13.3750,1658
13.3778,1648
13.3806,1649
13.3833,1648
13.3861,1651
13.3889,1658
13.3917,1647
13.3944,1656
13.3972,1657
13.4000,1661
13.4028,1666
13.4056,1669
13.4083,1672
13.4111,1677
13.4139,1678
13.4167,1671
13.4194,1677
13.4222,1678
13.4250,1670
13.4278,1677
13.4306,1671
13.4333,1679
13.4361,1682
13.4389,1684
13.4417,1679
13.4444,1681
13.4472,1677
13.4500,1675
13.4528,1673
13.4556,1677
13.4583,1665
13.4611,1667
13.4639,1676
13.4667,1661
13.4694,1653
13.4722,1644
13.4750,1639
13.4778,1649
13.4806,1653
13.4833,1668
13.4861,1672
13.4889,1662
13.4917,1657
13.4944,1656
13.4972,1654
13.5000,1664
13.5028,1667
13.5056,1678
13.5083,1684
13.5111,1697
13.5139,1688
13.5167,1677
13.5194,1683
13.5222,1679
13.5250,1698
13.5278,1696
13.5306,1686
13.5333,1691
13.5361,1684
13.5389,1684
13.5417,1691
13.5444,1690
13.5472,1688
13.5500,1682
13.5528,1688
13.5556,1694
13.5583,1701
13.5611,1702
13.5639,1699
13.5667,1695
13.5694,1694
13.5722,1685
13.5750,1679
13.5778,1680
13.5806,1684
13.5833,1699
13.5861,1705
13.5889,1715
13.5917,1712
13.5944,1709
13.5972,1716
13.6000,1709
13.6028,1710
13.6056,1710
13.6083,1697
13.6111,1696
13.6139,1694
13.6167,1695
13.6194,1710
13.6222,1709
13.6250,1715
13.6278,1722
13.6306,1710
13.6333,1705
13.6361,1702
13.6389,1700
13.6417,1693
13.6444,1695
13.6472,1688
13.6500,1694
13.6528,1702
13.6556,1702
13.6583,1709
13.6611,1716
13.6639,1720
13.6667,1710
13.6694,1722
13.6722,1721
13.6750,1702
13.6778,1710
13.6806,1708
13.6833,1708
13.6861,1713
13.6889,1701
13.6917,1705
13.6944,1712
13.6972,1710
13.7000,1725
13.7028,1726
13.7056,1735
13.7083,1735
13.7111,1727
13.7139,1718
13.7167,1719
13.7194,1718
13.7222,1711
13.7250,1711
13.7278,1704
13.7306,1712
13.7333,1711
13.7361,1715
13.7389,1714
13.7417,1714
13.7444,1721
13.7472,1731
13.7500,1728
13.7528,1726
13.7556,1716
13.7583,1707
13.7611,1703
13.7639,1720
13.7667,1723
13.7694,1740
13.7722,1733
13.7750,1725
13.7778,1726
13.7806,1720
13.7833,1715
13.7861,1707
13.7889,1717
13.7917,1728
13.7944,1729
13.7972,1724
13.8000,1722
13.8028,1724
13.8056,1720
13.8083,1721
13.8111,1723
13.8139,1727
13.8167,1721
13.8194,1725
13.8222,1718
13.8250,1729
13.8278,1732
13.8306,1732
13.8333,1734
13.8361,1727
13.8389,1720
13.8417,1705
13.8444,1713
13.8472,1711
13.8500,1722
13.8528,1725
13.8556,1731
13.8583,1729
13.8611,1723
13.8639,1725
13.8667,1725
13.8694,1734
13.8722,1749
13.8750,1764
13.8778,1782
13.8806,1786
13.8833,1805
13.8861,1806
13.8889,1799
13.8917,1789
13.8944,1780
13.8972,1782
13.9000,1802
13.9028,1820
13.9056,1830
13.9083,1836
13.9111,1828
13.9139,1835
13.9167,1850
13.9194,1851
13.9222,1851
13.9250,1843
13.9278,1823
13.9306,1801
13.9333,1780
13.9361,1767
13.9389,1775
13.9417,1778
13.9444,1783
13.9472,1794
13.9500,1790
13.9528,1778
13.9556,1764
13.9583,1747
13.9611,1730
13.9639,1704
13.9667,1656
13.9694,1578
13.9722,1500
13.9750,1481
13.9778,1527
13.9806,1632
13.9833,1797
13.9861,2030
13.9889,2311
13.9917,2654
13.9944,3042
13.9972,3343
14.0000,3361
14.0028,3363
14.0056,3377
14.0083,3371
14.0111,3357
14.0139,2985
14.0167,2329
14.0194,1682
14.0222,1208
14.0250,941
14.0278,811
14.0306,759
14.0333,773
14.0361,829
14.0389,897
14.0417,963
14.0444,1022
14.0472,1118
14.0500,1265
14.0528,1425
14.0556,1561
14.0583,1645
14.0611,1697
14.0639,1705
14.0667,1691
14.0694,1665
14.0722,1642
14.0750,1640
14.0778,1653
14.0806,1686
14.0833,1698
14.0861,1704
14.0889,1686
14.0917,1677
14.0944,1683
14.0972,1693
14.1000,1726
14.1028,1744
14.1056,1738
14.1083,1720
14.1111,1707
14.1139,1700
14.1167,1705
14.1194,1729
14.1222,1750
14.1250,1745
14.1278,1731
14.1306,1716
14.1333,1704
14.1361,1711
14.1389,1726
14.1417,1745
14.1444,1754
14.1472,1751
14.1500,1740
14.1528,1734
14.1556,1734
14.1583,1740
14.1611,1756
14.1639,1764
14.1667,1766
14.1694,1755
14.1722,1738
14.1750,1731
14.1778,1753
14.1806,1785
14.1833,1807
14.1861,1815
14.1889,1798
14.1917,1782
14.1944,1781
14.1972,1786
14.2000,1801
14.2028,1806
14.2056,1804
14.2083,1797
14.2111,1794
14.2139,1959
14.2167,1962
14.2194,1985
14.2222,1997
14.2250,2008
14.2278,2004
14.2306,1998
14.2333,2004
14.2361,2024
14.2389,2043
14.2417,2069
14.2444,2080
14.2472,2083
14.2500,2082
14.2528,2072
14.2556,2064
14.2583,2084
14.2611,2100
14.2639,2104
14.2667,2088
14.2694,2077
14.2722,2061
14.2750,2053
14.2778,2058
14.2806,2060
14.2833,2039
14.2861,2013
14.2889,1981
14.2917,1946
14.2944,1906
14.2972,1886
14.3000,1866
14.3028,1851
14.3056,1804
14.3083,1767
14.3111,1727
14.3139,1709
14.3167,1693
14.3194,1690
14.3222,1682
14.3250,1680
14.3278,1669
14.3306,1660
14.3333,1642
14.3361,1631
14.3389,1617
14.3417,1615
14.3444,1608
14.3472,1607
14.3500,1594
14.3528,1590
14.3556,1589
14.3583,1594
14.3611,1603
14.3639,1605
14.3667,1601
14.3694,1584
14.3722,1567
14.3750,1567
14.3778,1568
14.3806,1568
14.3833,1581
14.3861,1590
14.3889,1599
14.3917,1587
14.3944,1598
14.3972,1602
14.4000,1612
14.4028,1607
14.4056,1608
14.4083,1612
14.4111,1603
14.4139,1600
14.4167,1594
14.4194,1593
14.4222,1603
14.4250,1616
14.4278,1621
14.4306,1601
14.4333,1602
14.4361,1606
14.4389,1617
14.4417,1623
14.4444,1619
14.4472,1618
14.4500,1612
14.4528,1614
14.4556,1606
14.4583,1620
14.4611,1627
14.4639,1627
14.4667,1615
14.4694,1613
14.4722,1604
14.4750,1598
14.4778,1600
14.4806,1617
14.4833,1621
14.4861,1625
14.4889,1617
14.4917,1611
14.4944,1601
14.4972,1599
14.5000,1595
14.5028,1593
14.5056,1610
14.5083,1613
14.5111,1617
14.5139,1604
14.5167,1599
14.5194,1600
14.5222,1594
14.5250,1602
14.5278,1587
14.5306,1574
14.5333,1569
14.5361,1565
14.5389,1570
14.5417,1580
14.5444,1586
14.5472,1593
14.5500,1589
14.5528,1589
14.5556,1586
14.5583,1590
14.5611,1578
14.5639,1574
14.5667,1549
14.5694,1545
14.5722,1565
14.5750,1578
14.5778,1599
14.5806,1608
14.5833,1604
14.5861,1601
14.5889,1592
14.5917,1581
14.5944,1577
14.5972,1574
14.6000,1580
14.6028,1584
14.6056,1592
14.6083,1592
14.6111,1594
14.6139,1590
14.6167,1585
14.6194,1582
14.6222,1603
14.6250,1605
14.6278,1599
14.6306,1593
14.6333,1573
14.6361,1572
14.6389,1573
14.6417,1581
14.6444,1587
14.6472,1594
14.6500,1595
14.6528,1592
14.6556,1591
14.6583,1605
14.6611,1600
14.6639,1607
14.6667,1611
14.6694,1595
14.6722,1590
14.6750,1585
14.6778,1578
14.6806,1582
14.6833,1587
14.6861,1588
14.6889,1592
14.6917,1580
14.6944,1585
14.6972,1587
14.7000,1602
14.7028,1614
14.7056,1614
14.7083,1611
14.7111,1609
14.7139,1601
14.7167,1602
14.7194,1594
14.7222,1606
14.7250,1601
14.7278,1599
14.7306,1597
14.7333,1601
14.7361,1589
14.7389,1590
14.7417,1600
14.7444,1615
14.7472,1622
14.7500,1624
14.7528,1629
14.7556,1633
14.7583,1613
14.7611,1612
14.7639,1606
14.7667,1615
14.7694,1618
14.7722,1629
14.7750,1633
14.7778,1631
14.7806,1640
14.7833,1634
14.7861,1634
14.7889,1631
14.7917,1623
14.7944,1624
14.7972,1621
14.8000,1612
14.8028,1620
14.8056,1609
14.8083,1605
14.8111,1602
14.8139,1596
14.8167,1592
14.8194,1605
14.8222,1614
14.8250,1620
14.8278,1628
14.8306,1620
14.8333,1619
14.8361,1618
14.8389,1626
14.8417,1629
14.8444,1643
14.8472,1638
14.8500,1632
14.8528,1628
14.8556,1620
14.8583,1623
14.8611,1618
14.8639,1628
14.8667,1643
14.8694,1649
14.8722,1655
14.8750,1643
14.8778,1631
14.8806,1628
14.8833,1625
14.8861,1636
14.8889,1637
14.8917,1638
14.8944,1642
14.8972,1652
14.9000,1652
14.9028,1652
14.9056,1644
14.9083,1631
14.9111,1622
14.9139,1625
14.9167,1640
14.9194,1647
14.9222,1659
14.9250,1663
14.9278,1661
14.9306,1646
14.9333,1637
14.9361,1638
14.9389,1640
14.9417,1641
14.9444,1650
14.9472,1658
14.9500,1654
14.9528,1656
14.9556,1659
14.9583,1658
14.9611,1641
14.9639,1634
14.9667,1635
14.9694,1642
14.9722,1645
14.9750,1651
14.9778,1653
14.9806,1654
14.9833,1654
14.9861,1657
14.9889,1659
14.9917,1668
14.9944,1656
14.9972,1649
15.0000,1637
15.0028,1636
15.0056,1640
15.0083,1644
15.0111,1644
15.0139,1648
15.0167,1654
15.0194,1664
15.0222,1679
15.0250,1661
15.0278,1658
15.0306,1647
15.0333,1639
15.0361,1644
15.0389,1648
15.0417,1656
15.0444,1658
15.0472,1655
15.0500,1649
15.0528,1640
15.0556,1639
15.0583,1642
15.0611,1634
15.0639,1646
15.0667,1649
15.0694,1661
15.0722,1669
15.0750,1677
15.0778,1681
15.0806,1678
15.0833,1681
15.0861,1670
15.0889,1669
15.0917,1672
15.0944,1679
15.0972,1667
15.1000,1682
15.1028,1673
15.1056,1663
15.1083,1665
15.1111,1672
15.1139,1661
15.1167,1670
15.1194,1661
15.1222,1660
15.1250,1664
15.1278,1666
15.1306,1666
15.1333,1670
15.1361,1663
15.1389,1677
15.1417,1675
15.1444,1676
15.1472,1669
15.1500,1659
15.1528,1656
15.1556,1664
15.1583,1659
15.1611,1663
15.1639,1671
15.1667,1670
15.1694,1673
15.1722,1673
15.1750,1670
15.1778,1676
15.1806,1681
15.1833,1679
15.1861,1689
15.1889,1677
15.1917,1683
15.1944,1679
15.1972,1673
15.2000,1666
15.2028,1673
15.2056,1694
15.2083,1715
15.2111,1740
15.2139,1753
15.2167,1760
15.2194,1773
15.2222,1763
15.2250,1752
15.2278,1748
15.2306,1745
15.2333,1760
15.2361,1775
15.2389,1783
15.2417,1780
15.2444,1792
15.2472,1810
15.2500,1820
15.2528,1835
15.2556,1839
15.2583,1826
15.2611,1794
15.2639,1755
15.2667,1719
15.2694,1714
15.2722,1708
15.2750,1717
15.2778,1734
15.2806,1735
15.2833,1748
15.2861,1745
15.2889,1722
15.2917,1694
15.2944,1655
15.2972,1599
15.3000,1519
15.3028,1462
15.3056,1467
15.3083,1510
15.3111,1643
15.3139,1812
15.3167,2045
15.3194,2348
15.3222,2705
15.3250,3072
15.3278,3336
15.3306,3360
15.3333,3367
15.3361,3364
15.3389,3368
15.3417,3224
15.3444,2701
15.3472,2079
15.3500,1558
15.3528,1219
15.3556,1016
15.3583,907
15.3611,846
15.3639,829
15.3667,849
15.3694,898
15.3722,930
15.3750,954
15.3778,1003
15.3806,1117
15.3833,1273
15.3861,1450
15.3889,1579
15.3917,1651
15.3944,1665
15.3972,1655
15.4000,1634
15.4028,1609
15.4056,1612
15.4083,1632
15.4111,1649
15.4139,1653
15.4167,1654
15.4194,1639
15.4222,1633
15.4250,1638
15.4278,1650
15.4306,1665
15.4333,1670
15.4361,1673
15.4389,1654
15.4417,1651
15.4444,1648
15.4472,1661
15.4500,1673
15.4528,1679
15.4556,1674
15.4583,1660
15.4611,1664
15.4639,1662
15.4667,1670
15.4694,1688
15.4722,1700
15.4750,1697
15.4778,1687
15.4806,1684
15.4833,1689
15.4861,1691
15.4889,1694
15.4917,1715
15.4944,1713
15.4972,1719
15.5000,1717
15.5028,1726
15.5056,1734
15.5083,1735
15.5111,1742
15.5139,1745
15.5167,1753
15.5194,1740
15.5222,1741
15.5250,1731
15.5278,1738
15.5306,1748
15.5333,1758
15.5361,1753
15.5389,1751
15.5417,1760
15.5444,1883
15.5472,1880
15.5500,1916
15.5528,1943
15.5556,1968
15.5583,1985
15.5611,1994
15.5639,1987
15.5667,1982
15.5694,1978
15.5722,1991
15.5750,2005
15.5778,2022
15.5806,2024
15.5833,2021
15.5861,2032
15.5889,2035
15.5917,2042
15.5944,2045
15.5972,2038
15.6000,2029
15.6028,2014
15.6056,2013
15.6083,2011
15.6111,1998
15.6139,1989
15.6167,1959
15.6194,1933
15.6222,1900
15.6250,1871
15.6278,1865
15.6306,1846
15.6333,1824
15.6361,1787
15.6389,1747
15.6417,1710
15.6444,1685
15.6472,1665
15.6500,1660
15.6528,1656
15.6556,1654
15.6583,1628
15.6611,1608
15.6639,1601
15.6667,1603
15.6694,1593
15.6722,1605
15.6750,1599
15.6778,1597
15.6806,1577
15.6833,1559
15.6861,1559
15.6889,1565
15.6917,1586
15.6944,1602
15.6972,1590
15.7000,1572
15.7028,1550
15.7056,1549
15.7083,1561
15.7111,1572
15.7139,1573
15.7167,1581
15.7194,1584
15.7222,1580
15.7250,1574
15.7278,1550
15.7306,1555
15.7333,1565
15.7361,1582
15.7389,1589
15.7417,1605
15.7444,1610
15.7472,1617
15.7500,1609
15.7528,1601
15.7556,1603
15.7583,1582
15.7611,1568
15.7639,1568
15.7667,1576
15.7694,1591
15.7722,1602
15.7750,1614
15.7778,1609
15.7806,1598
15.7833,1596
15.7861,1587
15.7889,1588
15.7917,1584
15.7944,1594
15.7972,1605
15.8000,1609
15.8028,1595
15.8056,1598
15.8083,1588
15.8111,1599
15.8139,1602
15.8167,1610
15.8194,1615
15.8222,1618
15.8250,1623
15.8278,1626
15.8306,1626
15.8333,1606
15.8361,1595
15.8389,1577
15.8417,1579
15.8444,1583
15.8472,1590
15.8500,1590
15.8528,1590
15.8556,1597
15.8583,1589
15.8611,1590
15.8639,1588
15.8667,1595
15.8694,1603
15.8722,1589
15.8750,1585
15.8778,1584
15.8806,1574
15.8833,1571
15.8861,1575
15.8889,1574
15.8917,1585
15.8944,1600
15.8972,1607
15.9000,1614
15.9028,1607
15.9056,1601
15.9083,1612
15.9111,1609
15.9139,1602
15.9167,1600
15.9194,1595
15.9222,1600
15.9250,1601
15.9278,1606
15.9306,1592
15.9333,1594
15.9361,1596
15.9389,1603
15.9417,1603
15.9444,1607
15.9472,1607
15.9500,1601
15.9528,1602
15.9556,1609
15.9583,1611
15.9611,1613
15.9639,1611
15.9667,1601
15.9694,1597
15.9722,1603
15.9750,1603
15.9778,1598
15.9806,1594
15.9833,1605
15.9861,1604
15.9889,1597
15.9917,1593
15.9944,1600
15.9972,1603
16.0000,1611
16.0028,1616
16.0056,1625
16.0083,1623
16.0111,1618
16.0139,1599
16.0167,1603
16.0194,1602
16.0222,1612
16.0250,1621
16.0278,1614
16.0306,1617
16.0333,1612
16.0361,1622
16.0389,1620
16.0417,1619
16.0444,1627
16.0472,1636
16.0500,1645
16.0528,1645
16.0556,1636
16.0583,1625
16.0611,1625
16.0639,1620
16.0667,1633
16.0694,1649
16.0722,1650
16.0750,1652
16.0778,1646
16.0806,1633
16.0833,1646
16.0861,1638
16.0889,1647
16.0917,1640
16.0944,1650
16.0972,1637
16.1000,1641
16.1028,1665
16.1056,1696
16.1083,1702
16.1111,1700
16.1139,1684
16.1167,1685
16.1194,1672
16.1222,1665
16.1250,1674
16.1278,1683
16.1306,1686
16.1333,1679
16.1361,1676
16.1389,1672
16.1417,1672
16.1444,1661
16.1472,1667
16.1500,1663
16.1528,1664
16.1556,1676
16.1583,1684
16.1611,1687
16.1639,1685
16.1667,1671
16.1694,1667
16.1722,1675
16.1750,1685
16.1778,1688
16.1806,1685
16.1833,1686
16.1861,1683
16.1889,1686
16.1917,1685
16.1944,1676
16.1972,1682
16.2000,1684
16.2028,1689
16.2056,1688
16.2083,1692
16.2111,1683
16.2139,1681
16.2167,1689
16.2194,1687
16.2222,1698
16.2250,1699
16.2278,1712
16.2306,1713
16.2333,1717
16.2361,1706
16.2389,1698
16.2417,1697
16.2444,1695
16.2472,1705
16.2500,1719
16.2528,1727
16.2556,1724
16.2583,1711
16.2611,1706
16.2639,1707
16.2667,1727
16.2694,1723
16.2722,1730
16.2750,1729
16.2778,1746
16.2806,1736
16.2833,1735
16.2861,1733
16.2889,1737
16.2917,1731
16.2944,1726
16.2972,1723
16.3000,1720
16.3028,1738
16.3056,1744
16.3083,1755
16.3111,1760
16.3139,1769
16.3167,1756
16.3194,1751
16.3222,1742
16.3250,1737
16.3278,1741
16.3306,1747
16.3333,1751
16.3361,1759
16.3389,1762
16.3417,1766
16.3444,1770
16.3472,1770
16.3500,1773
16.3528,1771
16.3556,1760
16.3583,1763
16.3611,1762
16.3639,1762
16.3667,1759
16.3694,1760
16.3722,1762
16.3750,1773
16.3778,1778
16.3806,1774
16.3833,1754
16.3861,1746
16.3889,1740
16.3917,1753
16.3944,1760
16.3972,1758
16.4000,1751
16.4028,1751
16.4056,1750
16.4083,1761
16.4111,1777
16.4139,1783
16.4167,1777
16.4194,1785
16.4222,1786
16.4250,1798
16.4278,1794
16.4306,1790
16.4333,1784
16.4361,1776
16.4389,1788
16.4417,1780
16.4444,1788
16.4472,1785
16.4500,1779
16.4528,1793
16.4556,1788
16.4583,1788
16.4611,1786
16.4639,1783
16.4667,1783
16.4694,1793
16.4722,1791
16.4750,1793
16.4778,1792
16.4806,1790
16.4833,1803
16.4861,1805
16.4889,1814
16.4917,1815
16.4944,1807
16.4972,1805
16.5000,1799
16.5028,1792
16.5056,1798
16.5083,1801
16.5111,1800
16.5139,1829
16.5167,1848
16.5194,1870
16.5222,1883
16.5250,1895
16.5278,1914
16.5306,1914
16.5333,1913
16.5361,1920
16.5389,1907
16.5417,1908
16.5444,1895
16.5472,1904
16.5500,1920
16.5528,1932
16.5556,1946
16.5583,1957
16.5611,1981
16.5639,1977
16.5667,1966
16.5694,1958
16.5722,1935
16.5750,1909
16.5778,1881
16.5806,1872
16.5833,1874
16.5861,1875
16.5889,1880
16.5917,1877
16.5944,1871
16.5972,1856
16.6000,1843
16.6028,1815
16.6056,1794
16.6083,1773
16.6111,1752
16.6139,1700
16.6167,1629
16.6194,1566
16.6222,1571
16.6250,1646
16.6278,1780
16.6306,1970
16.6333,2205
16.6361,2515
16.6389,2873
16.6417,3257
16.6444,3362
16.6472,3364
16.6500,3373
16.6528,3377
16.6556,3378
16.6583,3338
16.6611,2972
16.6639,2325
16.6667,1715
16.6694,1298
16.6722,1062
16.6750,959
16.6778,917
16.6806,926
16.6833,965
16.6861,1017
16.6889,1083
16.6917,1121
16.6944,1201
16.6972,1344
16.7000,1508
16.7028,1643
16.7056,1740
16.7083,1795
16.7111,1796
16.7139,1771
16.7167,1731
16.7194,1707
16.7222,1712
16.7250,1745
16.7278,1773
16.7306,1794
16.7333,1790
16.7361,1771
16.7389,1749
16.7417,1732
16.7444,1745
16.7472,1773
16.7500,1788
16.7528,1794
16.7556,1776
16.7583,1772
16.7611,1761
16.7639,1769
16.7667,1793
16.7694,1814
16.7722,1817
16.7750,1813
16.7778,1802
16.7806,1794
16.7833,1794
16.7861,1806
16.7889,1815
16.7917,1822
16.7944,1811
16.7972,1789
16.8000,1783
16.8028,1794
16.8056,1811
16.8083,1835
16.8111,1836
16.8139,1838
16.8167,1823
16.8194,1813
16.8222,1817
16.8250,1828
16.8278,1837
16.8306,1848
16.8333,1844
16.8361,1833
16.8389,1831
16.8417,1832
16.8444,1841
16.8472,1863
16.8500,1874
16.8528,1881
16.8556,1863
16.8583,1851
16.8611,2012
16.8639,2014
16.8667,2041
16.8694,2056
16.8722,2064
16.8750,2052
16.8778,2056
16.8806,2052
16.8833,2076
16.8861,2092
16.8889,2110
16.8917,2116
16.8944,2104
16.8972,2094
16.9000,2080
16.9028,2082
16.9056,2110
16.9083,2126
16.9111,2139
16.9139,2133
16.9167,2098
16.9194,2073
16.9222,2055
16.9250,2052
16.9278,2055
16.9306,2041
16.9333,2024
16.9361,1996
16.9389,1957
16.9417,1924
16.9444,1897
16.9472,1879
16.9500,1862
16.9528,1841
16.9556,1818
16.9583,1781
16.9611,1762
16.9639,1743
16.9667,1724
16.9694,1719
16.9722,1705
16.9750,1683
16.9778,1668
16.9806,1649
16.9833,1644
16.9861,1638
16.9889,1638
16.9917,1629
16.9944,1616
16.9972,1609
17.0000,1597
17.0028,1600
17.0056,1597
17.0083,1610
17.0111,1606
17.0139,1609
17.0167,1612
17.0194,1604
17.0222,1599
17.0250,1599
17.0278,1599
17.0306,1607
17.0333,1601
17.0361,1598
17.0389,1594
17.0417,1591
17.0444,1593
17.0472,1612
17.0500,1614
17.0528,1615
17.0556,1613
17.0583,1586
17.0611,1576
17.0639,1578
17.0667,1592
17.0694,1612
17.0722,1617
17.0750,1615
17.0778,1610
17.0806,1606
17.0833,1594
17.0861,1598
17.0889,1611
17.0917,1622
17.0944,1619
17.0972,1611
17.1000,1602
17.1028,1612
17.1056,1615
17.1083,1614
17.1111,1612
17.1139,1607
17.1167,1604
17.1194,1599
17.1222,1602
17.1250,1600
17.1278,1602
17.1306,1607
17.1333,1601
17.1361,1606
17.1389,1612
17.1417,1601
17.1444,1603
17.1472,1606
17.1500,1587
17.1528,1594
17.1556,1585
17.1583,1590
17.1611,1593
17.1639,1597
17.1667,1601
17.1694,1601
17.1722,1587
17.1750,1586
17.1778,1584
17.1806,1584
17.1833,1588
17.1861,1585
17.1889,1581
17.1917,1584
17.1944,1576
17.1972,1573
17.2000,1578
17.2028,1581
17.2056,1591
17.2083,1588
17.2111,1579
17.2139,1578
17.2167,1579
17.2194,1563
17.2222,1566
17.2250,1593
17.2278,1592
17.2306,1596
17.2333,1601
17.2361,1596
17.2389,1580
17.2417,1581
17.2444,1582
17.2472,1575
17.2500,1589
17.2528,1598
17.2556,1601
17.2583,1600
17.2611,1602
17.2639,1606
17.2667,1590
17.2694,1596
17.2722,1597
17.2750,1592
17.2778,1586
17.2806,1590
17.2833,1579
17.2861,1592
17.2889,1606
17.2917,1602
17.2944,1604
17.2972,1600
17.3000,1597
17.3028,1590
17.3056,1603
17.3083,1600
17.3111,1593
17.3139,1586
17.3167,1578
17.3194,1577
17.3222,1580
17.3250,1585
17.3278,1590
17.3306,1591
17.3333,1597
17.3361,1600
17.3389,1610
17.3417,1616
17.3444,1609
17.3472,1610
17.3500,1611
17.3528,1600
17.3556,1592
17.3583,1586
17.3611,1600
17.3639,1622
17.3667,1625
17.3694,1632
17.3722,1629
17.3750,1625
17.3778,1618
17.3806,1615
17.3833,1608
17.3861,1614
17.3889,1624
17.3917,1628
17.3944,1632
17.3972,1626
17.4000,1627
17.4028,1628
17.4056,1617
17.4083,1620
17.4111,1628
17.4139,1635
17.4167,1631
17.4194,1625
17.4222,1627
17.4250,1627
17.4278,1622
17.4306,1635
17.4333,1635
17.4361,1623
17.4389,1631
17.4417,1621
17.4444,1641
17.4472,1647
17.4500,1652
17.4528,1647
17.4556,1646
17.4583,1637
17.4611,1640
17.4639,1645
17.4667,1642
17.4694,1635
17.4722,1636
17.4750,1647
17.4778,1641
17.4806,1647
17.4833,1638
17.4861,1641
17.4889,1659
17.4917,1659
17.4944,1654
17.4972,1656
17.5000,1655
17.5028,1654
17.5056,1645
17.5083,1642
17.5111,1640
17.5139,1634
17.5167,1631
17.5194,1638
17.5222,1652
17.5250,1645
17.5278,1638
17.5306,1646
17.5333,1645
17.5361,1655
17.5389,1662
17.5417,1660
17.5444,1662
17.5472,1658
17.5500,1658
17.5528,1658
17.5556,1656
17.5583,1654
17.5611,1662
17.5639,1659
17.5667,1661
17.5694,1657
17.5722,1656
17.5750,1658
17.5778,1663
17.5806,1673
17.5833,1674
17.5861,1672
17.5889,1666
17.5917,1670
17.5944,1654
17.5972,1655
17.6000,1654
17.6028,1662
17.6056,1669
17.6083,1675
17.6111,1681
17.6139,1681
17.6167,1684
17.6194,1677
17.6222,1670
17.6250,1674
17.6278,1677
17.6306,1684
17.6333,1684
17.6361,1680
17.6389,1696
17.6417,1685
17.6444,1690
17.6472,1686
17.6500,1688
17.6528,1689
17.6556,1685
17.6583,1683
17.6611,1683
17.6639,1682
17.6667,1678
17.6694,1687
17.6722,1693
17.6750,1687
17.6778,1690
17.6806,1693
17.6833,1689
17.6861,1691
17.6889,1685
17.6917,1681
17.6944,1680
17.6972,1670
17.7000,1679
17.7028,1674
17.7056,1679
17.7083,1692
17.7111,1696
17.7139,1698
17.7167,1697
17.7194,1688
17.7222,1673
17.7250,1676
17.7278,1677
17.7306,1678
17.7333,1688
17.7361,1696
17.7389,1700
17.7417,1696
17.7444,1700
17.7472,1694
17.7500,1694
17.7528,1686
17.7556,1688
17.7583,1695
17.7611,1695
17.7639,1705
17.7667,1694
17.7694,1701
17.7722,1702
17.7750,1705
17.7778,1700
17.7806,1699
17.7833,1699
17.7861,1701
17.7889,1710
17.7917,1708
17.7944,1714
17.7972,1712
17.8000,1701
17.8028,1696
17.8056,1696
17.8083,1690
17.8111,1687
17.8139,1698
17.8167,1699
17.8194,1703
17.8222,1701
17.8250,1708
17.8278,1705
17.8306,1706
17.8333,1706
17.8361,1711
17.8389,1714
17.8417,1718
17.8444,1724
17.8472,1723
17.8500,1705
17.8528,1709
17.8556,1699
17.8583,1702
17.8611,1704
17.8639,1717
17.8667,1727
17.8694,1733
17.8722,1731
17.8750,1723
17.8778,1719
17.8806,1713
17.8833,1702
17.8861,1711
17.8889,1713
17.8917,1731
17.8944,1747
17.8972,1740
17.9000,1735
17.9028,1743
17.9056,1742
17.9083,1755
17.9111,1758
17.9139,1783
17.9167,1794
17.9194,1797
17.9222,1803
17.9250,1811
17.9278,1807
17.9306,1802
17.9333,1791
17.9361,1803
17.9389,1807
17.9417,1802
17.9444,1813
17.9472,1817
17.9500,1831
17.9528,1842
17.9556,1850
17.9583,1834
17.9611,1791
17.9639,1719
17.9667,1623
17.9694,1576
17.9722,1593
17.9750,1678
17.9778,1821
17.9806,2020
17.9833,2287
17.9861,2635
17.9889,3033
17.9917,3349
17.9944,3356
17.9972,3367
18.0000,3378
18.0028,3381
18.0056,3369
18.0083,3281
18.0111,2733
18.0139,2025
18.0167,1408
18.0194,1004
18.0222,806
18.0250,718
18.0278,699
18.0306,744
18.0333,824
18.0361,913
18.0389,1000
18.0417,1099
18.0444,1244
18.0472,1386
18.0500,1515
18.0528,1612
18.0556,1685
18.0583,1698
18.0611,1684
18.0639,1646
18.0667,1594
18.0694,1575
18.0722,1593
18.0750,1629
18.0778,1663
18.0806,1679
18.0833,1674
18.0861,1658
18.0889,1657
18.0917,1654
18.0944,1675
18.0972,1701
18.1000,1697
18.1028,1681
18.1056,1656
18.1083,1638
18.1111,1651
18.1139,1681
18.1167,1703
18.1194,1715
18.1222,1708
18.1250,1683
18.1278,1670
18.1306,1659
18.1333,1669
18.1361,1680
18.1389,1704
18.1417,1701
18.1444,1691
18.1472,1678
18.1500,1680
18.1528,1700
18.1556,1719
18.1583,1736
18.1611,1732
18.1639,1719
18.1667,1700
18.1694,1691
18.1722,1695
18.1750,1716
18.1778,1742
18.1806,1752
18.1833,1749
18.1861,1731
18.1889,1725
18.1917,1735
18.1944,1744
18.1972,1772
18.2000,1780
18.2028,1777
18.2056,1769
18.2083,1767
18.2111,1926
18.2139,1938
18.2167,1967
18.2194,1977
18.2222,1997
18.2250,2001
18.2278,2004
18.2306,2007
18.2333,2009
18.2361,2028
18.2389,2039
18.2417,2041
18.2444,2035
18.2472,2041
18.2500,2043
18.2528,2046
18.2556,2063
18.2583,2077
18.2611,2070
18.2639,2063
18.2667,2045
18.2694,2026
18.2722,2013
18.2750,2014
18.2778,2005
18.2806,1991
18.2833,1965
18.2861,1931
18.2889,1899
18.2917,1883
18.2944,1860
18.2972,1849
18.3000,1822
18.3028,1800
18.3056,1760
18.3083,1722
18.3111,1693
18.3139,1686
18.3167,1674
18.3194,1669
18.3222,1653
18.3250,1632
18.3278,1608
18.3306,1590
18.3333,1592
18.3361,1590
18.3389,1595
18.3417,1590
18.3444,1583
18.3472,1568
18.3500,1558
18.3528,1566
18.3556,1570
18.3583,1580
18.3611,1586
18.3639,1592
18.3667,1578
18.3694,1568
18.3722,1565
18.3750,1566
18.3778,1572
18.3806,1576
18.3833,1582
18.3861,1567
18.3889,1562
18.3917,1557
18.3944,1571
18.3972,1590
18.4000,1593
18.4028,1589
18.4056,1582
18.4083,1570
18.4111,1572
18.4139,1579
18.4167,1594
18.4194,1599
18.4222,1594
18.4250,1585
18.4278,1584
18.4306,1586
18.4333,1591
18.4361,1600
18.4389,1608
18.4417,1603
18.4444,1601
18.4472,1601
18.4500,1587
18.4528,1594
18.4556,1600
18.4583,1600
18.4611,1603
18.4639,1589
18.4667,1569
18.4694,1570
18.4722,1576
18.4750,1586
18.4778,1601
18.4806,1609
18.4833,1610
18.4861,1596
18.4889,1581
18.4917,1570
18.4944,1577
18.4972,1582
18.5000,1587
18.5028,1581
18.5056,1576
18.5083,1565
18.5111,1566
18.5139,1567
18.5167,1573
18.5194,1579
18.5222,1583
18.5250,1568
18.5278,1562
18.5306,1554
18.5333,1561
18.5361,1566
18.5389,1567
18.5417,1576
18.5444,1581
18.5472,1580
18.5500,1574
18.5528,1570
18.5556,1563
18.5583,1578
18.5611,1584
18.5639,1576
18.5667,1570
18.5694,1580
18.5722,1577
18.5750,1582
18.5778,1582
18.5806,1590
18.5833,1578
18.5861,1576
18.5889,1572
18.5917,1574
18.5944,1561
18.5972,1567
18.6000,1576
18.6028,1582
18.6056,1592
18.6083,1597
18.6111,1599
18.6139,1590
18.6167,1594
18.6194,1588
18.6222,1589
18.6250,1586
18.6278,1576
18.6306,1567
18.6333,1576
18.6361,1580
18.6389,1588
18.6417,1573
18.6444,1575
18.6472,1564
18.6500,1578
18.6528,1582
18.6556,1585
18.6583,1601
18.6611,1594
18.6639,1600
18.6667,1594
18.6694,1594
18.6722,1608
18.6750,1612
18.6778,1617
18.6806,1609
18.6833,1600
18.6861,1606
18.6889,1620
18.6917,1614
18.6944,1623
18.6972,1616
18.7000,1607
18.7028,1602
18.7056,1596
18.7083,1595
18.7111,1603
18.7139,1606
18.7167,1602
18.7194,1608
18.7222,1613
18.7250,1611
18.7278,1615
18.7306,1620
18.7333,1619
18.7361,1607
18.7389,1610
18.7417,1610
18.7444,1614
18.7472,1622
18.7500,1611
18.7528,1618
18.7556,1603
18.7583,1608
18.7611,1607
18.7639,1615
18.7667,1617
18.7694,1627
18.7722,1626
18.7750,1624
18.7778,1610
18.7806,1616
18.7833,1613
18.7861,1626
18.7889,1627
18.7917,1622
18.7944,1622
18.7972,1633
18.8000,1643
18.8028,1654
18.8056,1642
18.8083,1632
18.8111,1629
18.8139,1620
18.8167,1617
18.8194,1623
18.8222,1626
18.8250,1617
18.8278,1623
18.8306,1628
18.8333,1632
18.8361,1646
18.8389,1650
18.8417,1658
18.8444,1650
18.8472,1650
18.8500,1647
18.8528,1645
18.8556,1644
18.8583,1651
18.8611,1649
18.8639,1645
18.8667,1653
18.8694,1648
18.8722,1654
18.8750,1656
18.8778,1659
18.8806,1654
18.8833,1656
18.8861,1652
18.8889,1654
18.8917,1653
18.8944,1643
18.8972,1639
18.9000,1643
18.9028,1642
18.9056,1647
18.9083,1648
18.9111,1642
18.9139,1642
18.9167,1641
18.9194,1643
18.9222,1653
18.9250,1645
18.9278,1645
18.9306,1648
18.9333,1647
18.9361,1651
18.9389,1651
18.9417,1653
18.9444,1661
18.9472,1661
18.9500,1663
18.9528,1671
18.9556,1673
18.9583,1676
18.9611,1669
18.9639,1666
18.9667,1658
18.9694,1661
18.9722,1664
18.9750,1663
18.9778,1669
18.9806,1666
18.9833,1676
18.9861,1671
18.9889,1684
18.9917,1676
18.9944,1688
18.9972,1687
19.0000,1684
19.0028,1684
19.0056,1685
19.0083,1689
19.0111,1688
19.0139,1693
19.0167,1690
19.0194,1682
19.0222,1676
19.0250,1679
19.0278,1675
19.0306,1681
19.0333,1673
19.0361,1671
19.0389,1675
19.0417,1679
19.0444,1689
19.0472,1686
19.0500,1685
19.0528,1681
19.0556,1669
19.0583,1668
19.0611,1656
19.0639,1664
19.0667,1665
19.0694,1679
19.0722,1686
19.0750,1697
19.0778,1704
19.0806,1698
19.0833,1688
19.0861,1681
19.0889,1685
19.0917,1694
19.0944,1696
19.0972,1708
19.1000,1703
19.1028,1693
19.1056,1685
19.1083,1683
19.1111,1684
19.1139,1694
19.1167,1696
19.1194,1692
19.1222,1691
19.1250,1689
19.1278,1696
19.1306,1709
19.1333,1697
19.1361,1696
19.1389,1682
19.1417,1691
19.1444,1684
19.1472,1686
19.1500,1684
19.1528,1697
19.1556,1711
19.1583,1717
19.1611,1716
19.1639,1707
19.1667,1697
19.1694,1692
19.1722,1695
19.1750,1693
19.1778,1704
19.1806,1708
19.1833,1708
19.1861,1695
19.1889,1697
19.1917,1702
19.1944,1705
19.1972,1710
19.2000,1698
19.2028,1685
19.2056,1681
19.2083,1679
19.2111,1680
19.2139,1692
19.2167,1711
19.2194,1725
19.2222,1740
19.2250,1743
19.2278,1762
19.2306,1768
19.2333,1778
19.2361,1769
19.2389,1762
19.2417,1774
19.2444,1784
19.2472,1794
19.2500,1804
19.2528,1805
19.2556,1799
19.2583,1805
19.2611,1813
19.2639,1826
19.2667,1833
19.2694,1825
19.2722,1808
19.2750,1792
19.2778,1778
19.2806,1767
19.2833,1766
19.2861,1753
19.2889,1752
19.2917,1746
19.2944,1732
19.2972,1681
19.3000,1600
19.3028,1514
19.3056,1488
19.3083,1522
19.3111,1623
19.3139,1789
19.3167,2010
19.3194,2266
19.3222,2592
19.3250,2935
19.3278,3272
19.3306,3357
19.3333,3365
19.3361,3379
19.3389,3368
19.3417,3353
19.3444,2961
19.3472,2352
19.3500,1773
19.3528,1357
19.3556,1117
19.3583,985
19.3611,925
19.3639,876
19.3667,876
19.3694,897
19.3722,925
19.3750,954
19.3778,983
19.3806,1074
19.3833,1220
19.3861,1381
19.3889,1524
19.3917,1610
19.3944,1653
19.3972,1648
19.4000,1625
19.4028,1605
19.4056,1599
19.4083,1612
19.4111,1623
19.4139,1638
19.4167,1635
19.4194,1629
19.4222,1623
19.4250,1632
19.4278,1654
19.4306,1672
19.4333,1685
19.4361,1693
19.4389,1671
19.4417,1657
19.4444,1641
19.4472,1644
19.4500,1660
19.4528,1681
19.4556,1688
19.4583,1686
19.4611,1676
19.4639,1662
19.4667,1668
19.4694,1673
19.4722,1686
19.4750,1696
19.4778,1697
19.4806,1687
19.4833,1675
19.4861,1678
19.4889,1703
19.4917,1725
19.4944,1732
19.4972,1727
19.5000,1715
19.5028,1693
19.5056,1694
19.5083,1708
19.5111,1728
19.5139,1741
19.5167,1737
19.5194,1737
19.5222,1725
19.5250,1726
19.5278,1748
19.5306,1757
19.5333,1762
19.5361,1750
19.5389,1737
19.5417,1734
19.5444,1926
19.5472,1922
19.5500,1946
19.5528,1965
19.5556,1974
19.5583,1969
19.5611,1969
19.5639,1961
19.5667,1969
19.5694,1987
19.5722,2021
19.5750,2039
19.5778,2051
19.5806,2052
19.5833,2034
19.5861,2034
19.5889,2044
19.5917,2055
19.5944,2052
19.5972,2045
19.6000,2041
19.6028,2037
19.6056,2047
19.6083,2051
19.6111,2040
19.6139,2021
19.6167,1994
19.6194,1966
19.6222,1928
19.6250,1908
19.6278,1885
19.6306,1868
19.6333,1848
19.6361,1835
19.6389,1798
19.6417,1792
19.6444,1763
19.6472,1736
19.6500,1717
19.6528,1692
19.6556,1669
19.6583,1658
19.6611,1639
19.6639,1624
19.6667,1611
19.6694,1603
19.6722,1602
19.6750,1615
19.6778,1616
19.6806,1614
19.6833,1600
19.6861,1588
19.6889,1586
19.6917,1584
19.6944,1578
19.6972,1581
19.7000,1581
19.7028,1583
19.7056,1585
19.7083,1595
19.7111,1605
19.7139,1610
19.7167,1614
19.7194,1606
19.7222,1599
19.7250,1608
19.7278,1594
19.7306,1594
19.7333,1595
19.7361,1604
19.7389,1604
19.7417,1594
19.7444,1588
19.7472,1591
19.7500,1597
19.7528,1597
19.7556,1605
19.7583,1600
19.7611,1609
19.7639,1599
19.7667,1596
19.7694,1586
19.7722,1581
19.7750,1578
19.7778,1588
19.7806,1595
19.7833,1605
19.7861,1602
19.7889,1606
19.7917,1613
19.7944,1625
19.7972,1625
19.8000,1616
19.8028,1599
19.8056,1589
19.8083,1581
19.8111,1581
19.8139,1599
19.8167,1612
19.8194,1626
19.8222,1618
19.8250,1612
19.8278,1611
19.8306,1610
19.8333,1610
19.8361,1599
19.8389,1604
19.8417,1598
19.8444,1598
19.8472,1603
19.8500,1600
19.8528,1618
19.8556,1614
19.8583,1609
19.8611,1598
19.8639,1593
19.8667,1588
19.8694,1591
19.8722,1592
19.8750,1589
19.8778,1596
19.8806,1584
19.8833,1577
19.8861,1579
19.8889,1592
19.8917,1605
19.8944,1623
19.8972,1624
19.9000,1620
19.9028,1624
19.9056,1629
19.9083,1631
19.9111,1631
19.9139,1630
19.9167,1618
19.9194,1603
19.9222,1603
19.9250,1592
19.9278,1602
19.9306,1609
19.9333,1622
19.9361,1637
19.9389,1633
19.9417,1629
19.9444,1617
19.9472,1611
19.9500,1609
19.9528,1606
19.9556,1607
19.9583,1615
19.9611,1619
19.9639,1625
19.9667,1621
19.9694,1614
19.9722,1617
19.9750,1617
19.9778,1616
19.9806,1625
19.9833,1628
19.9861,1620
19.9889,1622
19.9917,1617
19.9944,1621
19.9972,1632
20.0000,1649
20.0028,1650
20.0056,1653
20.0083,1653
20.0111,1649
20.0139,1658
20.0167,1659
20.0194,1663
20.0222,1663
20.0250,1638
20.0278,1624
20.0306,1627
20.0333,1631
20.0361,1647
20.0389,1653
20.0417,1654
20.0444,1661
20.0472,1666
20.0500,1659
20.0528,1662
20.0556,1656
20.0583,1654
20.0611,1652
20.0639,1649
20.0667,1654
20.0694,1652
20.0722,1652
20.0750,1648
20.0778,1660
20.0806,1657
20.0833,1653
20.0861,1655
20.0889,1661
20.0917,1653
20.0944,1652
20.0972,1668
20.1000,1672
20.1028,1672
20.1056,1666
20.1083,1664
20.1111,1656
20.1139,1664
20.1167,1672
20.1194,1679
20.1222,1679
20.1250,1679
20.1278,1688
20.1306,1683
20.1333,1684
20.1361,1675
20.1389,1670
20.1417,1686
20.1444,1693
20.1472,1689
20.1500,1687
20.1528,1681
20.1556,1682
20.1583,1664
20.1611,1666
20.1639,1678
20.1667,1684
20.1694,1687
20.1722,1699
20.1750,1680
20.1778,1685
20.1806,1690
20.1833,1676
20.1861,1685
20.1889,1676
20.1917,1681
20.1944,1690
20.1972,1701
20.2000,1711
20.2028,1710
20.2056,1709
20.2083,1699
20.2111,1700
20.2139,1709
20.2167,1706
20.2194,1696
20.2222,1690
20.2250,1705
20.2278,1710
20.2306,1717
20.2333,1722
20.2361,1709
20.2389,1701
20.2417,1706
20.2444,1706
20.2472,1709
20.2500,1714
20.2528,1717
20.2556,1697
20.2583,1705
20.2611,1707
20.2639,1706
20.2667,1705
20.2694,1689
20.2722,1695
20.2750,1709
20.2778,1722
20.2806,1726
20.2833,1729
20.2861,1724
20.2889,1709
20.2917,1691
20.2944,1678
20.2972,1673
20.3000,1678
20.3028,1691
20.3056,1714
20.3083,1725
20.3111,1731
20.3139,1738
20.3167,1734
20.3194,1731
20.3222,1728
20.3250,1719
20.3278,1725
20.3306,1715
20.3333,1720
20.3361,1730
20.3389,1735
20.3417,1734
20.3444,1728
20.3472,1733
20.3500,1719
20.3528,1717
20.3556,1721
20.3583,1714
20.3611,1709
20.3639,1718
20.3667,1726
20.3694,1736
20.3722,1736
20.3750,1742
20.3778,1732
20.3806,1731
20.3833,1735
20.3861,1739
20.3889,1741
20.3917,1741
20.3944,1738
20.3972,1738
20.4000,1741
20.4028,1747
20.4056,1744
20.4083,1741
20.4111,1735
20.4139,1737
20.4167,1728
20.4194,1737
20.4222,1742
20.4250,1742
20.4278,1748
20.4306,1747
20.4333,1762
20.4361,1760
20.4389,1752
20.4417,1739
20.4444,1749
20.4472,1751
20.4500,1752
20.4528,1760
20.4556,1766
20.4583,1773
20.4611,1775
20.4639,1781
20.4667,1787
20.4694,1805
20.4722,1821
20.4750,1846
20.4778,1856
20.4806,1855
20.4833,1846
20.4861,1841
20.4889,1854
20.4917,1863
20.4944,1879
20.4972,1892
20.5000,1919
20.5028,1917
20.5056,1933
20.5083,1952
20.5111,1941
20.5139,1934
20.5167,1905
20.5194,1881
20.5222,1851
20.5250,1832
20.5278,1826
20.5306,1825
20.5333,1826
20.5361,1831
20.5389,1828
20.5417,1819
20.5444,1803
20.5472,1783
20.5500,1784
20.5528,1765
20.5556,1762
20.5583,1746
20.5611,1739
20.5639,1730
20.5667,1727
20.5694,1720
20.5722,1717
20.5750,1726
20.5778,1728
20.5806,1725
20.5833,1715
20.5861,1677
20.5889,1600
20.5917,1541
20.5944,1506
20.5972,1536
20.6000,1640
20.6028,1799
20.6056,1995
20.6083,2253
20.6111,2577
20.6139,2938
20.6167,3275
20.6194,3354
20.6222,3364
20.6250,3380
20.6278,3374
20.6306,3349
20.6333,3029
20.6361,2444
20.6389,1879
20.6417,1454
20.6444,1217
20.6472,1083
20.6500,1043
20.6528,1003
20.6556,993
20.6583,1012
20.6611,1027
20.6639,1043
20.6667,1086
20.6694,1169
20.6722,1309
20.6750,1474
20.6778,1617
20.6806,1722
20.6833,1774
20.6861,1781
20.6889,1753
20.6917,1734
20.6944,1708
20.6972,1717
20.7000,1737
20.7028,1763
20.7056,1763
20.7083,1751
20.7111,1737
20.7139,1736
20.7167,1738
20.7194,1763
20.7222,1776
20.7250,1780
20.7278,1771
20.7306,1751
20.7333,1761
20.7361,1768
20.7389,1800
20.7417,1801
20.7444,1808
20.7472,1806
20.7500,1785
20.7528,1776
20.7556,1769
20.7583,1784
20.7611,1795
20.7639,1797
20.7667,1809
20.7694,1803
20.7722,1802
20.7750,1803
20.7778,1820
20.7806,1822
20.7833,1830
20.7861,1827
20.7889,1821
20.7917,1822
20.7944,1819
20.7972,1825
20.8000,1836
20.8028,1851
20.8056,1855
20.8083,1851
20.8111,1847
20.8139,1845
20.8167,1846
20.8194,1862
20.8222,1864
20.8250,1870
20.8278,1862
20.8306,1853
20.8333,2010
20.8361,2014
20.8389,2034
20.8417,2042
20.8444,2063
20.8472,2077
20.8500,2081
20.8528,2086
20.8556,2093
20.8583,2111
20.8611,2119
20.8639,2122
20.8667,2123
20.8694,2129
20.8722,2124
20.8750,2124
20.8778,2132
20.8806,2148
20.8833,2159
20.8861,2152
20.8889,2135
20.8917,2125
20.8944,2103
20.8972,2094
20.9000,2089
20.9028,2082
20.9056,2068
20.9083,2042
20.9111,2018
20.9139,1997
20.9167,1972
20.9194,1954
20.9222,1931
20.9250,1909
20.9278,1884
20.9306,1847
20.9333,1816
20.9361,1793
20.9389,1774
20.9417,1767
20.9444,1761
20.9472,1739
20.9500,1720
20.9528,1700
20.9556,1694
20.9583,1701
20.9611,1695
20.9639,1692
20.9667,1678
20.9694,1661
20.9722,1652
20.9750,1648
20.9778,1650
20.9806,1658
20.9833,1670
20.9861,1664
20.9889,1656
20.9917,1656
20.9944,1654
20.9972,1651
21.0000,1650
21.0028,1645
21.0056,1652
21.0083,1645
21.0111,1651
21.0139,1647
21.0167,1658
21.0194,1660
21.0222,1671
21.0250,1665
21.0278,1663
21.0306,1656
21.0333,1658
21.0361,1668
21.0389,1661
21.0417,1678
21.0444,1680
21.0472,1663
21.0500,1654
21.0528,1650
21.0556,1656
21.0583,1667
21.0611,1669
21.0639,1672
21.0667,1675
21.0694,1674
21.0722,1672
21.0750,1676
21.0778,1678
21.0806,1685
21.0833,1678
21.0861,1675
21.0889,1679
21.0917,1678
21.0944,1684
21.0972,1687
21.1000,1681
21.1028,1675
21.1056,1679
21.1083,1673
21.1111,1660
21.1139,1661
21.1167,1667
21.1194,1658
21.1222,1671
21.1250,1667
21.1278,1671
21.1306,1646
21.1333,1642
21.1361,1636
21.1389,1638
21.1417,1644
21.1444,1640
21.1472,1639
21.1500,1628
21.1528,1632
21.1556,1627
21.1583,1634
21.1611,1648
21.1639,1652
21.1667,1664
21.1694,1660
21.1722,1648
21.1750,1649
21.1778,1647
21.1806,1644
21.1833,1646
21.1861,1642
21.1889,1651
21.1917,1647
21.1944,1652
21.1972,1652
21.2000,1645
21.2028,1649
21.2056,1643
21.2083,1641
21.2111,1637
21.2139,1644
21.2167,1636
21.2194,1651
21.2222,1653
21.2250,1653
21.2278,1638
21.2306,1611
21.2333,1613
21.2361,1618
21.2389,1627
21.2417,1634
21.2444,1646
21.2472,1650
21.2500,1638
21.2528,1639
21.2556,1636
21.2583,1635
21.2611,1630
21.2639,1631
21.2667,1629
21.2694,1636
21.2722,1638
21.2750,1645
21.2778,1641
21.2806,1657
21.2833,1653
21.2861,1662
21.2889,1664
21.2917,1657
21.2944,1650
21.2972,1655
21.3000,1659
21.3028,1658
21.3056,1660
21.3083,1651
21.3111,1647
21.3139,1652
21.3167,1645
21.3194,1649
21.3222,1653
21.3250,1657
21.3278,1660
21.3306,1663
21.3333,1663
21.3361,1661
21.3389,1656
21.3417,1656
21.3444,1644
21.3472,1648
21.3500,1657
21.3528,1650
21.3556,1650
21.3583,1656
21.3611,1659
21.3639,1670
21.3667,1665
21.3694,1666
21.3722,1660
21.3750,1659
21.3778,1658
21.3806,1651
21.3833,1654
21.3861,1649
21.3889,1646
21.3917,1643
21.3944,1644
21.3972,1654
21.4000,1653
21.4028,1648
21.4056,1664
21.4083,1668
21.4111,1662
21.4139,1653
21.4167,1646
21.4194,1648
21.4222,1653
21.4250,1653
21.4278,1651
21.4306,1659
21.4333,1676
21.4361,1667
21.4389,1672
21.4417,1680
21.4444,1680
21.4472,1672
21.4500,1668
21.4528,1660
21.4556,1654
21.4583,1665
21.4611,1672
21.4639,1669
21.4667,1675
21.4694,1667
21.4722,1654
21.4750,1654
21.4778,1657
21.4806,1664
21.4833,1667
21.4861,1673
21.4889,1674
21.4917,1681
21.4944,1681
21.4972,1676
21.5000,1671
21.5028,1681
21.5056,1684
21.5083,1676
21.5111,1687
21.5139,1686
21.5167,1677
21.5194,1688
21.5222,1687
21.5250,1685
21.5278,1686
21.5306,1682
21.5333,1691
21.5361,1679
21.5389,1677
21.5417,1678
21.5444,1679
21.5472,1669
21.5500,1678
21.5528,1679
21.5556,1683
21.5583,1676
21.5611,1678
21.5639,1682
21.5667,1683
21.5694,1686
21.5722,1682
21.5750,1678
21.5778,1684
21.5806,1684
21.5833,1691
21.5861,1697
21.5889,1703
21.5917,1698
21.5944,1699
21.5972,1687
21.6000,1684
21.6028,1693
21.6056,1686
21.6083,1683
21.6111,1683
21.6139,1684
21.6167,1683
21.6194,1688
21.6222,1688
21.6250,1686
21.6278,1698
21.6306,1698
21.6333,1699
21.6361,1700
21.6389,1699
21.6417,1705
21.6444,1698
21.6472,1693
21.6500,1698
21.6528,1698
21.6556,1698
21.6583,1700
21.6611,1698
21.6639,1696
21.6667,1703
21.6694,1703
21.6722,1704
21.6750,1712
21.6778,1713
21.6806,1715
21.6833,1712
21.6861,1710
21.6889,1709
21.6917,1709
21.6944,1706
21.6972,1709
21.7000,1720
21.7028,1730
21.7056,1730
21.7083,1729
21.7111,1718
21.7139,1711
21.7167,1708
21.7194,1703
21.7222,1703
21.7250,1717
21.7278,1711
21.7306,1709
21.7333,1712
21.7361,1715
21.7389,1719
21.7417,1708
21.7444,1702
21.7472,1678
21.7500,1680
21.7528,1694
21.7556,1704
21.7583,1710
21.7611,1721
21.7639,1717
21.7667,1723
21.7694,1720
21.7722,1722
21.7750,1730
21.7778,1724
21.7806,1711
21.7833,1713
21.7861,1703
21.7889,1702
21.7917,1715
21.7944,1722
21.7972,1731
21.8000,1739
21.8028,1751
21.8056,1759
21.8083,1769
21.8111,1786
21.8139,1805
21.8167,1812
21.8194,1808
21.8222,1807
21.8250,1797
21.8278,1794
21.8306,1808
21.8333,1809
21.8361,1814
21.8389,1817
21.8417,1826
21.8444,1830
21.8472,1844
21.8500,1847
21.8528,1852
21.8556,1835
21.8583,1804
21.8611,1781
21.8639,1761
21.8667,1745
21.8694,1741
21.8722,1740
21.8750,1755
21.8778,1764
21.8806,1751
21.8833,1737
21.8861,1731
21.8889,1728
21.8917,1711
21.8944,1694
21.8972,1686
21.9000,1673
21.9028,1675
21.9056,1663
21.9083,1659
21.9111,1653
21.9139,1621
21.9167,1566
21.9194,1488
21.9222,1450
21.9250,1472
21.9278,1560
21.9306,1688
21.9333,1879
21.9361,2133
21.9389,2463
21.9417,2859
21.9444,3235
21.9472,3352
21.9500,3362
21.9528,3363
21.9556,3369
21.9583,3367
21.9611,3150
21.9639,2564
21.9667,1899
21.9694,1350
21.9722,1022
21.9750,858
21.9778,790
21.9806,776
21.9833,805
21.9861,868
21.9889,928
21.9917,984
21.9944,1059
21.9972,1184
22.0000,1349
22.0028,1491
22.0056,1600
22.0083,1653
22.0111,1678
22.0139,1665
22.0167,1635
22.0194,1613
22.0222,1608
22.0250,1626
22.0278,1655
22.0306,1686
22.0333,1687
22.0361,1672
22.0389,1655
22.0417,1640
22.0444,1658
22.0472,1679
22.0500,1705
22.0528,1701
22.0556,1698
22.0583,1680
22.0611,1671
22.0639,1665
22.0667,1682
22.0694,1693
22.0722,1709
22.0750,1703
22.0778,1690
22.0806,1671
22.0833,1676
22.0861,1682
22.0889,1699
22.0917,1711
22.0944,1697
22.0972,1691
22.1000,1681
22.1028,1682
22.1056,1701
22.1083,1721
22.1111,1744
22.1139,1737
22.1167,1730
22.1194,1708
22.1222,1692
22.1250,1706
22.1278,1729
22.1306,1757
22.1333,1765
22.1361,1755
22.1389,1746
22.1417,1738
22.1444,1733
22.1472,1742
22.1500,1756
22.1528,1758
22.1556,1753
22.1583,1756
22.1611,1758
22.1639,1935
22.1667,1938
22.1694,1957
22.1722,1970
22.1750,1966
22.1778,1983
22.1806,1979
22.1833,1993
22.1861,2005
22.1889,2022
22.1917,2036
22.1944,2044
22.1972,2051
22.2000,2036
22.2028,2038
22.2056,2054
22.2083,2069
22.2111,2082
22.2139,2072
22.2167,2058
22.2194,2041
22.2222,2025
22.2250,2011
22.2278,1999
22.2306,1990
22.2333,1975
22.2361,1946
22.2389,1924
22.2417,1888
22.2444,1862
22.2472,1833
22.2500,1820
22.2528,1799
22.2556,1772
22.2583,1750
22.2611,1727
22.2639,1719
22.2667,1696
22.2694,1683
22.2722,1659
22.2750,1645
22.2778,1623
22.2806,1613
22.2833,1614
22.2861,1612
22.2889,1610
22.2917,1609
22.2944,1604
22.2972,1585
22.3000,1568
22.3028,1563
22.3056,1561
22.3083,1564
22.3111,1570
22.3139,1573
22.3167,1580
22.3194,1575
22.3222,1566
22.3250,1561
22.3278,1567
22.3306,1569
22.3333,1568
22.3361,1558
22.3389,1548
22.3417,1536
22.3444,1547
22.3472,1553
22.3500,1568
22.3528,1595
22.3556,1590
22.3583,1598
22.3611,1585
22.3639,1572
22.3667,1573
22.3694,1570
22.3722,1578
22.3750,1584
22.3778,1582
22.3806,1577
22.3833,1566
22.3861,1570
22.3889,1587
22.3917,1588
22.3944,1585
22.3972,1586
22.4000,1589
22.4028,1588
22.4056,1586
22.4083,1602
22.4111,1599
22.4139,1597
22.4167,1590
22.4194,1581
22.4222,1576
22.4250,1579
22.4278,1587
22.4306,1602
22.4333,1602
22.4361,1608
22.4389,1603
22.4417,1597
22.4444,1589
22.4472,1582
22.4500,1592
22.4528,1585
22.4556,1575
22.4583,1575
22.4611,1573
22.4639,1575
22.4667,1585
22.4694,1588
22.4722,1585
22.4750,1580
22.4778,1574
22.4806,1570
22.4833,1571
22.4861,1567
22.4889,1572
22.4917,1570
22.4944,1570
22.4972,1573
22.5000,1575
22.5028,1580
22.5056,1582
22.5083,1583
22.5111,1589
22.5139,1578
22.5167,1581
22.5194,1563
22.5222,1569
22.5250,1559
22.5278,1567
22.5306,1564
22.5333,1564
22.5361,1571
22.5389,1571
22.5417,1571
22.5444,1565
22.5472,1578
22.5500,1577
22.5528,1576
22.5556,1572
22.5583,1567
22.5611,1564
22.5639,1561
22.5667,1576
22.5694,1591
22.5722,1602
22.5750,1589
22.5778,1587
22.5806,1571
22.5833,1571
22.5861,1575
22.5889,1590
22.5917,1611
22.5944,1605
22.5972,1601
22.6000,1598
22.6028,1598
22.6056,1602
22.6083,1592
22.6111,1599
22.6139,1599
22.6167,1582
22.6194,1578
22.6222,1573
22.6250,1583
22.6278,1595
22.6306,1608
22.6333,1614
22.6361,1612
22.6389,1610
22.6417,1594
22.6444,1588
22.6472,1587
22.6500,1589
22.6528,1597
22.6556,1595
22.6583,1604
22.6611,1599
22.6639,1597
22.6667,1595
22.6694,1608
22.6722,1605
22.6750,1611
22.6778,1614
22.6806,1617
22.6833,1622
22.6861,1620
22.6889,1619
22.6917,1618
22.6944,1614
22.6972,1614
22.7000,1612
22.7028,1618
22.7056,1622
22.7083,1625
22.7111,1634
22.7139,1629
22.7167,1632
22.7194,1624
22.7222,1614
22.7250,1615
22.7278,1615
22.7306,1627
22.7333,1625
22.7361,1626
22.7389,1625
22.7417,1623
22.7444,1629
22.7472,1628
22.7500,1621
22.7528,1625
22.7556,1620
22.7583,1624
22.7611,1620
22.7639,1614
22.7667,1609
22.7694,1607
22.7722,1612
22.7750,1615
22.7778,1622
22.7806,1629
22.7833,1631
22.7861,1632
22.7889,1637
22.7917,1641
22.7944,1640
22.7972,1633
22.8000,1640
22.8028,1639
22.8056,1638
22.8083,1632
22.8111,1638
22.8139,1637
22.8167,1639
22.8194,1636
22.8222,1634
22.8250,1636
22.8278,1632
22.8306,1641
22.8333,1641
22.8361,1639
22.8389,1640
22.8417,1639
22.8444,1636
22.8472,1649
22.8500,1652
22.8528,1654
22.8556,1649
22.8583,1638
22.8611,1639
22.8639,1655
22.8667,1657
22.8694,1661
22.8722,1665
22.8750,1659
22.8778,1655
22.8806,1656
22.8833,1644
22.8861,1643
22.8889,1647
22.8917,1647
22.8944,1659
22.8972,1672
22.9000,1665
22.9028,1659
22.9056,1656
22.9083,1643
22.9111,1644
22.9139,1658
22.9167,1659
22.9194,1665
22.9222,1660
22.9250,1663
22.9278,1664
22.9306,1664
22.9333,1666
22.9361,1670
22.9389,1667
22.9417,1677
22.9444,1674
22.9472,1668
22.9500,1667
22.9528,1665
22.9556,1667
22.9583,1656
22.9611,1659
22.9639,1660
22.9667,1677
22.9694,1686
22.9722,1690
22.9750,1688
22.9778,1673
22.9806,1660
22.9833,1657
22.9861,1657
22.9889,1666
22.9917,1685
22.9944,1703
22.9972,1708
23.0000,1710
23.0028,1705
23.0056,1702
23.0083,1697
23.0111,1695
23.0139,1685
23.0167,1686
23.0194,1686
23.0222,1698
23.0250,1710
23.0278,1704
23.0306,1696
23.0333,1690
23.0361,1677
23.0389,1667
23.0417,1675
23.0444,1683
23.0472,1697
23.0500,1692
23.0528,1698
23.0556,1709
23.0583,1702
23.0611,1700
23.0639,1690
23.0667,1687
23.0694,1683
23.0722,1687
23.0750,1691
23.0778,1690
23.0806,1688
23.0833,1674
23.0861,1673
23.0889,1664
23.0917,1660
23.0944,1678
23.0972,1684
23.1000,1700
23.1028,1719
23.1056,1722
23.1083,1713
23.1111,1703
23.1139,1702
23.1167,1702
23.1194,1693
23.1222,1695
23.1250,1698
23.1278,1721
23.1306,1726
23.1333,1736
23.1361,1739
23.1389,1725
23.1417,1714
23.1444,1706
23.1472,1695
23.1500,1706
23.1528,1714
23.1556,1714
23.1583,1725
23.1611,1730
23.1639,1734
23.1667,1739
23.1694,1727
23.1722,1713
23.1750,1708
23.1778,1722
23.1806,1721
23.1833,1743
23.1861,1732
23.1889,1727
23.1917,1704
23.1944,1691
23.1972,1686
23.2000,1706
23.2028,1719
23.2056,1740
23.2083,1752
23.2111,1746
23.2139,1736
23.2167,1735
23.2194,1751
23.2222,1762
23.2250,1773
23.2278,1786
23.2306,1786
23.2333,1789
23.2361,1781
23.2389,1780
23.2417,1786
23.2444,1791
23.2472,1801
23.2500,1804
23.2528,1814
23.2556,1811
23.2583,1806
23.2611,1782
23.2639,1735
23.2667,1670
23.2694,1616
23.2722,1609
23.2750,1680
23.2778,1822
23.2806,2030
23.2833,2302
23.2861,2636
23.2889,3018
23.2917,3345
23.2944,3362
23.2972,3363
23.3000,3370
23.3028,3376
23.3056,3357
23.3083,3198
23.3111,2621
23.3139,1994
23.3167,1472
23.3194,1147
23.3222,987
23.3250,911
23.3278,866
23.3306,862
23.3333,901
23.3361,945
23.3389,986
23.3417,1032
23.3444,1120
23.3472,1262
23.3500,1407
23.3528,1547
23.3556,1628
23.3583,1677
23.3611,1675
23.3639,1640
23.3667,1605
23.3694,1575
23.3722,1592
23.3750,1621
23.3778,1647
23.3806,1658
23.3833,1648
23.3861,1634
23.3889,1642
23.3917,1644
23.3944,1659
23.3972,1673
23.4000,1670
23.4028,1663
23.4056,1649
23.4083,1644
23.4111,1651
23.4139,1674
23.4167,1692
23.4194,1705
23.4222,1696
23.4250,1680
23.4278,1665
23.4306,1663
23.4333,1680
23.4361,1702
23.4389,1706
23.4417,1714
23.4444,1677
23.4472,1658
23.4500,1653
23.4528,1671
23.4556,1696
23.4583,1732
23.4611,1724
23.4639,1710
23.4667,1692
23.4694,1687
23.4722,1695
23.4750,1705
23.4778,1732
23.4806,1738
23.4833,1744
23.4861,1731
23.4889,1724
23.4917,1730
23.4944,1734
23.4972,1756
23.5000,1751
23.5028,1750
23.5056,1743
23.5083,1743
23.5111,1905
23.5139,1927
23.5167,1944
23.5194,1971
23.5222,1964
23.5250,1948
23.5278,1936
23.5306,1952
23.5333,1981
23.5361,2001
23.5389,2008
23.5417,2012
23.5444,2013
23.5472,2014
23.5500,2022
23.5528,2024
23.5556,2022
23.5583,2028
23.5611,2022
23.5639,2017
23.5667,2006
23.5694,2007
23.5722,2003
23.5750,1991
23.5778,1998
23.5806,1969
23.5833,1944
23.5861,1911
23.5889,1876
23.5917,1850
23.5944,1835
23.5972,1831
23.6000,1816
23.6028,1797
23.6056,1769
23.6083,1749
23.6111,1726
23.6139,1705
23.6167,1691
23.6194,1691
23.6222,1662
23.6250,1643
23.6278,1624
23.6306,1607
23.6333,1596
23.6361,1606
23.6389,1612
23.6417,1625
23.6444,1620
23.6472,1599
23.6500,1578
23.6528,1568
23.6556,1580
23.6583,1599
23.6611,1609
23.6639,1618
23.6667,1613
23.6694,1604
23.6722,1604
23.6750,1604
23.6778,1607
23.6806,1606
23.6833,1599
23.6861,1592
23.6889,1588
23.6917,1593
23.6944,1605
23.6972,1627
23.7000,1610
23.7028,1604
23.7056,1590
23.7083,1590
23.7111,1593
23.7139,1592
23.7167,1594
23.7194,1595
23.7222,1588
23.7250,1592
23.7278,1595
23.7306,1609
23.7333,1610
23.7361,1616
23.7389,1622
23.7417,1616
23.7444,1604
23.7472,1611
23.7500,1619
23.7528,1629
23.7556,1637
23.7583,1621
23.7611,1619
23.7639,1606
23.7667,1598
23.7694,1593
23.7722,1597
23.7750,1612
23.7778,1618
23.7806,1619
23.7833,1613
23.7861,1608
23.7889,1609
23.7917,1613
23.7944,1619
23.7972,1619
23.8000,1608
23.8028,1590
23.8056,1569
23.8083,1569
23.8111,1591
23.8139,1614
23.8167,1623
23.8194,1627
23.8222,1612
23.8250,1607
23.8278,1591
23.8306,1588
23.8333,1588
23.8361,1599
23.8389,1605
23.8417,1604
23.8444,1613
23.8472,1608
23.8500,1603
23.8528,1607
23.8556,1611
23.8583,1618
23.8611,1625
23.8639,1626
23.8667,1615
23.8694,1607
23.8722,1600
23.8750,1597
23.8778,1610
23.8806,1618
23.8833,1615
23.8861,1614
23.8889,1617
23.8917,1622
23.8944,1615
23.8972,1621
23.9000,1614
23.9028,1612
23.9056,1604
23.9083,1609
23.9111,1613
23.9139,1619
23.9167,1620
23.9194,1620
23.9222,1627
23.9250,1626
23.9278,1624
23.9306,1625
23.9333,1639
23.9361,1634
23.9389,1640
23.9417,1636
23.9444,1631
23.9472,1629
23.9500,1621
23.9528,1621
23.9556,1624
23.9583,1632
23.9611,1653
23.9639,1646
23.9667,1648
23.9694,1644
23.9722,1642
23.9750,1644
23.9778,1640
23.9806,1646
23.9833,1641
23.9861,1637
23.9889,1638
23.9917,1637
23.9944,1645
23.9972,1653
24.0000,1654
24.0028,1647
24.0056,1650
24.0083,1645
24.0111,1661
24.0139,1661
24.0167,1673
24.0194,1668
24.0222,1665
24.0250,1667
24.0278,1659
24.0306,1663
24.0333,1651
24.0361,1651
24.0389,1652
24.0417,1648
24.0444,1637
24.0472,1635
24.0500,1635
24.0528,1646
24.0556,1651
24.0583,1666
24.0611,1666
24.0639,1663
24.0667,1661
24.0694,1672
24.0722,1668
24.0750,1670
24.0778,1670
24.0806,1675
24.0833,1673
24.0861,1678
24.0889,1687
24.0917,1683
24.0944,1689
24.0972,1689
24.1000,1691
24.1028,1683
24.1056,1678
24.1083,1688
24.1111,1688
24.1139,1694
24.1167,1707
24.1194,1709
24.1222,1716
24.1250,1709
24.1278,1711
24.1306,1703
24.1333,1695
24.1361,1700
24.1389,1694
24.1417,1709
24.1444,1706
24.1472,1727
24.1500,1737
24.1528,1751
24.1556,1759
24.1583,1747
24.1611,1739
24.1639,1736
24.1667,1732
24.1694,1729
24.1722,1729
24.1750,1742
24.1778,1751
24.1806,1745
24.1833,1756
24.1861,1744
24.1889,1752
24.1917,1754
24.1944,1752
24.1972,1748
24.2000,1755
24.2028,1752
24.2056,1756
24.2083,1760
24.2111,1753
24.2139,1765
24.2167,1764
24.2194,1765
24.2222,1768
24.2250,1766
24.2278,1765
24.2306,1763
24.2333,1765
24.2361,1761
24.2389,1762
24.2417,1758
24.2444,1759
24.2472,1773
24.2500,1776
24.2528,1775
24.2556,1775
24.2583,1770
24.2611,1767
24.2639,1766
24.2667,1754
24.2694,1759
24.2722,1766
24.2750,1771
24.2778,1768
24.2806,1756
24.2833,1771
24.2861,1764
24.2889,1763
24.2917,1759
24.2944,1761
24.2972,1761
24.3000,1775
24.3028,1776
24.3056,1784
24.3083,1784
24.3111,1783
24.3139,1786
24.3167,1790
24.3194,1794
24.3222,1795
24.3250,1792
24.3278,1784
24.3306,1775
24.3333,1782
24.3361,1786
24.3389,1794
24.3417,1795
24.3444,1798
24.3472,1804
24.3500,1801
24.3528,1794
24.3556,1788
24.3583,1781
24.3611,1787
24.3639,1787
24.3667,1799
24.3694,1799
24.3722,1798
24.3750,1803
24.3778,1787
24.3806,1792
24.3833,1783
24.3861,1802
24.3889,1795
24.3917,1789
24.3944,1785
24.3972,1782
24.4000,1789
24.4028,1799
24.4056,1802
24.4083,1805
24.4111,1804
24.4139,1812
24.4167,1806
24.4194,1805
24.4222,1816
24.4250,1812
24.4278,1800
24.4306,1784
24.4333,1783
24.4361,1790
24.4389,1801
24.4417,1796
24.4444,1799
24.4472,1807
24.4500,1800
24.4528,1795
24.4556,1799
24.4583,1787
24.4611,1786
24.4639,1799
24.4667,1793
24.4694,1802
24.4722,1820
24.4750,1829
24.4778,1838
24.4806,1847
24.4833,1854
24.4861,1856
24.4889,1866
24.4917,1861
24.4944,1873
24.4972,1882
24.5000,1891
24.5028,1886
24.5056,1891
24.5083,1884
24.5111,1881
24.5139,1883
24.5167,1894
24.5194,1891
24.5222,1900
24.5250,1904
24.5278,1906
24.5306,1899
24.5333,1890
24.5361,1870
24.5389,1847
24.5417,1829
24.5444,1820
24.5472,1823
24.5500,1823
24.5528,1823
24.5556,1847
24.5583,1844
24.5611,1847
24.5639,1809
24.5667,1792
24.5694,1769
24.5722,1738
24.5750,1690
24.5778,1625
24.5806,1561
24.5833,1542
24.5861,1592
24.5889,1704
24.5917,1874
24.5944,2102
24.5972,2389
24.6000,2735
24.6028,3137
24.6056,3348
24.6083,3361
24.6111,3388
24.6139,3377
24.6167,3376
24.6194,3350
24.6222,3066
24.6250,2430
24.6278,1794
24.6306,1333
24.6333,1072
24.6361,960
24.6389,900
24.6417,895
24.6444,924
24.6472,979
24.6500,1026
24.6528,1094
24.6556,1167
24.6583,1302
24.6611,1458
24.6639,1592
24.6667,1680
24.6694,1738
24.6722,1746
24.6750,1727
24.6778,1690
24.6806,1661
24.6833,1663
24.6861,1695
24.6889,1727
24.6917,1753
24.6944,1740
24.6972,1722
24.7000,1697
24.7028,1694
24.7056,1709
24.7083,1739
24.7111,1759
24.7139,1759
24.7167,1744
24.7194,1735
24.7222,1714
24.7250,1719
24.7278,1733
24.7306,1755
24.7333,1767
24.7361,1762
24.7389,1748
24.7417,1739
24.7444,1742
24.7472,1763
24.7500,1780
24.7528,1794
24.7556,1782
24.7583,1756
24.7611,1738
24.7639,1727
24.7667,1746
24.7694,1761
24.7722,1771
24.7750,1780
24.7778,1775
24.7806,1757
24.7833,1758
24.7861,1770
24.7889,1786
24.7917,1795
24.7944,1789
24.7972,1779
24.8000,1765
24.8028,1774
24.8056,1788
24.8083,1813
24.8111,1833
24.8139,1825
24.8167,1812
24.8194,1796
24.8222,1940
24.8250,1937
24.8278,1979
24.8306,2012
24.8333,2028
24.8361,2027
24.8389,2026
24.8417,2018
24.8444,2020
24.8472,2029
24.8500,2053
24.8528,2055
24.8556,2067
24.8583,2058
24.8611,2062
24.8639,2064
24.8667,2085
24.8694,2100
24.8722,2112
24.8750,2106
24.8778,2083
24.8806,2057
24.8833,2048
24.8861,2037
24.8889,2039
24.8917,2017
24.8944,1996
24.8972,1976
24.9000,1935
24.9028,1907
24.9056,1877
24.9083,1866
24.9111,1840
24.9139,1813
24.9167,1789
24.9194,1753
24.9222,1723
24.9250,1713
24.9278,1697
24.9306,1689
24.9333,1682
24.9361,1669
24.9389,1646
24.9417,1627
24.9444,1629
24.9472,1629
24.9500,1632
24.9528,1617
24.9556,1605
24.9583,1591
24.9611,1571
24.9639,1570
24.9667,1577
24.9694,1579
24.9722,1586
24.9750,1581
24.9778,1582
24.9806,1587
24.9833,1587
24.9861,1592
24.9889,1599
24.9917,1593
24.9944,1584
24.9972,1564
25.0000,1566
25.0028,1572
25.0056,1576
25.0083,1592
25.0111,1599
25.0139,1608
25.0167,1605
25.0194,1603
25.0222,1595
25.0250,1596
25.0278,1600
25.0306,1619
25.0333,1612
25.0361,1611
25.0389,1593
25.0417,1592
25.0444,1594
25.0472,1606
25.0500,1616
25.0528,1624
25.0556,1622
25.0583,1617
25.0611,1611
25.0639,1611
25.0667,1611
25.0694,1611
25.0722,1611
25.0750,1599
25.0778,1590
25.0806,1592
25.0833,1606
25.0861,1606
25.0889,1609
25.0917,1608
25.0944,1611
25.0972,1611
25.1000,1603
25.1028,1601
25.1056,1599
25.1083,1594
25.1111,1598
25.1139,1605
25.1167,1605
25.1194,1606
25.1222,1591
25.1250,1589
25.1278,1583
25.1306,1600
25.1333,1610
25.1361,1592
25.1389,1593
25.1417,1568
25.1444,1565
25.1472,1574
25.1500,1577
25.1528,1590
25.1556,1596
25.1583,1589
25.1611,1597
25.1639,1587
25.1667,1590
25.1694,1604
25.1722,1600
25.1750,1594
25.1778,1593
25.1806,1579
25.1833,1582
25.1861,1589
25.1889,1609
25.1917,1610
25.1944,1609
25.1972,1599
25.2000,1595
25.2028,1592
25.2056,1597
25.2083,1598
25.2111,1600
25.2139,1602
25.2167,1595
25.2194,1591
25.2222,1591
25.2250,1588
25.2278,1579
25.2306,1589
25.2333,1591
25.2361,1584
25.2389,1591
25.2417,1596
25.2444,1594
25.2472,1606
25.2500,1605
25.2528,1606
25.2556,1618
25.2583,1605
25.2611,1607
25.2639,1610
25.2667,1612
25.2694,1601
25.2722,1603
25.2750,1597
25.2778,1599
25.2806,1608
25.2833,1612
25.2861,1614
25.2889,1616
25.2917,1612
25.2944,1607
25.2972,1603
25.3000,1607
25.3028,1612
25.3056,1607
25.3083,1614
25.3111,1627
25.3139,1644
25.3167,1639
25.3194,1637
25.3222,1631
25.3250,1633
25.3278,1633
25.3306,1639
25.3333,1630
25.3361,1635
25.3389,1629
25.3417,1631
25.3444,1628
25.3472,1631
25.3500,1636
25.3528,1644
25.3556,1635
25.3583,1631
25.3611,1631
25.3639,1627
25.3667,1630
25.3694,1637
25.3722,1651
25.3750,1657
25.3778,1650
25.3806,1651
25.3833,1650
25.3861,1646
25.3889,1658
25.3917,1659
25.3944,1657
25.3972,1655
25.4000,1644
25.4028,1650
25.4056,1654
25.4083,1652
25.4111,1659
25.4139,1650
25.4167,1642
25.4194,1645
25.4222,1659
25.4250,1653
25.4278,1674
25.4306,1670
25.4333,1673
25.4361,1651
25.4389,1653
25.4417,1644
25.4444,1650
25.4472,1652
25.4500,1662
25.4528,1660
25.4556,1675
25.4583,1675
25.4611,1671
25.4639,1667
25.4667,1676
25.4694,1664
25.4722,1669
25.4750,1670
25.4778,1667
25.4806,1673
25.4833,1678
25.4861,1675
25.4889,1674
25.4917,1678
25.4944,1679
25.4972,1674
25.5000,1680
25.5028,1677
25.5056,1669
25.5083,1669
25.5111,1675
25.5139,1687
25.5167,1687
25.5194,1692
25.5222,1701
25.5250,1702
25.5278,1707
25.5306,1707
25.5333,1690
25.5361,1684
25.5389,1675
25.5417,1676
25.5444,1669
25.5472,1674
25.5500,1686
25.5528,1687
25.5556,1681
25.5583,1692
25.5611,1694
25.5639,1687
25.5667,1689
25.5694,1683
25.5722,1683
25.5750,1687
25.5778,1691
25.5806,1695
25.5833,1689
25.5861,1693
25.5889,1696
25.5917,1702
25.5944,1705
25.5972,1714
25.6000,1709
25.6028,1706
25.6056,1703
25.6083,1713
25.6111,1721
25.6139,1715
25.6167,1719
25.6194,1713
25.6222,1710
25.6250,1705
25.6278,1698
25.6306,1700
25.6333,1701
25.6361,1694
25.6389,1693
25.6417,1693
25.6444,1704
25.6472,1703
25.6500,1707
25.6528,1714
25.6556,1709
25.6583,1711
25.6611,1710
25.6639,1698
25.6667,1704
25.6694,1699
25.6722,1695
25.6750,1694
25.6778,1690
25.6806,1686
25.6833,1691
25.6861,1702
25.6889,1710
25.6917,1711
25.6944,1706
25.6972,1702
25.7000,1706
25.7028,1705
25.7056,1706
25.7083,1714
25.7111,1710
25.7139,1711
25.7167,1699
25.7194,1688
25.7222,1699
25.7250,1707
25.7278,1704
25.7306,1715
25.7333,1716
25.7361,1715
25.7389,1706
25.7417,1712
25.7444,1712
25.7472,1714
25.7500,1711
25.7528,1719
25.7556,1713
25.7583,1719
25.7611,1717
25.7639,1722
25.7667,1720
25.7694,1717
25.7722,1722
25.7750,1719
25.7778,1713
25.7806,1714
25.7833,1714
25.7861,1717
25.7889,1718
25.7917,1720
25.7944,1716
25.7972,1714
25.8000,1720
25.8028,1723
25.8056,1719
25.8083,1711
25.8111,1714
25.8139,1710
25.8167,1706
25.8194,1713
25.8222,1712
25.8250,1711
25.8278,1722
25.8306,1723
25.8333,1720
25.8361,1715
25.8389,1718
25.8417,1718
25.8444,1719
25.8472,1718
25.8500,1710
25.8528,1721
25.8556,1723
25.8583,1730
25.8611,1736
25.8639,1737
25.8667,1742
25.8694,1761
25.8722,1793
25.8750,1813
25.8778,1839
25.8806,1843
25.8833,1830
25.8861,1818
25.8889,1796
25.8917,1796
25.8944,1798
25.8972,1815
25.9000,1824
25.9028,1831
25.9056,1847
25.9083,1859
25.9111,1863
25.9139,1873
25.9167,1843
25.9194,1773
25.9222,1673
25.9250,1599
25.9278,1581
25.9306,1637
25.9333,1762
25.9361,1937
25.9389,2177
25.9417,2483
25.9444,2839
25.9472,3229
25.9500,3356
25.9528,3364
25.9556,3374
25.9583,3375
25.9611,3368
25.9639,3359
25.9667,3026
25.9694,2376
25.9722,1714
25.9750,1221
25.9778,942
25.9806,793
25.9833,744
25.9861,759
25.9889,838
25.9917,924
25.9944,996
25.9972,1070
26.0000,1179
26.0028,1321
26.0056,1456
26.0083,1565
26.0111,1640
26.0139,1665
26.0167,1665
26.0194,1640
26.0222,1611
26.0250,1595
26.0278,1609
26.0306,1641
26.0333,1668
26.0361,1676
26.0389,1670
26.0417,1647
26.0444,1633
26.0472,1640
26.0500,1658
26.0528,1671
26.0556,1696
26.0583,1697
26.0611,1680
26.0639,1659
26.0667,1661
26.0694,1662
26.0722,1685
26.0750,1706
26.0778,1711
26.0806,1709
26.0833,1687
26.0861,1672
26.0889,1677
26.0917,1694
26.0944,1716
26.0972,1720
26.1000,1714
26.1028,1690
26.1056,1685
26.1083,1683
26.1111,1688
26.1139,1708
26.1167,1725
26.1194,1724
26.1222,1716
26.1250,1702
26.1278,1706
26.1306,1729
26.1333,1744
26.1361,1758
26.1389,1756
26.1417,1755
26.1444,1733
26.1472,1733
26.1500,1753
26.1528,1778
26.1556,1785
26.1583,1783
26.1611,1770
26.1639,1758
26.1667,1901
26.1694,1911
26.1722,1925
26.1750,1941
26.1778,1957
26.1806,1951
26.1833,1934
26.1861,1935
26.1889,1940
26.1917,1970
26.1944,1994
26.1972,2021
26.2000,2019
26.2028,2016
26.2056,2004
26.2083,2017
26.2111,2027
26.2139,2047
26.2167,2057
26.2194,2041
26.2222,2011
26.2250,1991
26.2278,1994
26.2306,1986
26.2333,1997
26.2361,1985
26.2389,1957
26.2417,1921
26.2444,1896
26.2472,1856
26.2500,1840
26.2528,1816
26.2556,1806
26.2583,1778
26.2611,1736
26.2639,1694
26.2667,1664
26.2694,1658
26.2722,1664
26.2750,1655
26.2778,1655
26.2806,1628
26.2833,1608
26.2861,1590
26.2889,1585
26.2917,1584
26.2944,1573
26.2972,1583
26.3000,1567
26.3028,1554
26.3056,1550
26.3083,1559
26.3111,1557
26.3139,1570
26.3167,1569
26.3194,1565
26.3222,1566
26.3250,1561
26.3278,1553
26.3306,1553
26.3333,1568
26.3361,1575
26.3389,1575
26.3417,1570
26.3444,1565
26.3472,1557
26.3500,1562
26.3528,1576
26.3556,1579
26.3583,1579
26.3611,1573
26.3639,1563
26.3667,1554
26.3694,1559
26.3722,1568
26.3750,1581
26.3778,1583
26.3806,1588
26.3833,1574
26.3861,1571
26.3889,1564
26.3917,1576
26.3944,1593
26.3972,1597
26.4000,1591
26.4028,1579
26.4056,1574
26.4083,1569
26.4111,1570
26.4139,1585
26.4167,1595
26.4194,1588
26.4222,1582
26.4250,1576
26.4278,1579
26.4306,1572
