Tiempo(s),Valor_ADC
0.0028,1657
0.0056,1653
0.0083,1671
0.0111,1681
0.0139,1692
0.0167,1672
0.0194,1669
0.0222,1654
0.0250,1677
0.0278,1688
0.0306,1702
0.0333,1720
0.0361,1701
0.0389,1680
0.0417,1684
0.0444,1700
0.0472,1715
0.0500,1733
0.0528,1741
0.0556,1737
0.0583,1726
0.0611,1733
0.0639,1740
0.0667,1748
0.0694,1764
0.0722,1763
0.0750,1748
0.0778,1726
0.0806,1716
0.0833,1714
0.0861,1722
0.0889,1742
0.0917,1747
0.0944,1743
0.0972,1727
0.1000,1716
0.1028,1712
0.1056,1725
0.1083,1733
0.1111,1762
0.1139,1772
0.1167,1768
0.1194,1763
0.1222,1772
0.1250,1794
0.1278,1821
0.1306,1829
0.1333,1840
0.1361,1823
0.1389,1786
0.1417,1777
0.1444,1747
0.1472,1752
0.1500,1772
0.1528,1785
0.1556,1781
0.1583,1766
0.1611,1759
0.1639,1755
0.1667,1745
0.1694,1741
0.1722,1745
0.1750,1731
0.1778,1736
0.1806,1742
0.1833,1776
0.1861,1788
0.1889,1800
0.1917,1803
0.1944,1782
0.1972,1747
0.2000,1713
0.2028,1689
0.2056,1664
0.2083,1668
0.2111,1677
0.2139,1682
0.2167,1683
0.2194,1672
0.2222,1678
0.2250,1674
0.2278,1677
0.2306,1691
0.2333,1695
0.2361,1678
0.2389,1676
0.2417,1650
0.2444,1627
0.2472,1634
0.2500,1637
0.2528,1659
0.2556,1651
0.2583,1653
0.2611,1651
0.2639,1654
0.2667,1659
0.2694,1687
0.2722,1744
0.2750,1770
0.2778,1779
0.2806,1784
0.2833,1764
0.2861,1745
0.2889,1725
0.2917,1704
0.2944,1698
0.2972,1713
0.3000,1771
0.3028,1911
0.3056,2092
0.3083,2143
0.3111,2038
0.3139,1850
0.3167,1692
0.3194,1612
0.3222,1571
0.3250,1534
0.3278,1519
0.3306,1488
0.3333,1468
0.3361,1473
0.3389,1496
0.3417,1519
0.3444,1544
0.3472,1569
0.3500,1572
0.3528,1596
0.3556,1597
0.3583,1586
0.3611,1575
0.3639,1567
0.3667,1569
0.3694,1573
0.3722,1606
0.3750,1606
0.3778,1612
0.3806,1605
0.3833,1587
0.3861,1582
0.3889,1577
0.3917,1588
0.3944,1595
0.3972,1602
0.4000,1594
0.4028,1591
0.4056,1600
0.4083,1622
0.4111,1642
0.4139,1659
0.4167,1656
0.4194,1631
0.4222,1613
0.4250,1600
0.4278,1611
0.4306,1638
0.4333,1665
0.4361,1670
0.4389,1669
0.4417,1677
0.4444,1665
0.4472,1667
0.4500,1663
0.4528,1675
0.4556,1673
0.4583,1663
0.4611,1666
0.4639,1661
0.4667,1660
0.4694,1678
0.4722,1688
0.4750,1708
0.4778,1707
0.4806,1725
0.4833,1723
0.4861,1732
0.4889,1741
0.4917,1760
0.4944,1760
0.4972,1756
0.5000,1846
0.5028,1861
0.5056,1858
0.5083,1875
0.5111,1888
0.5139,1876
0.5167,1865
0.5194,1844
0.5222,1821
0.5250,1801
0.5278,1802
0.5306,1819
0.5333,1817
0.5361,1823
0.5389,1805
0.5417,1811
0.5444,1798
0.5472,1799
0.5500,1796
0.5528,1800
0.5556,1780
0.5583,1764
0.5611,1749
0.5639,1738
0.5667,1738
0.5694,1737
0.5722,1728
0.5750,1709
0.5778,1692
0.5806,1682
0.5833,1675
0.5861,1661
0.5889,1664
0.5917,1678
0.5944,1660
0.5972,1643
0.6000,1649
0.6028,1653
0.6056,1645
0.6083,1652
0.6111,1663
0.6139,1654
0.6167,1631
0.6194,1622
0.6222,1606
0.6250,1611
0.6278,1615
0.6306,1629
0.6333,1659
0.6361,1656
0.6389,1647
0.6417,1634
0.6444,1626
0.6472,1614
0.6500,1628
0.6528,1639
0.6556,1631
0.6583,1633
0.6611,1642
0.6639,1635
0.6667,1634
0.6694,1642
0.6722,1655
0.6750,1649
0.6778,1654
0.6806,1652
0.6833,1644
0.6861,1650
0.6889,1658
0.6917,1659
0.6944,1656
0.6972,1651
0.7000,1651
0.7028,1654
0.7056,1655
0.7083,1652
0.7111,1663
0.7139,1676
0.7167,1662
0.7194,1658
0.7222,1666
0.7250,1662
0.7278,1676
0.7306,1681
0.7333,1693
0.7361,1686
0.7389,1674
0.7417,1662
0.7444,1659
0.7472,1653
0.7500,1672
0.7528,1668
0.7556,1650
0.7583,1662
0.7611,1664
0.7639,1656
0.7667,1660
0.7694,1679
0.7722,1698
0.7750,1692
0.7778,1698
0.7806,1698
0.7833,1681
0.7861,1687
0.7889,1677
0.7917,1697
0.7944,1690
0.7972,1679
0.8000,1678
0.8028,1668
0.8056,1672
0.8083,1676
0.8111,1687
0.8139,1684
0.8167,1676
0.8194,1676
0.8222,1669
0.8250,1673
0.8278,1666
0.8306,1672
0.8333,1685
0.8361,1689
0.8389,1703
0.8417,1720
0.8444,1717
0.8472,1706
0.8500,1693
0.8528,1683
0.8556,1677
0.8583,1661
0.8611,1679
0.8639,1689
0.8667,1702
0.8694,1698
0.8722,1721
0.8750,1719
0.8778,1706
0.8806,1709
0.8833,1694
0.8861,1672
0.8889,1666
0.8917,1669
0.8944,1672
0.8972,1672
0.9000,1680
0.9028,1686
0.9056,1687
0.9083,1690
0.9111,1699
0.9139,1697
0.9167,1678
0.9194,1675
0.9222,1680
0.9250,1685
0.9278,1699
0.9306,1716
0.9333,1746
0.9361,1764
0.9389,1783
0.9417,1790
0.9444,1795
0.9472,1781
0.9500,1755
0.9528,1721
0.9556,1691
0.9583,1693
0.9611,1706
0.9639,1716
0.9667,1739
0.9694,1768
0.9722,1781
0.9750,1767
0.9778,1728
0.9806,1701
0.9833,1679
0.9861,1663
0.9889,1676
0.9917,1692
0.9944,1706
0.9972,1711
1.0000,1720
1.0028,1710
1.0056,1702
1.0083,1701
1.0111,1688
1.0139,1651
1.0167,1629
1.0194,1623
1.0222,1624
1.0250,1633
1.0278,1615
1.0306,1636
1.0333,1660
1.0361,1665
1.0389,1684
1.0417,1689
1.0444,1667
1.0472,1651
1.0500,1640
1.0528,1646
1.0556,1651
1.0583,1659
1.0611,1669
1.0639,1677
1.0667,1694
1.0694,1699
1.0722,1704
1.0750,1701
1.0778,1702
1.0806,1727
1.0833,1752
1.0861,1792
1.0889,1802
1.0917,1817
1.0944,1795
1.0972,1766
1.1000,1743
1.1028,1734
1.1056,1705
1.1083,1718
1.1111,1797
1.1139,1965
1.1167,2154
1.1194,2197
1.1222,2089
1.1250,1944
1.1278,1826
1.1306,1779
1.1333,1729
1.1361,1698
1.1389,1655
1.1417,1608
1.1444,1545
1.1472,1492
1.1500,1491
1.1528,1533
1.1556,1578
1.1583,1615
1.1611,1648
1.1639,1679
1.1667,1703
1.1694,1705
1.1722,1697
1.1750,1688
1.1778,1662
1.1806,1679
1.1833,1697
1.1861,1714
1.1889,1706
1.1917,1691
1.1944,1674
1.1972,1657
1.2000,1671
1.2028,1697
1.2056,1714
1.2083,1720
1.2111,1700
1.2139,1692
1.2167,1685
1.2194,1683
1.2222,1699
1.2250,1732
1.2278,1739
1.2306,1740
1.2333,1733
1.2361,1732
1.2389,1728
1.2417,1744
1.2444,1740
1.2472,1724
1.2500,1718
1.2528,1713
1.2556,1716
1.2583,1719
1.2611,1732
1.2639,1750
1.2667,1757
1.2694,1753
1.2722,1752
1.2750,1746
1.2778,1745
1.2806,1739
1.2833,1745
1.2861,1756
1.2889,1753
1.2917,1762
1.2944,1754
1.2972,1752
1.3000,1749
1.3028,1763
1.3056,1763
1.3083,1779
1.3111,1872
1.3139,1850
1.3167,1852
1.3194,1872
1.3222,1888
1.3250,1901
1.3278,1911
1.3306,1909
1.3333,1894
1.3361,1866
1.3389,1864
1.3417,1865
1.3444,1885
1.3472,1907
1.3500,1912
1.3528,1887
1.3556,1863
1.3583,1851
1.3611,1849
1.3639,1851
1.3667,1826
1.3694,1818
1.3722,1806
1.3750,1779
1.3778,1777
1.3806,1771
1.3833,1776
1.3861,1776
1.3889,1780
1.3917,1762
1.3944,1747
1.3972,1733
1.4000,1729
1.4028,1701
1.4056,1691
1.4083,1680
1.4111,1674
1.4139,1664
1.4167,1645
1.4194,1626
1.4222,1616
1.4250,1621
1.4278,1629
1.4306,1630
1.4333,1619
1.4361,1617
1.4389,1611
1.4417,1605
1.4444,1614
1.4472,1637
1.4500,1644
1.4528,1643
1.4556,1638
1.4583,1622
1.4611,1610
1.4639,1602
1.4667,1615
1.4694,1601
1.4722,1601
1.4750,1594
1.4778,1580
1.4806,1595
1.4833,1626
1.4861,1629
1.4889,1624
1.4917,1617
1.4944,1604
1.4972,1610
1.5000,1626
1.5028,1643
1.5056,1641
1.5083,1644
1.5111,1630
1.5139,1612
1.5167,1600
1.5194,1594
1.5222,1594
1.5250,1619
1.5278,1630
1.5306,1652
1.5333,1643
1.5361,1625
1.5389,1612
1.5417,1601
1.5444,1608
1.5472,1616
1.5500,1639
1.5528,1633
1.5556,1632
1.5583,1629
1.5611,1629
1.5639,1610
1.5667,1594
1.5694,1595
1.5722,1598
1.5750,1595
1.5778,1600
1.5806,1628
1.5833,1627
1.5861,1618
1.5889,1599
1.5917,1598
1.5944,1583
1.5972,1585
1.6000,1611
1.6028,1602
1.6056,1606
1.6083,1587
1.6111,1592
1.6139,1596
1.6167,1594
1.6194,1598
1.6222,1604
1.6250,1613
1.6278,1633
1.6306,1627
1.6333,1618
1.6361,1602
1.6389,1598
1.6417,1606
1.6444,1593
1.6472,1600
1.6500,1607
1.6528,1611
1.6556,1593
1.6583,1611
1.6611,1601
1.6639,1607
1.6667,1617
1.6694,1625
1.6722,1630
1.6750,1614
1.6778,1606
1.6806,1609
1.6833,1611
1.6861,1627
1.6889,1624
1.6917,1628
1.6944,1610
1.6972,1597
1.7000,1605
1.7028,1594
1.7056,1596
1.7083,1607
1.7111,1622
1.7139,1625
1.7167,1618
1.7194,1634
1.7222,1626
1.7250,1614
1.7278,1618
1.7306,1617
1.7333,1615
1.7361,1622
1.7389,1647
1.7417,1680
1.7444,1707
1.7472,1721
1.7500,1738
1.7528,1726
1.7556,1690
1.7583,1665
1.7611,1639
1.7639,1624
1.7667,1604
1.7694,1610
1.7722,1615
1.7750,1619
1.7778,1649
1.7806,1673
1.7833,1673
1.7861,1670
1.7889,1652
1.7917,1634
1.7944,1616
1.7972,1617
1.8000,1627
1.8028,1641
1.8056,1653
1.8083,1643
1.8111,1646
1.8139,1623
1.8167,1604
1.8194,1601
1.8222,1591
1.8250,1573
1.8278,1577
1.8306,1571
1.8333,1558
1.8361,1551
1.8389,1566
1.8417,1590
1.8444,1594
1.8472,1596
1.8500,1608
1.8528,1616
1.8556,1608
1.8583,1601
1.8611,1593
1.8639,1600
1.8667,1595
1.8694,1599
1.8722,1611
1.8750,1608
1.8778,1614
1.8806,1622
1.8833,1657
1.8861,1699
1.8889,1758
1.8917,1792
1.8944,1784
1.8972,1767
1.9000,1748
1.9028,1695
1.9056,1671
1.9083,1670
1.9111,1716
1.9139,1776
1.9167,1897
1.9194,2082
1.9222,2211
1.9250,2151
1.9278,2013
1.9306,1888
1.9333,1828
1.9361,1768
1.9389,1698
1.9417,1638
1.9444,1593
1.9472,1531
1.9500,1493
1.9528,1463
1.9556,1461
1.9583,1504
1.9611,1569
1.9639,1612
1.9667,1636
1.9694,1650
1.9722,1665
1.9750,1650
1.9778,1634
1.9806,1629
1.9833,1633
1.9861,1657
1.9889,1660
1.9917,1668
1.9944,1653
1.9972,1650
2.0000,1656
2.0028,1678
2.0056,1672
2.0083,1687
2.0111,1691
2.0139,1695
2.0167,1709
2.0194,1716
2.0222,1729
2.0250,1715
2.0278,1717
2.0306,1726
2.0333,1721
2.0361,1717
2.0389,1710
2.0417,1691
2.0444,1690
2.0472,1697
2.0500,1724
2.0528,1741
2.0556,1732
2.0583,1742
2.0611,1736
2.0639,1752
2.0667,1753
2.0694,1753
2.0722,1763
2.0750,1769
2.0778,1776
2.0806,1785
2.0833,1776
2.0861,1790
2.0889,1805
2.0917,1812
2.0944,1806
2.0972,1814
2.1000,1807
2.1028,1811
2.1056,1820
2.1083,1845
2.1111,1853
2.1139,1942
2.1167,1950
2.1194,1955
2.1222,1953
2.1250,1957
2.1278,1970
2.1306,1982
2.1333,1961
2.1361,1948
2.1389,1935
2.1417,1953
2.1444,1968
2.1472,1985
2.1500,1984
2.1528,1977
2.1556,1960
2.1583,1966
2.1611,1953
2.1639,1945
2.1667,1954
2.1694,1939
2.1722,1944
2.1750,1929
2.1778,1923
2.1806,1913
2.1833,1911
2.1861,1924
2.1889,1918
2.1917,1914
2.1944,1897
2.1972,1889
2.2000,1879
2.2028,1876
2.2056,1875
2.2083,1880
2.2111,1876
2.2139,1862
2.2167,1835
2.2194,1835
2.2222,1828
2.2250,1836
2.2278,1832
2.2306,1849
2.2333,1837
2.2361,1829
2.2389,1825
2.2417,1817
2.2444,1819
2.2472,1831
2.2500,1822
2.2528,1826
2.2556,1817
2.2583,1823
2.2611,1814
2.2639,1833
2.2667,1837
2.2694,1836
2.2722,1839
2.2750,1833
2.2778,1825
2.2806,1826
2.2833,1824
2.2861,1841
2.2889,1852
2.2917,1854
2.2944,1850
2.2972,1847
2.3000,1847
2.3028,1847
2.3056,1855
2.3083,1859
2.3111,1873
2.3139,1862
2.3167,1855
2.3194,1848
2.3222,1855
2.3250,1854
2.3278,1876
2.3306,1864
2.3333,1865
2.3361,1853
2.3389,1859
2.3417,1853
2.3444,1852
2.3472,1859
2.3500,1872
2.3528,1873
2.3556,1865
2.3583,1863
2.3611,1863
2.3639,1861
2.3667,1864
2.3694,1876
2.3722,1859
2.3750,1850
2.3778,1844
2.3806,1840
2.3833,1832
2.3861,1849
2.3889,1850
2.3917,1856
2.3944,1864
2.3972,1858
2.4000,1854
2.4028,1857
2.4056,1843
2.4083,1847
2.4111,1847
2.4139,1849
2.4167,1848
2.4194,1857
2.4222,1838
2.4250,1853
2.4278,1853
2.4306,1859
2.4333,1842
2.4361,1835
2.4389,1835
2.4417,1838
2.4444,1839
2.4472,1841
2.4500,1847
2.4528,1852
2.4556,1838
2.4583,1829
2.4611,1827
2.4639,1838
2.4667,1831
2.4694,1832
2.4722,1826
2.4750,1833
2.4778,1830
2.4806,1834
2.4833,1832
2.4861,1830
2.4889,1822
2.4917,1839
2.4944,1822
2.4972,1814
2.5000,1811
2.5028,1820
2.5056,1813
2.5083,1826
2.5111,1826
2.5139,1824
2.5167,1832
2.5194,1839
2.5222,1841
2.5250,1840
2.5278,1847
2.5306,1844
2.5333,1824
2.5361,1817
2.5389,1811
2.5417,1810
2.5444,1803
2.5472,1817
2.5500,1838
2.5528,1862
2.5556,1881
2.5583,1911
2.5611,1920
2.5639,1920
2.5667,1914
2.5694,1916
2.5722,1891
2.5750,1877
2.5778,1866
2.5806,1847
2.5833,1841
2.5861,1836
2.5889,1837
2.5917,1863
2.5944,1855
2.5972,1864
2.6000,1857
2.6028,1835
2.6056,1817
2.6083,1821
2.6111,1830
2.6139,1834
2.6167,1855
2.6194,1864
2.6222,1864
2.6250,1847
2.6278,1831
2.6306,1821
2.6333,1815
2.6361,1794
2.6389,1782
2.6417,1773
2.6444,1774
2.6472,1771
2.6500,1783
2.6528,1768
2.6556,1762
2.6583,1767
2.6611,1773
2.6639,1772
2.6667,1774
2.6694,1786
2.6722,1788
2.6750,1796
2.6778,1799
2.6806,1792
2.6833,1781
2.6861,1777
2.6889,1781
2.6917,1779
2.6944,1781
2.6972,1806
2.7000,1864
2.7028,1911
2.7056,1974
2.7083,2005
2.7111,2013
2.7139,1991
2.7167,1960
2.7194,1943
2.7222,1926
2.7250,1931
2.7278,1967
2.7306,2049
2.7333,2206
2.7361,2381
2.7389,2403
2.7417,2256
2.7444,2050
2.7472,1897
2.7500,1821
2.7528,1773
2.7556,1730
2.7583,1712
2.7611,1693
2.7639,1667
2.7667,1693
2.7694,1717
2.7722,1752
2.7750,1769
2.7778,1772
2.7806,1766
2.7833,1779
2.7861,1770
2.7889,1772
2.7917,1757
2.7944,1741
2.7972,1750
2.8000,1758
2.8028,1763
2.8056,1789
2.8083,1791
2.8111,1784
2.8139,1770
2.8167,1768
2.8194,1774
2.8222,1765
2.8250,1778
2.8278,1786
2.8306,1771
2.8333,1762
2.8361,1761
2.8389,1768
2.8417,1788
2.8444,1797
2.8472,1813
2.8500,1820
2.8528,1797
2.8556,1781
2.8583,1775
2.8611,1787
2.8639,1790
2.8667,1809
2.8694,1820
2.8722,1811
2.8750,1797
2.8778,1795
2.8806,1800
2.8833,1835
2.8861,1861
2.8889,1878
2.8917,1873
2.8944,1846
2.8972,1829
2.9000,1814
2.9028,1811
2.9056,1829
2.9083,1836
2.9111,1844
2.9139,1850
2.9167,1849
2.9194,1866
2.9222,1889
2.9250,1897
2.9278,1913
2.9306,1912
2.9333,1900
2.9361,1892
2.9389,1883
2.9417,1965
2.9444,1963
2.9472,1959
2.9500,1949
2.9528,1927
2.9556,1905
2.9583,1893
2.9611,1900
2.9639,1908
2.9667,1915
2.9694,1919
2.9722,1888
2.9750,1880
2.9778,1881
2.9806,1893
2.9833,1902
2.9861,1910
2.9889,1880
2.9917,1839
2.9944,1812
2.9972,1798
3.0000,1794
3.0028,1795
3.0056,1793
3.0083,1787
3.0111,1772
3.0139,1752
3.0167,1745
3.0194,1738
3.0222,1735
3.0250,1740
3.0278,1739
3.0306,1719
3.0333,1716
3.0361,1699
3.0389,1688
3.0417,1686
3.0444,1690
3.0472,1701
3.0500,1706
3.0528,1687
3.0556,1678
3.0583,1674
3.0611,1675
3.0639,1669
3.0667,1685
3.0694,1689
3.0722,1685
3.0750,1666
3.0778,1670
3.0806,1677
3.0833,1695
3.0861,1705
3.0889,1710
3.0917,1701
3.0944,1673
3.0972,1662
3.1000,1663
3.1028,1660
3.1056,1669
3.1083,1673
3.1111,1675
3.1139,1665
3.1167,1670
3.1194,1681
3.1222,1681
3.1250,1694
3.1278,1692
3.1306,1686
3.1333,1680
3.1361,1685
3.1389,1696
3.1417,1691
3.1444,1701
3.1472,1695
3.1500,1709
3.1528,1693
3.1556,1675
3.1583,1676
3.1611,1678
3.1639,1688
3.1667,1679
3.1694,1697
3.1722,1669
3.1750,1681
3.1778,1691
3.1806,1697
3.1833,1720
3.1861,1720
3.1889,1716
3.1917,1707
3.1944,1685
3.1972,1676
3.2000,1676
3.2028,1664
3.2056,1671
3.2083,1686
3.2111,1683
3.2139,1679
3.2167,1674
3.2194,1678
3.2222,1674
3.2250,1689
3.2278,1686
3.2306,1686
3.2333,1676
3.2361,1665
3.2389,1662
3.2417,1661
3.2444,1662
3.2472,1674
3.2500,1670
3.2528,1669
3.2556,1655
3.2583,1661
3.2611,1659
3.2639,1659
3.2667,1654
3.2694,1671
3.2722,1673
3.2750,1676
3.2778,1674
3.2806,1665
3.2833,1658
3.2861,1662
3.2889,1662
3.2917,1662
3.2944,1666
3.2972,1658
3.3000,1667
3.3028,1665
3.3056,1672
3.3083,1686
3.3111,1686
3.3139,1679
3.3167,1686
3.3194,1691
3.3222,1703
3.3250,1701
3.3278,1701
3.3306,1699
3.3333,1690
3.3361,1690
3.3389,1688
3.3417,1682
3.3444,1676
3.3472,1693
3.3500,1696
3.3528,1690
3.3556,1696
3.3583,1705
3.3611,1721
3.3639,1733
3.3667,1752
3.3694,1775
3.3722,1786
3.3750,1786
3.3778,1785
3.3806,1787
3.3833,1771
3.3861,1756
3.3889,1746
3.3917,1719
3.3944,1710
3.3972,1703
3.4000,1695
3.4028,1709
3.4056,1722
3.4083,1719
3.4111,1716
3.4139,1684
3.4167,1675
3.4194,1693
3.4222,1700
3.4250,1733
3.4278,1728
3.4306,1732
3.4333,1710
3.4361,1703
3.4389,1693
3.4417,1675
3.4444,1652
3.4472,1640
3.4500,1637
3.4528,1615
3.4556,1637
3.4583,1648
3.4611,1649
3.4639,1651
3.4667,1651
3.4694,1653
3.4722,1650
3.4750,1657
3.4778,1654
3.4806,1643
3.4833,1652
3.4861,1643
3.4889,1642
3.4917,1638
3.4944,1637
3.4972,1658
3.5000,1673
3.5028,1667
3.5056,1685
3.5083,1704
3.5111,1723
3.5139,1749
3.5167,1794
3.5194,1828
3.5222,1839
3.5250,1824
3.5278,1816
3.5306,1791
3.5333,1782
3.5361,1781
3.5389,1799
3.5417,1871
3.5444,1995
3.5472,2190
3.5500,2315
3.5528,2240
3.5556,2032
3.5583,1847
3.5611,1700
3.5639,1627
3.5667,1579
3.5694,1548
3.5722,1521
3.5750,1508
3.5778,1540
3.5806,1584
3.5833,1618
3.5861,1662
3.5889,1670
3.5917,1675
3.5944,1669
3.5972,1665
3.6000,1652
3.6028,1641
3.6056,1643
3.6083,1650
3.6111,1638
3.6139,1653
3.6167,1665
3.6194,1675
3.6222,1679
3.6250,1658
3.6278,1658
3.6306,1656
3.6333,1664
3.6361,1670
3.6389,1693
3.6417,1689
3.6444,1681
3.6472,1681
3.6500,1673
3.6528,1672
3.6556,1681
3.6583,1694
3.6611,1698
3.6639,1703
3.6667,1684
3.6694,1699
3.6722,1693
3.6750,1708
3.6778,1727
3.6806,1732
3.6833,1720
3.6861,1701
3.6889,1684
3.6917,1682
3.6944,1689
3.6972,1718
3.7000,1723
3.7028,1732
3.7056,1719
3.7083,1703
3.7111,1680
3.7139,1679
3.7167,1683
3.7194,1701
3.7222,1704
3.7250,1711
3.7278,1715
3.7306,1723
3.7333,1746
3.7361,1751
3.7389,1768
3.7417,1923
3.7444,1904
3.7472,1894
3.7500,1891
3.7528,1886
3.7556,1876
3.7583,1889
3.7611,1878
3.7639,1882
3.7667,1875
3.7694,1862
3.7722,1852
3.7750,1857
3.7778,1854
3.7806,1851
3.7833,1862
3.7861,1865
3.7889,1852
3.7917,1843
3.7944,1826
3.7972,1819
3.8000,1799
3.8028,1782
3.8056,1769
3.8083,1763
3.8111,1763
3.8139,1748
3.8167,1751
3.8194,1741
3.8222,1724
3.8250,1714
3.8278,1692
3.8306,1684
3.8333,1670
3.8361,1676
3.8389,1675
3.8417,1668
3.8444,1675
3.8472,1669
3.8500,1668
3.8528,1669
3.8556,1691
3.8583,1689
3.8611,1689
3.8639,1665
3.8667,1655
3.8694,1646
3.8722,1619
3.8750,1624
3.8778,1637
3.8806,1649
3.8833,1651
3.8861,1653
3.8889,1661
3.8917,1663
3.8944,1669
3.8972,1670
3.9000,1692
3.9028,1678
3.9056,1674
3.9083,1679
3.9111,1668
3.9139,1658
3.9167,1657
3.9194,1651
3.9222,1662
3.9250,1658
3.9278,1667
3.9306,1667
3.9333,1668
3.9361,1676
3.9389,1699
3.9417,1692
3.9444,1698
3.9472,1696
3.9500,1673
3.9528,1666
3.9556,1660
3.9583,1671
3.9611,1669
3.9639,1672
3.9667,1685
3.9694,1681
3.9722,1685
3.9750,1691
3.9778,1708
3.9806,1709
3.9833,1710
3.9861,1726
3.9889,1727
3.9917,1729
3.9944,1728
3.9972,1710
4.0000,1719
4.0028,1712
4.0056,1705
4.0083,1702
4.0111,1718
4.0139,1720
4.0167,1739
4.0194,1748
4.0222,1752
4.0250,1755
4.0278,1755
4.0306,1747
4.0333,1730
4.0361,1727
4.0389,1720
4.0417,1723
4.0444,1715
4.0472,1718
4.0500,1720
4.0528,1715
4.0556,1726
4.0583,1718
4.0611,1728
4.0639,1721
4.0667,1725
4.0694,1722
4.0722,1728
4.0750,1721
4.0778,1749
4.0806,1744
4.0833,1737
4.0861,1735
4.0889,1720
4.0917,1721
4.0944,1721
4.0972,1722
4.1000,1738
4.1028,1738
4.1056,1732
4.1083,1734
4.1111,1742
4.1139,1737
4.1167,1749
4.1194,1755
4.1222,1761
4.1250,1758
4.1278,1743
4.1306,1732
4.1333,1724
4.1361,1720
4.1389,1741
4.1417,1731
4.1444,1742
4.1472,1750
4.1500,1752
4.1528,1748
4.1556,1749
4.1583,1755
4.1611,1733
4.1639,1724
4.1667,1730
4.1694,1732
4.1722,1720
4.1750,1736
4.1778,1757
4.1806,1772
4.1833,1788
4.1861,1809
4.1889,1819
4.1917,1836
4.1944,1846
4.1972,1847
4.2000,1844
4.2028,1829
4.2056,1810
4.2083,1784
4.2111,1764
4.2139,1771
4.2167,1775
4.2194,1778
4.2222,1780
4.2250,1789
4.2278,1788
4.2306,1776
4.2333,1748
4.2361,1757
4.2389,1755
4.2417,1777
4.2444,1783
4.2472,1799
4.2500,1795
4.2528,1769
4.2556,1765
4.2583,1754
4.2611,1741
4.2639,1709
4.2667,1699
4.2694,1695
4.2722,1694
4.2750,1690
4.2778,1701
4.2806,1698
4.2833,1694
4.2861,1690
4.2889,1699
4.2917,1699
4.2944,1705
4.2972,1709
4.3000,1709
4.3028,1705
4.3056,1717
4.3083,1725
4.3111,1713
4.3139,1719
4.3167,1715
4.3194,1722
4.3222,1722
4.3250,1730
4.3278,1723
4.3306,1756
4.3333,1795
4.3361,1847
4.3389,1877
4.3417,1901
4.3444,1903
4.3472,1872
4.3500,1862
4.3528,1849
4.3556,1834
4.3583,1827
4.3611,1865
4.3639,1970
4.3667,2142
4.3694,2304
4.3722,2287
4.3750,2132
4.3778,1955
4.3806,1825
4.3833,1749
4.3861,1702
4.3889,1652
4.3917,1612
4.3944,1589
4.3972,1582
4.4000,1616
4.4028,1646
4.4056,1682
4.4083,1707
4.4111,1716
4.4139,1723
4.4167,1741
4.4194,1743
4.4222,1735
4.4250,1721
4.4278,1713
4.4306,1714
4.4333,1700
4.4361,1708
4.4389,1722
4.4417,1729
4.4444,1728
4.4472,1728
4.4500,1741
4.4528,1737
4.4556,1753
4.4583,1750
4.4611,1750
4.4639,1744
4.4667,1743
4.4694,1731
4.4722,1746
4.4750,1743
4.4778,1759
4.4806,1781
4.4833,1782
4.4861,1774
4.4889,1764
4.4917,1751
4.4944,1742
4.4972,1746
4.5000,1755
4.5028,1762
4.5056,1763
4.5083,1772
4.5111,1768
4.5139,1761
4.5167,1765
4.5194,1776
4.5222,1785
4.5250,1785
4.5278,1792
4.5306,1798
4.5333,1793
4.5361,1808
4.5389,1818
4.5417,1796
4.5444,1795
4.5472,1796
4.5500,1818
4.5528,1823
4.5556,1833
4.5583,1834
4.5611,1830
4.5639,1827
4.5667,1825
4.5694,1828
4.5722,1837
4.5750,1877
4.5778,1907
4.5806,1923
4.5833,1935
4.5861,1923
4.5889,1917
4.5917,1909
4.5944,1899
4.5972,1917
4.6000,1921
4.6028,1914
4.6056,1910
4.6083,1896
4.6111,1885
4.6139,1883
4.6167,1888
4.6194,1889
4.6222,1882
4.6250,1871
4.6278,1850
4.6306,1827
4.6333,1814
4.6361,1823
4.6389,1818
4.6417,1815
4.6444,1792
4.6472,1771
4.6500,1746
4.6528,1730
4.6556,1728
4.6583,1736
4.6611,1748
4.6639,1757
4.6667,1754
4.6694,1738
4.6722,1728
4.6750,1723
4.6778,1717
4.6806,1704
4.6833,1710
4.6861,1715
4.6889,1714
4.6917,1722
4.6944,1721
4.6972,1711
4.7000,1714
4.7028,1699
4.7056,1697
4.7083,1677
4.7111,1659
4.7139,1679
4.7167,1689
4.7194,1697
4.7222,1696
4.7250,1696
4.7278,1691
4.7306,1679
4.7333,1697
4.7361,1707
4.7389,1707
4.7417,1703
4.7444,1699
4.7472,1699
4.7500,1682
4.7528,1677
4.7556,1691
4.7583,1688
4.7611,1696
4.7639,1696
4.7667,1694
4.7694,1688
4.7722,1684
4.7750,1695
4.7778,1679
4.7806,1680
4.7833,1677
4.7861,1686
4.7889,1669
4.7917,1667
4.7944,1671
4.7972,1676
4.8000,1677
4.8028,1685
4.8056,1688
4.8083,1702
4.8111,1696
4.8139,1692
4.8167,1687
4.8194,1701
4.8222,1692
4.8250,1689
4.8278,1694
4.8306,1682
4.8333,1682
4.8361,1677
4.8389,1703
4.8417,1695
4.8444,1693
4.8472,1692
4.8500,1687
4.8528,1663
4.8556,1657
4.8583,1666
4.8611,1652
4.8639,1678
4.8667,1677
4.8694,1673
4.8722,1667
4.8750,1687
4.8778,1695
4.8806,1704
4.8833,1704
4.8861,1693
4.8889,1676
4.8917,1670
4.8944,1678
4.8972,1697
4.9000,1696
4.9028,1706
4.9056,1712
4.9083,1700
4.9111,1695
4.9139,1681
4.9167,1702
4.9194,1697
4.9222,1685
4.9250,1702
4.9278,1703
4.9306,1684
4.9333,1682
4.9361,1691
4.9389,1692
4.9417,1692
4.9444,1684
4.9472,1674
4.9500,1662
4.9528,1653
4.9556,1661
4.9583,1673
4.9611,1674
4.9639,1672
4.9667,1679
4.9694,1670
4.9722,1676
4.9750,1684
4.9778,1684
4.9806,1691
4.9833,1702
4.9861,1699
4.9889,1721
4.9917,1714
4.9944,1719
4.9972,1729
5.0000,1739
5.0028,1740
5.0056,1754
5.0083,1753
5.0111,1751
5.0139,1751
5.0167,1739
5.0194,1724
5.0222,1711
5.0250,1721
5.0278,1711
5.0306,1714
5.0333,1714
5.0361,1718
5.0389,1733
5.0417,1727
5.0444,1721
5.0472,1713
5.0500,1706
5.0528,1703
5.0556,1722
5.0583,1713
5.0611,1720
5.0639,1701
5.0667,1698
5.0694,1667
5.0722,1662
5.0750,1650
5.0778,1646
5.0806,1637
5.0833,1626
5.0861,1625
5.0889,1625
5.0917,1611
5.0944,1617
5.0972,1610
5.1000,1628
5.1028,1632
5.1056,1650
5.1083,1651
5.1111,1632
5.1139,1630
5.1167,1626
5.1194,1627
5.1222,1634
5.1250,1637
5.1278,1640
5.1306,1630
5.1333,1634
5.1361,1639
5.1389,1637
5.1417,1639
5.1444,1664
5.1472,1699
5.1500,1741
5.1528,1780
5.1556,1795
5.1583,1775
5.1611,1736
5.1639,1706
5.1667,1674
5.1694,1670
5.1722,1656
5.1750,1705
5.1778,1816
5.1806,2000
5.1833,2168
5.1861,2185
5.1889,2052
5.1917,1897
5.1944,1791
5.1972,1741
5.2000,1672
5.2028,1622
5.2056,1564
5.2083,1504
5.2111,1460
5.2139,1427
5.2167,1452
5.2194,1494
5.2222,1547
5.2250,1582
5.2278,1615
5.2306,1624
5.2333,1637
5.2361,1646
5.2389,1643
5.2417,1629
5.2444,1618
5.2472,1619
5.2500,1629
5.2528,1636
5.2556,1651
5.2583,1643
5.2611,1640
5.2639,1634
5.2667,1642
5.2694,1651
5.2722,1654
5.2750,1671
5.2778,1657
5.2806,1628
5.2833,1616
5.2861,1629
5.2889,1642
5.2917,1663
5.2944,1673
5.2972,1666
5.3000,1652
5.3028,1648
5.3056,1643
5.3083,1664
5.3111,1653
5.3139,1657
5.3167,1655
5.3194,1650
5.3222,1650
5.3250,1647
5.3278,1657
5.3306,1663
5.3333,1669
5.3361,1664
5.3389,1672
5.3417,1656
5.3444,1651
5.3472,1664
5.3500,1684
5.3528,1688
5.3556,1699
5.3583,1699
5.3611,1684
5.3639,1676
5.3667,1687
5.3694,1699
5.3722,1720
5.3750,1827
5.3778,1838
5.3806,1831
5.3833,1817
5.3861,1806
5.3889,1793
5.3917,1781
5.3944,1785
5.3972,1781
5.4000,1782
5.4028,1783
5.4056,1805
5.4083,1807
5.4111,1829
5.4139,1829
5.4167,1839
5.4194,1808
5.4222,1787
5.4250,1772
5.4278,1752
5.4306,1741
5.4333,1736
5.4361,1756
5.4389,1766
5.4417,1775
5.4444,1775
5.4472,1760
5.4500,1720
5.4528,1690
5.4556,1675
5.4583,1672
5.4611,1663
5.4639,1673
5.4667,1663
5.4694,1657
5.4722,1651
5.4750,1648
5.4778,1647
5.4806,1646
5.4833,1643
5.4861,1639
5.4889,1605
5.4917,1602
5.4944,1582
5.4972,1591
5.5000,1587
5.5028,1577
5.5056,1565
5.5083,1564
5.5111,1562
5.5139,1577
5.5167,1591
5.5194,1593
5.5222,1586
5.5250,1585
5.5278,1592
5.5306,1588
5.5333,1592
5.5361,1596
5.5389,1600
5.5417,1594
5.5444,1585
5.5472,1582
5.5500,1580
5.5528,1601
5.5556,1603
5.5583,1614
5.5611,1609
5.5639,1596
5.5667,1591
5.5694,1577
5.5722,1595
5.5750,1599
5.5778,1610
5.5806,1622
5.5833,1619
5.5861,1638
5.5889,1633
5.5917,1617
5.5944,1608
5.5972,1609
5.6000,1592
5.6028,1601
5.6056,1609
5.6083,1605
5.6111,1597
5.6139,1606
5.6167,1615
5.6194,1600
5.6222,1597
5.6250,1606
5.6278,1614
5.6306,1621
5.6333,1620
5.6361,1616
5.6389,1585
5.6417,1575
5.6444,1595
5.6472,1608
5.6500,1593
5.6528,1597
5.6556,1593
5.6583,1603
5.6611,1611
5.6639,1614
5.6667,1624
5.6694,1643
5.6722,1623
5.6750,1618
5.6778,1622
5.6806,1624
5.6833,1638
5.6861,1662
5.6889,1641
5.6917,1628
5.6944,1619
5.6972,1614
5.7000,1630
5.7028,1631
5.7056,1636
5.7083,1640
5.7111,1621
5.7139,1614
5.7167,1631
5.7194,1630
5.7222,1647
5.7250,1669
5.7278,1659
5.7306,1632
5.7333,1612
5.7361,1614
5.7389,1619
5.7417,1632
5.7444,1646
5.7472,1660
5.7500,1655
5.7528,1637
5.7556,1642
5.7583,1633
5.7611,1643
5.7639,1632
5.7667,1647
5.7694,1654
5.7722,1647
5.7750,1643
5.7778,1639
5.7806,1652
5.7833,1648
5.7861,1667
5.7889,1648
5.7917,1626
5.7944,1643
5.7972,1637
5.8000,1650
5.8028,1671
5.8056,1687
5.8083,1711
5.8111,1725
5.8139,1745
5.8167,1756
5.8194,1757
5.8222,1744
5.8250,1752
5.8278,1733
5.8306,1715
5.8333,1696
5.8361,1674
5.8389,1673
5.8417,1665
5.8444,1685
5.8472,1695
5.8500,1701
5.8528,1702
5.8556,1713
5.8583,1690
5.8611,1676
5.8639,1677
5.8667,1677
5.8694,1687
5.8722,1686
5.8750,1686
5.8778,1671
5.8806,1670
5.8833,1666
5.8861,1660
5.8889,1640
5.8917,1626
5.8944,1631
5.8972,1643
5.9000,1632
5.9028,1623
5.9056,1614
5.9083,1609
5.9111,1627
5.9139,1640
5.9167,1644
5.9194,1620
5.9222,1609
5.9250,1594
5.9278,1590
5.9306,1606
5.9333,1619
5.9361,1637
5.9389,1644
5.9417,1636
5.9444,1622
5.9472,1627
5.9500,1625
5.9528,1660
5.9556,1720
5.9583,1770
5.9611,1784
5.9639,1772
5.9667,1747
5.9694,1698
5.9722,1662
5.9750,1666
5.9778,1671
5.9806,1688
5.9833,1760
5.9861,1899
5.9889,2078
5.9917,2212
5.9944,2188
5.9972,2050
6.0000,1917
6.0028,1844
6.0056,1789
6.0083,1702
6.0111,1624
6.0139,1561
6.0167,1496
6.0194,1449
6.0222,1418
6.0250,1459
6.0278,1507
6.0306,1565
6.0333,1603
6.0361,1621
6.0389,1632
6.0417,1618
6.0444,1621
6.0472,1621
6.0500,1605
6.0528,1614
6.0556,1642
6.0583,1644
6.0611,1659
6.0639,1674
6.0667,1659
6.0694,1659
6.0722,1636
6.0750,1640
6.0778,1640
6.0806,1656
6.0833,1654
6.0861,1668
6.0889,1674
6.0917,1666
6.0944,1670
6.0972,1670
6.1000,1680
6.1028,1683
6.1056,1679
6.1083,1670
6.1111,1678
6.1139,1690
6.1167,1712
6.1194,1720
6.1222,1728
6.1250,1723
6.1278,1717
6.1306,1694
6.1333,1693
6.1361,1700
6.1389,1709
6.1417,1722
6.1444,1736
6.1472,1745
6.1500,1754
6.1528,1748
6.1556,1749
6.1583,1752
6.1611,1744
6.1639,1762
6.1667,1764
6.1694,1764
6.1722,1761
6.1750,1772
6.1778,1776
6.1806,1773
6.1833,1908
6.1861,1877
6.1889,1861
6.1917,1852
6.1944,1855
6.1972,1861
6.2000,1853
6.2028,1853
6.2056,1846
6.2083,1838
6.2111,1843
6.2139,1852
6.2167,1871
6.2194,1883
6.2222,1885
6.2250,1869
6.2278,1850
6.2306,1816
6.2333,1822
6.2361,1823
6.2389,1832
6.2417,1836
6.2444,1821
6.2472,1811
6.2500,1798
6.2528,1795
6.2556,1799
6.2583,1815
6.2611,1804
6.2639,1796
6.2667,1778
6.2694,1748
6.2722,1741
6.2750,1739
6.2778,1731
6.2806,1723
6.2833,1714
6.2861,1696
6.2889,1694
6.2917,1672
6.2944,1679
6.2972,1689
6.3000,1692
6.3028,1698
6.3056,1694
6.3083,1689
6.3111,1679
6.3139,1696
6.3167,1690
6.3194,1693
6.3222,1693
6.3250,1683
6.3278,1683
6.3306,1669
6.3333,1690
6.3361,1690
6.3389,1694
6.3417,1690
6.3444,1699
6.3472,1692
6.3500,1670
6.3528,1687
6.3556,1699
6.3583,1711
6.3611,1709
6.3639,1723
6.3667,1719
6.3694,1720
6.3722,1709
6.3750,1730
6.3778,1735
6.3806,1741
6.3833,1737
6.3861,1722
6.3889,1712
6.3917,1706
6.3944,1720
6.3972,1732
6.4000,1733
6.4028,1744
6.4056,1736
6.4083,1728
6.4111,1723
6.4139,1724
6.4167,1732
6.4194,1727
6.4222,1722
6.4250,1733
6.4278,1725
6.4306,1737
6.4333,1738
6.4361,1741
6.4389,1743
6.4417,1740
6.4444,1749
6.4472,1747
6.4500,1727
6.4528,1732
6.4556,1732
6.4583,1746
6.4611,1751
6.4639,1755
6.4667,1742
6.4694,1743
6.4722,1748
6.4750,1742
6.4778,1753
6.4806,1753
6.4833,1755
6.4861,1763
6.4889,1760
6.4917,1764
6.4944,1776
6.4972,1789
6.5000,1782
6.5028,1782
6.5056,1779
6.5083,1756
6.5111,1748
6.5139,1762
6.5167,1760
6.5194,1773
6.5222,1778
6.5250,1777
6.5278,1778
6.5306,1769
6.5333,1773
6.5361,1779
6.5389,1771
6.5417,1766
6.5444,1782
6.5472,1770
6.5500,1777
6.5528,1780
6.5556,1793
6.5583,1797
6.5611,1796
6.5639,1781
6.5667,1771
6.5694,1774
6.5722,1781
6.5750,1779
6.5778,1787
6.5806,1784
6.5833,1793
6.5861,1795
6.5889,1785
6.5917,1794
6.5944,1786
6.5972,1798
6.6000,1793
6.6028,1803
6.6056,1808
6.6083,1809
6.6111,1809
6.6139,1819
6.6167,1840
6.6194,1847
6.6222,1868
6.6250,1893
6.6278,1891
6.6306,1891
6.6333,1897
6.6361,1893
6.6389,1875
6.6417,1853
6.6444,1850
6.6472,1837
6.6500,1836
6.6528,1829
6.6556,1837
6.6583,1836
6.6611,1843
6.6639,1835
6.6667,1827
6.6694,1801
6.6722,1780
6.6750,1801
6.6778,1808
6.6806,1836
6.6833,1841
6.6861,1857
6.6889,1852
6.6917,1821
6.6944,1824
6.6972,1812
6.7000,1785
6.7028,1770
6.7056,1751
6.7083,1760
6.7111,1764
6.7139,1781
6.7167,1776
6.7194,1779
6.7222,1766
6.7250,1771
6.7278,1767
6.7306,1778
6.7333,1777
6.7361,1785
6.7389,1778
6.7417,1767
6.7444,1774
6.7472,1790
6.7500,1788
6.7528,1778
6.7556,1789
6.7583,1796
6.7611,1805
6.7639,1833
6.7667,1884
6.7694,1935
6.7722,1969
6.7750,1994
6.7778,1985
6.7806,1976
6.7833,1960
6.7861,1935
6.7889,1924
6.7917,1936
6.7944,1994
6.7972,2113
6.8000,2284
6.8028,2404
6.8056,2318
6.8083,2116
6.8111,1929
6.8139,1846
6.8167,1805
6.8194,1772
6.8222,1750
6.8250,1731
6.8278,1704
6.8306,1685
6.8333,1712
6.8361,1722
6.8389,1746
6.8417,1765
6.8444,1785
6.8472,1807
6.8500,1801
6.8528,1799
6.8556,1786
6.8583,1766
6.8611,1757
6.8639,1770
6.8667,1785
6.8694,1801
6.8722,1805
6.8750,1808
6.8778,1793
6.8806,1788
6.8833,1782
6.8861,1797
6.8889,1798
6.8917,1812
6.8944,1814
6.8972,1819
6.9000,1818
6.9028,1815
6.9056,1816
6.9083,1816
6.9111,1826
6.9139,1830
6.9167,1834
6.9194,1831
6.9222,1825
6.9250,1824
6.9278,1831
6.9306,1838
6.9333,1848
6.9361,1839
6.9389,1836
6.9417,1828
6.9444,1847
6.9472,1860
6.9500,1879
6.9528,1889
6.9556,1886
6.9583,1889
6.9611,1877
6.9639,1883
6.9667,1885
6.9694,1883
6.9722,1877
6.9750,1874
6.9778,1863
6.9806,1866
6.9833,1873
6.9861,1879
6.9889,1906
6.9917,1924
6.9944,1999
6.9972,1996
7.0000,1993
7.0028,1991
7.0056,1995
7.0083,1997
7.0111,1998
7.0139,1986
7.0167,1984
7.0194,1983
7.0222,1969
7.0250,1978
7.0278,1977
7.0306,1984
7.0333,1980
7.0361,1969
7.0389,1953
7.0417,1939
7.0444,1925
7.0472,1915
7.0500,1898
7.0528,1899
7.0556,1896
7.0583,1886
7.0611,1883
7.0639,1872
7.0667,1850
7.0694,1845
7.0722,1840
7.0750,1842
7.0778,1826
7.0806,1805
7.0833,1787
7.0861,1763
7.0889,1757
7.0917,1746
7.0944,1749
7.0972,1737
7.1000,1744
7.1028,1729
7.1056,1725
7.1083,1717
7.1111,1713
7.1139,1733
7.1167,1747
7.1194,1750
7.1222,1743
7.1250,1749
7.1278,1727
7.1306,1733
7.1333,1725
7.1361,1720
7.1389,1730
7.1417,1715
7.1444,1718
7.1472,1719
7.1500,1718
7.1528,1708
7.1556,1725
7.1583,1742
7.1611,1747
7.1639,1753
7.1667,1754
7.1694,1735
7.1722,1733
7.1750,1723
7.1778,1726
7.1806,1724
7.1833,1729
7.1861,1720
7.1889,1730
7.1917,1725
7.1944,1736
7.1972,1725
7.2000,1737
7.2028,1740
7.2056,1746
7.2083,1746
7.2111,1736
7.2139,1741
7.2167,1730
7.2194,1732
7.2222,1731
7.2250,1732
7.2278,1742
7.2306,1741
7.2333,1743
7.2361,1750
7.2389,1745
7.2417,1737
7.2444,1743
7.2472,1732
7.2500,1728
7.2528,1731
7.2556,1733
7.2583,1731
7.2611,1735
7.2639,1742
7.2667,1742
7.2694,1740
7.2722,1746
7.2750,1742
7.2778,1748
7.2806,1732
7.2833,1727
7.2861,1719
7.2889,1710
7.2917,1707
7.2944,1700
7.2972,1708
7.3000,1713
7.3028,1723
7.3056,1724
7.3083,1721
7.3111,1723
7.3139,1730
7.3167,1726
7.3194,1723
7.3222,1719
7.3250,1715
7.3278,1712
7.3306,1698
7.3333,1705
7.3361,1705
7.3389,1696
7.3417,1703
7.3444,1716
7.3472,1723
7.3500,1734
7.3528,1732
7.3556,1731
7.3583,1740
7.3611,1739
7.3639,1736
7.3667,1744
7.3694,1729
7.3722,1728
7.3750,1731
7.3778,1720
7.3806,1716
7.3833,1718
7.3861,1713
7.3889,1728
7.3917,1727
7.3944,1727
7.3972,1734
7.4000,1730
7.4028,1745
7.4056,1750
7.4083,1741
7.4111,1753
7.4139,1752
7.4167,1752
7.4194,1754
7.4222,1771
7.4250,1795
7.4278,1803
7.4306,1824
7.4333,1828
7.4361,1824
7.4389,1818
7.4417,1806
7.4444,1802
7.4472,1776
7.4500,1749
7.4528,1742
7.4556,1744
7.4583,1732
7.4611,1738
7.4639,1748
7.4667,1751
7.4694,1742
7.4722,1730
7.4750,1728
7.4778,1741
7.4806,1755
7.4833,1762
7.4861,1762
7.4889,1752
7.4917,1746
7.4944,1735
7.4972,1724
7.5000,1713
7.5028,1699
7.5056,1691
7.5083,1689
7.5111,1685
7.5139,1689
7.5167,1687
7.5194,1678
7.5222,1684
7.5250,1679
7.5278,1676
7.5306,1697
7.5333,1698
7.5361,1701
7.5389,1695
7.5417,1678
7.5444,1685
7.5472,1690
7.5500,1691
7.5528,1706
7.5556,1710
7.5583,1715
7.5611,1708
7.5639,1704
7.5667,1706
7.5694,1745
7.5722,1783
7.5750,1840
7.5778,1879
7.5806,1886
7.5833,1875
7.5861,1861
7.5889,1826
7.5917,1817
7.5944,1822
7.5972,1845
7.6000,1927
7.6028,2056
7.6056,2248
7.6083,2339
7.6111,2233
7.6139,2022
7.6167,1826
7.6194,1704
7.6222,1640
7.6250,1606
7.6278,1575
7.6306,1540
7.6333,1536
7.6361,1570
7.6389,1595
7.6417,1646
7.6444,1685
7.6472,1709
7.6500,1696
7.6528,1706
7.6556,1694
7.6583,1673
7.6611,1659
7.6639,1663
7.6667,1667
7.6694,1666
7.6722,1685
7.6750,1697
7.6778,1708
7.6806,1717
7.6833,1707
7.6861,1712
7.6889,1711
7.6917,1724
7.6944,1710
7.6972,1703
7.7000,1689
7.7028,1679
7.7056,1667
7.7083,1671
7.7111,1685
7.7139,1697
7.7167,1693
7.7194,1697
7.7222,1699
7.7250,1698
7.7278,1693
7.7306,1726
7.7333,1743
7.7361,1756
7.7389,1742
7.7417,1721
7.7444,1700
7.7472,1689
7.7500,1689
7.7528,1706
7.7556,1712
7.7583,1728
7.7611,1724
7.7639,1730
7.7667,1735
7.7694,1736
7.7722,1758
7.7750,1777
7.7778,1789
7.7806,1791
7.7833,1792
7.7861,1780
7.7889,1784
7.7917,1797
7.7944,1810
7.7972,1805
7.8000,1940
7.8028,1897
7.8056,1892
7.8083,1881
7.8111,1878
7.8139,1892
7.8167,1875
7.8194,1865
7.8222,1853
7.8250,1847
7.8278,1831
7.8306,1826
7.8333,1842
7.8361,1840
7.8389,1852
7.8417,1842
7.8444,1835
7.8472,1809
7.8500,1809
7.8528,1805
7.8556,1798
7.8583,1787
7.8611,1780
7.8639,1766
7.8667,1753
7.8694,1723
7.8722,1723
7.8750,1729
7.8778,1718
7.8806,1713
7.8833,1683
7.8861,1675
7.8889,1664
7.8917,1669
7.8944,1681
7.8972,1675
7.9000,1660
7.9028,1640
7.9056,1621
7.9083,1597
7.9111,1598
7.9139,1605
7.9167,1611
7.9194,1612
7.9222,1617
7.9250,1624
7.9278,1609
7.9306,1619
7.9333,1629
7.9361,1630
7.9389,1637
7.9417,1614
7.9444,1613
7.9472,1597
7.9500,1595
7.9528,1603
7.9556,1621
7.9583,1623
7.9611,1628
7.9639,1624
7.9667,1605
7.9694,1607
7.9722,1630
7.9750,1647
7.9778,1654
7.9806,1648
7.9833,1642
7.9861,1636
7.9889,1613
7.9917,1623
7.9944,1617
7.9972,1621
8.0000,1627
8.0028,1631
8.0056,1619
8.0083,1625
8.0111,1624
8.0139,1637
8.0167,1643
8.0194,1647
8.0222,1666
8.0250,1674
8.0278,1676
8.0306,1667
8.0333,1667
8.0361,1659
8.0389,1638
8.0417,1636
8.0444,1628
8.0472,1630
8.0500,1625
8.0528,1643
8.0556,1656
8.0583,1647
8.0611,1651
8.0639,1663
8.0667,1658
8.0694,1679
8.0722,1681
8.0750,1682
8.0778,1664
8.0806,1652
8.0833,1637
8.0861,1626
8.0889,1627
8.0917,1627
8.0944,1639
8.0972,1639
8.1000,1635
8.1028,1641
8.1056,1643
8.1083,1639
8.1111,1650
8.1139,1653
8.1167,1658
8.1194,1654
8.1222,1652
8.1250,1656
8.1278,1655
8.1306,1646
8.1333,1655
8.1361,1655
8.1389,1669
8.1417,1670
8.1444,1660
8.1472,1672
8.1500,1677
8.1528,1698
8.1556,1707
8.1583,1692
8.1611,1686
8.1639,1662
8.1667,1640
8.1694,1638
8.1722,1647
8.1750,1649
8.1778,1655
8.1806,1672
8.1833,1677
8.1861,1681
8.1889,1670
8.1917,1695
8.1944,1685
8.1972,1690
8.2000,1681
8.2028,1686
8.2056,1689
8.2083,1678
8.2111,1683
8.2139,1689
8.2167,1694
8.2194,1698
8.2222,1699
8.2250,1702
8.2278,1697
8.2306,1703
8.2333,1718
8.2361,1732
8.2389,1756
8.2417,1774
8.2444,1795
8.2472,1793
8.2500,1799
8.2528,1797
8.2556,1786
8.2583,1763
8.2611,1738
8.2639,1720
8.2667,1713
8.2694,1710
8.2722,1716
8.2750,1731
8.2778,1740
8.2806,1737
8.2833,1726
8.2861,1716
8.2889,1706
8.2917,1702
8.2944,1716
8.2972,1732
8.3000,1751
8.3028,1759
8.3056,1747
8.3083,1739
8.3111,1732
8.3139,1710
8.3167,1691
8.3194,1670
8.3222,1668
8.3250,1658
8.3278,1653
8.3306,1657
8.3333,1652
8.3361,1662
8.3389,1662
8.3417,1657
8.3444,1674
8.3472,1672
8.3500,1670
8.3528,1669
8.3556,1677
8.3583,1666
8.3611,1682
8.3639,1684
8.3667,1691
8.3694,1681
8.3722,1684
8.3750,1672
8.3778,1694
8.3806,1707
8.3833,1736
8.3861,1787
8.3889,1834
8.3917,1866
8.3944,1879
8.3972,1859
8.4000,1831
8.4028,1806
8.4056,1787
8.4083,1772
8.4111,1788
8.4139,1859
8.4167,1987
8.4194,2178
8.4222,2283
8.4250,2207
8.4278,2020
8.4306,1853
8.4333,1757
8.4361,1702
8.4389,1654
8.4417,1625
8.4444,1603
8.4472,1582
8.4500,1572
8.4528,1600
8.4556,1642
8.4583,1660
8.4611,1689
8.4639,1712
8.4667,1723
8.4694,1719
8.4722,1720
8.4750,1712
8.4778,1699
8.4806,1697
8.4833,1701
8.4861,1715
8.4889,1728
8.4917,1747
8.4944,1747
8.4972,1734
8.5000,1716
8.5028,1709
8.5056,1715
8.5083,1712
8.5111,1727
8.5139,1737
8.5167,1731
8.5194,1730
8.5222,1744
8.5250,1753
8.5278,1743
8.5306,1756
8.5333,1758
8.5361,1758
8.5389,1730
8.5417,1723
8.5444,1739
8.5472,1730
8.5500,1746
8.5528,1744
8.5556,1734
8.5583,1730
8.5611,1726
8.5639,1743
8.5667,1739
8.5694,1755
8.5722,1756
8.5750,1775
8.5778,1777
8.5806,1773
8.5833,1780
8.5861,1791
8.5889,1767
8.5917,1778
8.5944,1767
8.5972,1780
8.6000,1777
8.6028,1801
8.6056,1804
8.6083,1824
8.6111,1835
8.6139,1898
8.6167,1898
8.6194,1897
8.6222,1904
8.6250,1906
8.6278,1904
8.6306,1906
8.6333,1926
8.6361,1919
8.6389,1920
8.6417,1924
8.6444,1898
8.6472,1889
8.6500,1877
8.6528,1879
8.6556,1888
8.6583,1888
8.6611,1895
8.6639,1889
8.6667,1862
8.6694,1849
8.6722,1841
8.6750,1840
8.6778,1816
8.6806,1810
8.6833,1798
8.6861,1798
8.6889,1798
8.6917,1789
8.6944,1778
8.6972,1766
8.7000,1755
8.7028,1750
8.7056,1738
8.7083,1737
8.7111,1726
8.7139,1725
8.7167,1706
8.7194,1704
8.7222,1690
8.7250,1688
8.7278,1673
8.7306,1679
8.7333,1692
8.7361,1693
8.7389,1688
8.7417,1707
8.7444,1703
8.7472,1693
8.7500,1690
8.7528,1704
8.7556,1694
8.7583,1694
8.7611,1701
8.7639,1693
8.7667,1689
8.7694,1702
8.7722,1693
8.7750,1690
8.7778,1680
8.7806,1681
8.7833,1665
8.7861,1668
8.7889,1669
8.7917,1674
8.7944,1684
8.7972,1686
8.8000,1695
8.8028,1687
8.8056,1675
8.8083,1676
8.8111,1686
8.8139,1673
8.8167,1674
8.8194,1675
8.8222,1683
8.8250,1687
8.8278,1678
8.8306,1680
8.8333,1688
8.8361,1687
8.8389,1669
8.8417,1670
8.8444,1661
8.8472,1658
8.8500,1661
8.8528,1666
8.8556,1673
8.8583,1693
8.8611,1689
8.8639,1690
8.8667,1690
8.8694,1683
8.8722,1691
8.8750,1678
8.8778,1667
8.8806,1666
8.8833,1666
8.8861,1666
8.8889,1672
8.8917,1675
8.8944,1676
8.8972,1669
8.9000,1679
8.9028,1684
8.9056,1686
8.9083,1688
8.9111,1697
8.9139,1695
8.9167,1696
8.9194,1707
8.9222,1699
8.9250,1697
8.9278,1695
8.9306,1703
8.9333,1692
8.9361,1672
8.9389,1670
8.9417,1680
8.9444,1693
8.9472,1688
8.9500,1703
8.9528,1704
8.9556,1697
8.9583,1693
8.9611,1692
8.9639,1681
8.9667,1673
8.9694,1671
8.9722,1681
8.9750,1691
8.9778,1683
8.9806,1693
8.9833,1679
8.9861,1675
8.9889,1660
8.9917,1659
8.9944,1661
8.9972,1671
9.0000,1662
9.0028,1675
9.0056,1675
9.0083,1681
9.0111,1688
9.0139,1687
9.0167,1697
9.0194,1684
9.0222,1697
9.0250,1689
9.0278,1696
9.0306,1720
9.0333,1722
9.0361,1737
9.0389,1741
9.0417,1757
9.0444,1754
9.0472,1756
9.0500,1747
9.0528,1733
9.0556,1712
9.0583,1695
9.0611,1686
9.0639,1682
9.0667,1703
9.0694,1719
9.0722,1739
9.0750,1737
9.0778,1732
9.0806,1702
9.0833,1682
9.0861,1657
9.0889,1656
9.0917,1684
9.0944,1677
9.0972,1686
9.1000,1683
9.1028,1672
9.1056,1672
9.1083,1647
9.1111,1636
9.1139,1624
9.1167,1618
9.1194,1634
9.1222,1652
9.1250,1648
9.1278,1640
9.1306,1630
9.1333,1626
9.1361,1607
9.1389,1599
9.1417,1607
9.1444,1609
9.1472,1627
9.1500,1641
9.1528,1632
9.1556,1627
9.1583,1611
9.1611,1611
9.1639,1610
9.1667,1611
9.1694,1632
9.1722,1642
9.1750,1666
9.1778,1665
9.1806,1698
9.1833,1741
9.1861,1773
9.1889,1794
9.1917,1782
9.1944,1762
9.1972,1721
9.2000,1687
9.2028,1667
9.2056,1654
9.2083,1670
9.2111,1742
9.2139,1902
9.2167,2111
9.2194,2195
9.2222,2093
9.2250,1942
9.2278,1813
9.2306,1748
9.2333,1688
9.2361,1642
9.2389,1603
9.2417,1555
9.2444,1508
9.2472,1479
9.2500,1480
9.2528,1523
9.2556,1569
9.2583,1606
9.2611,1629
9.2639,1649
9.2667,1663
9.2694,1665
9.2722,1654
9.2750,1636
9.2778,1634
9.2806,1655
9.2833,1659
9.2861,1673
9.2889,1694
9.2917,1697
9.2944,1691
9.2972,1671
9.3000,1653
9.3028,1662
9.3056,1665
9.3083,1672
9.3111,1679
9.3139,1670
9.3167,1662
9.3194,1672
9.3222,1688
9.3250,1699
9.3278,1700
9.3306,1704
9.3333,1702
9.3361,1688
9.3389,1684
9.3417,1702
9.3444,1707
9.3472,1723
9.3500,1727
9.3528,1739
9.3556,1717
9.3583,1706
9.3611,1719
9.3639,1745
9.3667,1738
9.3694,1743
9.3722,1741
9.3750,1734
9.3778,1744
9.3806,1747
9.3833,1769
9.3861,1780
9.3889,1783
9.3917,1778
9.3944,1751
9.3972,1749
9.4000,1760
9.4028,1797
9.4056,1816
9.4083,1829
9.4111,1881
9.4139,1884
9.4167,1892
9.4194,1911
9.4222,1893
9.4250,1886
9.4278,1873
9.4306,1867
9.4333,1874
9.4361,1885
9.4389,1893
9.4417,1888
9.4444,1879
9.4472,1869
9.4500,1875
9.4528,1869
9.4556,1869
9.4583,1873
9.4611,1863
9.4639,1857
9.4667,1837
9.4694,1821
9.4722,1821
9.4750,1800
9.4778,1786
9.4806,1784
9.4833,1781
9.4861,1767
9.4889,1758
9.4917,1756
9.4944,1739
9.4972,1735
9.5000,1726
9.5028,1727
9.5056,1718
9.5083,1728
9.5111,1710
9.5139,1719
9.5167,1703
9.5194,1702
9.5222,1690
9.5250,1666
9.5278,1652
9.5306,1646
9.5333,1654
9.5361,1660
9.5389,1653
9.5417,1659
9.5444,1657
9.5472,1646
9.5500,1649
9.5528,1659
9.5556,1665
9.5583,1664
9.5611,1648
9.5639,1639
9.5667,1632
9.5694,1638
9.5722,1639
9.5750,1649
9.5778,1651
9.5806,1658
9.5833,1667
9.5861,1667
9.5889,1675
9.5917,1665
9.5944,1661
9.5972,1650
9.6000,1651
9.6028,1668
9.6056,1667
9.6083,1677
9.6111,1675
9.6139,1678
9.6167,1666
9.6194,1664
9.6222,1666
9.6250,1666
9.6278,1684
9.6306,1692
9.6333,1684
9.6361,1664
9.6389,1637
9.6417,1632
9.6444,1617
9.6472,1639
9.6500,1666
9.6528,1663
9.6556,1671
9.6583,1662
9.6611,1656
9.6639,1645
9.6667,1655
9.6694,1656
9.6722,1670
9.6750,1655
9.6778,1663
9.6806,1670
9.6833,1674
9.6861,1659
9.6889,1673
9.6917,1670
9.6944,1664
9.6972,1651
9.7000,1663
9.7028,1664
9.7056,1649
9.7083,1663
9.7111,1671
9.7139,1686
9.7167,1693
9.7194,1683
9.7222,1672
9.7250,1646
9.7278,1641
9.7306,1636
9.7333,1635
9.7361,1647
9.7389,1665
9.7417,1681
9.7444,1691
9.7472,1701
9.7500,1700
9.7528,1688
9.7556,1667
9.7583,1658
9.7611,1654
9.7639,1658
9.7667,1662
9.7694,1662
9.7722,1666
9.7750,1657
9.7778,1640
9.7806,1648
9.7833,1638
9.7861,1636
9.7889,1649
9.7917,1659
9.7944,1667
9.7972,1690
9.8000,1685
9.8028,1691
9.8056,1677
9.8083,1660
9.8111,1656
9.8139,1668
9.8167,1670
9.8194,1685
9.8222,1698
9.8250,1728
9.8278,1740
9.8306,1739
9.8333,1736
9.8361,1716
9.8389,1719
9.8417,1750
9.8444,1749
9.8472,1741
9.8500,1727
9.8528,1709
9.8556,1687
9.8583,1673
9.8611,1679
9.8639,1684
9.8667,1690
9.8694,1710
9.8722,1718
9.8750,1694
9.8778,1674
9.8806,1670
9.8833,1669
9.8861,1674
9.8889,1694
9.8917,1718
9.8944,1717
9.8972,1700
9.9000,1675
9.9028,1654
9.9056,1630
9.9083,1627
9.9111,1609
9.9139,1612
9.9167,1631
9.9194,1642
9.9222,1644
9.9250,1641
9.9278,1618
9.9306,1626
9.9333,1616
9.9361,1620
9.9389,1632
9.9417,1656
9.9444,1654
9.9472,1642
9.9500,1635
9.9528,1619
9.9556,1618
9.9583,1616
9.9611,1633
9.9639,1624
9.9667,1640
9.9694,1642
9.9722,1662
9.9750,1703
9.9778,1732
9.9806,1759
9.9833,1781
9.9861,1769
9.9889,1740
9.9917,1713
9.9944,1685
9.9972,1668
10.0000,1678
10.0028,1694
10.0056,1777
10.0083,1943
10.0111,2163
10.0139,2228
10.0167,2121
10.0194,1959
10.0222,1821
10.0250,1742
10.0278,1683
10.0306,1622
10.0333,1570
10.0361,1531
10.0389,1490
10.0417,1461
10.0444,1460
10.0472,1471
10.0500,1507
10.0528,1529
10.0556,1551
10.0583,1554
10.0611,1580
10.0639,1602
10.0667,1591
10.0694,1602
10.0722,1598
10.0750,1604
10.0778,1624
10.0806,1653
10.0833,1649
10.0861,1634
10.0889,1599
10.0917,1593
10.0944,1592
10.0972,1619
10.1000,1646
10.1028,1667
10.1056,1651
10.1083,1634
10.1111,1634
10.1139,1630
10.1167,1632
10.1194,1651
10.1222,1668
10.1250,1671
10.1278,1667
10.1306,1663
10.1333,1663
10.1361,1671
10.1389,1674
10.1417,1676
10.1444,1661
10.1472,1656
10.1500,1649
10.1528,1658
10.1556,1666
10.1583,1683
10.1611,1679
10.1639,1675
10.1667,1679
10.1694,1667
10.1722,1669
10.1750,1674
10.1778,1673
10.1806,1685
10.1833,1694
10.1861,1697
10.1889,1705
10.1917,1717
10.1944,1725
10.1972,1722
10.2000,1728
10.2028,1746
10.2056,1808
10.2083,1826
10.2111,1823
10.2139,1823
10.2167,1836
10.2194,1843
10.2222,1853
10.2250,1841
10.2278,1827
10.2306,1816
10.2333,1815
10.2361,1830
10.2389,1834
10.2417,1842
10.2444,1812
10.2472,1797
10.2500,1782
10.2528,1785
10.2556,1783
10.2583,1807
10.2611,1819
10.2639,1809
10.2667,1789
10.2694,1779
10.2722,1760
10.2750,1756
10.2778,1757
10.2806,1756
10.2833,1722
10.2861,1705
10.2889,1695
10.2917,1698
10.2944,1688
10.2972,1702
10.3000,1705
10.3028,1694
10.3056,1677
10.3083,1652
10.3111,1660
10.3139,1662
10.3167,1672
10.3194,1681
10.3222,1677
10.3250,1667
10.3278,1646
10.3306,1650
10.3333,1660
10.3361,1675
10.3389,1689
10.3417,1684
10.3444,1670
10.3472,1664
10.3500,1662
10.3528,1666
10.3556,1668
10.3583,1670
10.3611,1678
10.3639,1671
10.3667,1655
10.3694,1661
10.3722,1671
10.3750,1677
10.3778,1701
10.3806,1712
10.3833,1707
10.3861,1698
10.3889,1698
10.3917,1693
10.3944,1687
10.3972,1695
10.4000,1688
10.4028,1699
10.4056,1699
10.4083,1706
10.4111,1699
10.4139,1694
10.4167,1688
10.4194,1710
10.4222,1713
10.4250,1704
10.4278,1701
10.4306,1712
10.4333,1716
10.4361,1715
10.4389,1729
10.4417,1734
10.4444,1730
10.4472,1711
10.4500,1720
10.4528,1726
10.4556,1743
10.4583,1750
10.4611,1752
10.4639,1727
10.4667,1731
10.4694,1719
10.4722,1722
10.4750,1736
10.4778,1744
10.4806,1751
10.4833,1758
10.4861,1756
10.4889,1756
10.4917,1751
10.4944,1754
10.4972,1756
10.5000,1758
10.5028,1748
10.5056,1742
10.5083,1735
10.5111,1749
10.5139,1751
10.5167,1758
10.5194,1765
10.5222,1773
10.5250,1774
10.5278,1773
10.5306,1766
10.5333,1758
10.5361,1752
10.5389,1765
10.5417,1782
10.5444,1784
10.5472,1793
10.5500,1787
10.5528,1782
10.5556,1756
10.5583,1766
10.5611,1764
10.5639,1757
10.5667,1755
10.5694,1762
10.5722,1769
10.5750,1783
10.5778,1784
10.5806,1791
10.5833,1784
10.5861,1773
10.5889,1764
10.5917,1778
10.5944,1768
10.5972,1786
10.6000,1791
10.6028,1785
10.6056,1783
10.6083,1785
10.6111,1786
10.6139,1786
10.6167,1788
10.6194,1809
10.6222,1819
10.6250,1825
10.6278,1840
10.6306,1862
10.6333,1890
10.6361,1895
10.6389,1907
10.6417,1907
10.6444,1919
10.6472,1899
10.6500,1884
10.6528,1852
10.6556,1839
10.6583,1820
10.6611,1826
10.6639,1831
10.6667,1829
10.6694,1856
10.6722,1843
10.6750,1843
10.6778,1829
10.6806,1827
10.6833,1801
10.6861,1787
10.6889,1801
10.6917,1829
10.6944,1842
10.6972,1847
10.7000,1854
10.7028,1844
10.7056,1832
10.7083,1822
10.7111,1818
10.7139,1801
10.7167,1774
10.7194,1776
10.7222,1778
10.7250,1774
10.7278,1777
10.7306,1785
10.7333,1773
10.7361,1782
10.7389,1790
10.7417,1789
10.7444,1784
10.7472,1782
10.7500,1794
10.7528,1796
10.7556,1782
10.7583,1785
10.7611,1801
10.7639,1806
10.7667,1798
10.7694,1803
10.7722,1822
10.7750,1842
10.7778,1875
10.7806,1939
10.7833,1986
10.7861,2012
10.7889,2025
10.7917,2013
10.7944,1994
10.7972,1949
10.8000,1934
10.8028,1926
10.8056,1948
10.8083,2038
10.8111,2187
10.8139,2357
10.8167,2355
10.8194,2189
10.8222,1997
10.8250,1867
10.8278,1812
10.8306,1801
10.8333,1766
10.8361,1752
10.8389,1728
10.8417,1705
10.8444,1700
10.8472,1709
10.8500,1725
10.8528,1752
10.8556,1768
10.8583,1776
10.8611,1797
10.8639,1804
10.8667,1797
10.8694,1788
10.8722,1788
10.8750,1795
10.8778,1785
10.8806,1801
10.8833,1813
10.8861,1810
10.8889,1795
10.8917,1783
10.8944,1775
10.8972,1786
10.9000,1789
10.9028,1804
10.9056,1796
10.9083,1813
10.9111,1798
10.9139,1799
10.9167,1787
10.9194,1799
10.9222,1808
10.9250,1800
10.9278,1789
10.9306,1780
10.9333,1768
10.9361,1768
10.9389,1791
10.9417,1812
10.9444,1811
10.9472,1811
10.9500,1802
10.9528,1804
10.9556,1807
10.9583,1821
10.9611,1824
10.9639,1814
10.9667,1806
10.9694,1815
10.9722,1811
10.9750,1813
10.9778,1821
10.9806,1831
10.9833,1849
10.9861,1842
10.9889,1848
10.9917,1855
10.9944,1869
10.9972,1883
11.0000,1899
11.0028,1899
11.0056,1901
11.0083,1893
11.0111,1890
11.0139,1882
11.0167,1897
11.0194,1975
11.0222,1974
11.0250,1962
11.0278,1956
11.0306,1958
11.0333,1951
11.0361,1954
11.0389,1950
11.0417,1946
11.0444,1941
11.0472,1923
11.0500,1926
11.0528,1921
11.0556,1919
11.0583,1915
11.0611,1905
11.0639,1894
11.0667,1889
11.0694,1870
11.0722,1872
11.0750,1865
11.0778,1879
11.0806,1862
11.0833,1848
11.0861,1825
11.0889,1823
11.0917,1815
11.0944,1802
11.0972,1796
11.1000,1797
11.1028,1783
11.1056,1771
11.1083,1762
11.1111,1769
11.1139,1756
11.1167,1752
11.1194,1744
11.1222,1748
11.1250,1732
11.1278,1725
11.1306,1730
11.1333,1734
11.1361,1722
11.1389,1740
11.1417,1728
11.1444,1728
11.1472,1731
11.1500,1736
11.1528,1740
11.1556,1732
11.1583,1747
11.1611,1748
11.1639,1747
11.1667,1752
11.1694,1749
11.1722,1752
11.1750,1733
11.1778,1738
11.1806,1732
11.1833,1730
11.1861,1726
11.1889,1740
11.1917,1733
11.1944,1738
11.1972,1738
11.2000,1748
11.2028,1743
11.2056,1740
11.2083,1745
11.2111,1742
11.2139,1736
11.2167,1734
11.2194,1746
11.2222,1736
11.2250,1739
11.2278,1747
11.2306,1766
11.2333,1767
11.2361,1777
11.2389,1772
11.2417,1752
11.2444,1729
11.2472,1716
11.2500,1717
11.2528,1694
11.2556,1705
11.2583,1710
11.2611,1719
11.2639,1723
11.2667,1722
11.2694,1731
11.2722,1732
11.2750,1730
11.2778,1732
11.2806,1728
11.2833,1720
11.2861,1721
11.2889,1728
11.2917,1724
11.2944,1726
11.2972,1722
11.3000,1731
11.3028,1714
11.3056,1712
11.3083,1713
11.3111,1723
11.3139,1712
11.3167,1716
11.3194,1719
11.3222,1732
11.3250,1735
11.3278,1728
11.3306,1724
11.3333,1708
11.3361,1702
11.3389,1714
11.3417,1710
11.3444,1726
11.3472,1717
11.3500,1709
11.3528,1704
11.3556,1698
11.3583,1705
11.3611,1712
11.3639,1707
11.3667,1721
11.3694,1714
11.3722,1714
11.3750,1719
11.3778,1720
11.3806,1715
11.3833,1710
11.3861,1714
11.3889,1713
11.3917,1713
11.3944,1707
11.3972,1713
11.4000,1712
11.4028,1713
11.4056,1723
11.4083,1728
11.4111,1731
11.4139,1731
11.4167,1722
11.4194,1739
11.4222,1757
11.4250,1762
11.4278,1782
11.4306,1807
11.4333,1820
11.4361,1836
11.4389,1849
11.4417,1852
11.4444,1831
11.4472,1820
11.4500,1782
11.4528,1770
11.4556,1746
11.4583,1744
11.4611,1744
11.4639,1752
11.4667,1765
11.4694,1760
11.4722,1754
11.4750,1737
11.4778,1730
11.4806,1745
11.4833,1757
11.4861,1777
11.4889,1786
11.4917,1794
11.4944,1775
11.4972,1772
11.5000,1741
11.5028,1731
11.5056,1702
11.5083,1670
11.5111,1664
11.5139,1673
11.5167,1683
11.5194,1696
11.5222,1695
11.5250,1707
11.5278,1713
11.5306,1704
11.5333,1706
11.5361,1692
11.5389,1690
11.5417,1680
11.5444,1679
11.5472,1693
11.5500,1692
11.5528,1709
11.5556,1710
11.5583,1717
11.5611,1722
11.5639,1725
11.5667,1729
11.5694,1740
11.5722,1782
11.5750,1847
11.5778,1892
11.5806,1915
11.5833,1922
11.5861,1902
11.5889,1868
11.5917,1853
11.5944,1821
11.5972,1823
11.6000,1858
11.6028,1952
11.6056,2105
11.6083,2319
11.6111,2378
11.6139,2235
11.6167,2027
11.6194,1852
11.6222,1750
11.6250,1676
11.6278,1615
11.6306,1573
11.6333,1539
11.6361,1540
11.6389,1578
11.6417,1629
11.6444,1664
11.6472,1699
11.6500,1712
11.6528,1713
11.6556,1724
11.6583,1742
11.6611,1728
11.6639,1711
11.6667,1699
11.6694,1702
11.6722,1689
11.6750,1700
11.6778,1712
11.6806,1728
11.6833,1708
11.6861,1718
11.6889,1711
11.6917,1714
11.6944,1719
11.6972,1736
11.7000,1736
11.7028,1733
11.7056,1724
11.7083,1726
11.7111,1719
11.7139,1718
11.7167,1735
11.7194,1747
11.7222,1740
11.7250,1731
11.7278,1722
11.7306,1722
11.7333,1725
11.7361,1733
11.7389,1748
11.7417,1756
11.7444,1753
11.7472,1736
11.7500,1733
11.7528,1736
11.7556,1753
11.7583,1766
11.7611,1773
11.7639,1762
11.7667,1762
11.7694,1770
11.7722,1775
11.7750,1783
11.7778,1798
11.7806,1814
11.7833,1809
11.7861,1808
11.7889,1813
11.7917,1812
11.7944,1826
11.7972,1828
11.8000,1847
11.8028,1894
11.8056,1904
11.8083,1909
11.8111,1895
11.8139,1912
11.8167,1920
11.8194,1929
11.8222,1915
11.8250,1898
11.8278,1879
11.8306,1878
11.8333,1892
11.8361,1900
11.8389,1889
11.8417,1877
11.8444,1844
11.8472,1836
11.8500,1835
11.8528,1825
11.8556,1835
11.8583,1835
11.8611,1827
11.8639,1815
11.8667,1807
11.8694,1802
11.8722,1797
11.8750,1781
11.8778,1777
11.8806,1755
11.8833,1731
11.8861,1717
11.8889,1713
11.8917,1704
11.8944,1713
11.8972,1715
11.9000,1710
11.9028,1694
11.9056,1679
11.9083,1676
11.9111,1675
11.9139,1687
11.9167,1693
11.9194,1690
11.9222,1667
11.9250,1644
11.9278,1651
11.9306,1651
11.9333,1654
11.9361,1664
11.9389,1661
11.9417,1662
11.9444,1647
11.9472,1653
11.9500,1649
11.9528,1659
11.9556,1674
11.9583,1673
11.9611,1661
11.9639,1651
11.9667,1656
11.9694,1656
11.9722,1673
11.9750,1679
11.9778,1692
11.9806,1676
11.9833,1660
11.9861,1655
11.9889,1670
11.9917,1678
11.9944,1685
11.9972,1697
12.0000,1691
12.0028,1674
12.0056,1678
12.0083,1674
12.0111,1680
12.0139,1676
12.0167,1687
12.0194,1698
12.0222,1692
12.0250,1683
12.0278,1676
12.0306,1668
12.0333,1675
12.0361,1686
12.0389,1692
12.0417,1684
12.0444,1678
12.0472,1697
12.0500,1682
12.0528,1676
12.0556,1684
12.0583,1681
12.0611,1674
12.0639,1672
12.0667,1666
12.0694,1672
12.0722,1666
12.0750,1666
12.0778,1662
12.0806,1675
12.0833,1667
12.0861,1668
12.0889,1668
12.0917,1680
12.0944,1687
12.0972,1689
12.1000,1686
12.1028,1685
12.1056,1677
12.1083,1671
12.1111,1675
12.1139,1669
12.1167,1672
12.1194,1680
12.1222,1667
12.1250,1672
12.1278,1672
12.1306,1677
12.1333,1677
12.1361,1692
12.1389,1696
12.1417,1696
12.1444,1691
12.1472,1702
12.1500,1698
12.1528,1702
12.1556,1701
12.1583,1695
12.1611,1693
12.1639,1689
12.1667,1700
12.1694,1704
12.1722,1694
12.1750,1714
12.1778,1722
12.1806,1721
12.1833,1717
12.1861,1708
12.1889,1704
12.1917,1702
12.1944,1711
12.1972,1707
12.2000,1707
12.2028,1714
12.2056,1706
12.2083,1701
12.2111,1703
12.2139,1701
12.2167,1711
12.2194,1722
12.2222,1724
12.2250,1739
12.2278,1765
12.2306,1788
12.2333,1797
12.2361,1821
12.2389,1811
12.2417,1804
12.2444,1782
12.2472,1748
12.2500,1745
12.2528,1734
12.2556,1731
12.2583,1746
12.2611,1732
12.2639,1733
12.2667,1724
12.2694,1742
12.2722,1737
12.2750,1729
12.2778,1723
12.2806,1733
12.2833,1732
12.2861,1742
12.2889,1764
12.2917,1756
12.2944,1747
12.2972,1735
12.3000,1711
12.3028,1701
12.3056,1684
12.3083,1669
12.3111,1666
12.3139,1682
12.3167,1672
12.3194,1690
12.3222,1670
12.3250,1679
12.3278,1677
12.3306,1670
12.3333,1664
12.3361,1668
12.3389,1655
12.3417,1662
12.3444,1664
12.3472,1670
12.3500,1669
12.3528,1671
12.3556,1678
12.3583,1683
12.3611,1677
12.3639,1688
12.3667,1709
12.3694,1713
12.3722,1736
12.3750,1789
12.3778,1836
12.3806,1875
12.3833,1872
12.3861,1865
12.3889,1836
12.3917,1802
12.3944,1787
12.3972,1780
12.4000,1794
12.4028,1843
12.4056,1971
12.4083,2176
12.4111,2296
12.4139,2229
12.4167,2051
12.4194,1894
12.4222,1793
12.4250,1713
12.4278,1672
12.4306,1633
12.4333,1593
12.4361,1573
12.4389,1595
12.4417,1615
12.4444,1664
12.4472,1688
12.4500,1715
12.4528,1722
12.4556,1730
12.4583,1722
12.4611,1728
12.4639,1716
12.4667,1707
12.4694,1708
12.4722,1695
12.4750,1714
12.4778,1739
12.4806,1741
12.4833,1743
12.4861,1732
12.4889,1717
12.4917,1715
12.4944,1719
12.4972,1724
12.5000,1740
12.5028,1749
12.5056,1751
12.5083,1755
12.5111,1746
12.5139,1743
12.5167,1752
12.5194,1752
12.5222,1741
12.5250,1737
12.5278,1725
12.5306,1731
12.5333,1729
12.5361,1744
12.5389,1763
12.5417,1767
12.5444,1762
12.5472,1759
12.5500,1759
12.5528,1762
12.5556,1774
12.5583,1790
12.5611,1791
12.5639,1779
12.5667,1785
12.5694,1776
12.5722,1776
12.5750,1786
12.5778,1801
12.5806,1820
12.5833,1835
12.5861,1827
12.5889,1818
12.5917,1821
12.5944,1828
12.5972,1845
12.6000,1863
12.6028,1870
12.6056,1872
12.6083,1873
12.6111,1874
12.6139,1865
12.6167,1952
12.6194,1932
12.6222,1926
12.6250,1917
12.6278,1925
12.6306,1932
12.6333,1923
12.6361,1924
12.6389,1913
12.6417,1894
12.6444,1877
12.6472,1879
12.6500,1871
12.6528,1882
12.6556,1885
12.6583,1874
12.6611,1867
12.6639,1859
12.6667,1862
12.6694,1843
12.6722,1836
12.6750,1822
12.6778,1795
12.6806,1774
12.6833,1755
12.6861,1757
12.6889,1744
12.6917,1755
12.6944,1739
12.6972,1752
12.7000,1744
12.7028,1723
12.7056,1701
12.7083,1691
12.7111,1698
12.7139,1696
12.7167,1708
12.7194,1700
12.7222,1695
12.7250,1696
12.7278,1694
12.7306,1710
12.7333,1701
12.7361,1704
12.7389,1699
12.7417,1694
12.7444,1681
12.7472,1681
12.7500,1688
12.7528,1692
12.7556,1701
12.7583,1707
12.7611,1694
12.7639,1692
12.7667,1685
12.7694,1678
12.7722,1693
12.7750,1694
12.7778,1703
12.7806,1694
12.7833,1700
12.7861,1700
12.7889,1707
12.7917,1711
12.7944,1720
12.7972,1727
12.8000,1717
12.8028,1713
12.8056,1707
12.8083,1701
12.8111,1714
12.8139,1730
12.8167,1732
12.8194,1742
12.8222,1727
12.8250,1723
12.8278,1734
12.8306,1721
12.8333,1715
12.8361,1713
12.8389,1708
12.8417,1711
12.8444,1693
12.8472,1713
12.8500,1703
12.8528,1699
12.8556,1705
12.8583,1704
12.8611,1696
12.8639,1703
12.8667,1713
12.8694,1704
12.8722,1712
12.8750,1712
12.8778,1723
12.8806,1732
12.8833,1722
12.8861,1725
12.8889,1717
12.8917,1700
12.8944,1709
12.8972,1711
12.9000,1713
12.9028,1716
12.9056,1722
12.9083,1721
12.9111,1710
12.9139,1707
12.9167,1708
12.9194,1711
12.9222,1678
12.9250,1684
12.9278,1692
12.9306,1684
12.9333,1697
12.9361,1692
12.9389,1696
12.9417,1689
12.9444,1686
12.9472,1692
12.9500,1689
12.9528,1694
12.9556,1691
12.9583,1688
12.9611,1686
12.9639,1681
12.9667,1691
12.9694,1690
12.9722,1710
12.9750,1720
12.9778,1714
12.9806,1715
12.9833,1704
12.9861,1695
12.9889,1700
12.9917,1711
12.9944,1712
12.9972,1721
13.0000,1717
13.0028,1722
13.0056,1721
13.0083,1725
13.0111,1716
13.0139,1711
13.0167,1716
13.0194,1715
13.0222,1711
13.0250,1707
13.0278,1715
13.0306,1746
13.0333,1752
13.0361,1776
13.0389,1802
13.0417,1802
13.0444,1802
13.0472,1809
13.0500,1808
13.0528,1783
13.0556,1780
13.0583,1767
13.0611,1747
13.0639,1740
13.0667,1747
13.0694,1759
13.0722,1755
13.0750,1756
13.0778,1755
13.0806,1749
13.0833,1733
13.0861,1724
13.0889,1733
13.0917,1740
13.0944,1747
13.0972,1763
13.1000,1764
13.1028,1759
13.1056,1750
13.1083,1745
13.1111,1730
13.1139,1698
13.1167,1680
13.1194,1686
13.1222,1671
13.1250,1665
13.1278,1670
13.1306,1667
13.1333,1659
13.1361,1658
13.1389,1665
13.1417,1662
13.1444,1665
13.1472,1662
13.1500,1670
13.1528,1660
13.1556,1661
13.1583,1666
13.1611,1669
13.1639,1672
13.1667,1670
13.1694,1678
13.1722,1673
13.1750,1685
13.1778,1681
13.1806,1679
13.1833,1717
13.1861,1774
13.1889,1819
13.1917,1842
13.1944,1841
13.1972,1822
13.2000,1781
13.2028,1742
13.2056,1719
13.2083,1697
13.2111,1692
13.2139,1761
13.2167,1895
13.2194,2107
13.2222,2208
13.2250,2133
13.2278,1977
13.2306,1835
13.2333,1747
13.2361,1707
13.2389,1653
13.2417,1597
13.2444,1565
13.2472,1514
13.2500,1493
13.2528,1508
13.2556,1549
13.2583,1596
13.2611,1631
13.2639,1642
13.2667,1659
13.2694,1665
13.2722,1671
13.2750,1659
13.2778,1648
13.2806,1638
13.2833,1633
13.2861,1648
13.2889,1669
13.2917,1673
13.2944,1667
13.2972,1676
13.3000,1676
13.3028,1671
13.3056,1681
13.3083,1686
13.3111,1687
13.3139,1682
13.3167,1682
13.3194,1669
13.3222,1674
13.3250,1679
13.3278,1698
13.3306,1701
13.3333,1685
13.3361,1670
13.3389,1663
13.3417,1654
13.3444,1661
13.3472,1687
13.3500,1699
13.3528,1700
13.3556,1690
13.3583,1689
13.3611,1676
13.3639,1672
13.3667,1686
13.3694,1704
13.3722,1697
13.3750,1704
13.3778,1714
13.3806,1695
13.3833,1702
13.3861,1708
13.3889,1720
13.3917,1725
13.3944,1723
13.3972,1740
13.4000,1726
13.4028,1744
13.4056,1748
13.4083,1764
13.4111,1764
13.4139,1860
13.4167,1822
13.4194,1811
13.4222,1804
13.4250,1823
13.4278,1844
13.4306,1861
13.4333,1849
13.4361,1852
13.4389,1822
13.4417,1810
13.4444,1820
13.4472,1826
13.4500,1830
13.4528,1830
13.4556,1810
13.4583,1805
13.4611,1790
13.4639,1775
13.4667,1793
13.4694,1785
13.4722,1787
13.4750,1777
13.4778,1775
13.4806,1737
13.4833,1722
13.4861,1717
13.4889,1709
13.4917,1699
13.4944,1699
13.4972,1691
13.5000,1671
13.5028,1664
13.5056,1662
13.5083,1657
13.5111,1651
13.5139,1639
13.5167,1619
13.5194,1594
13.5222,1586
13.5250,1595
13.5278,1615
13.5306,1611
13.5333,1602
13.5361,1599
13.5389,1603
13.5417,1594
13.5444,1603
13.5472,1592
13.5500,1596
13.5528,1587
13.5556,1595
13.5583,1591
13.5611,1585
13.5639,1591
13.5667,1581
13.5694,1598
13.5722,1618
13.5750,1621
13.5778,1611
13.5806,1588
13.5833,1579
13.5861,1582
13.5889,1586
13.5917,1607
13.5944,1622
13.5972,1621
13.6000,1622
13.6028,1598
13.6056,1594
13.6083,1601
13.6111,1599
13.6139,1602
13.6167,1611
13.6194,1610
13.6222,1612
13.6250,1627
13.6278,1636
13.6306,1648
13.6333,1641
13.6361,1634
13.6389,1610
13.6417,1601
13.6444,1593
13.6472,1596
13.6500,1588
13.6528,1595
13.6556,1600
13.6583,1613
13.6611,1608
13.6639,1615
13.6667,1611
13.6694,1624
13.6722,1630
13.6750,1624
13.6778,1635
13.6806,1634
13.6833,1627
13.6861,1636
13.6889,1650
13.6917,1653
13.6944,1649
13.6972,1637
13.7000,1616
13.7028,1608
13.7056,1610
13.7083,1605
13.7111,1621
13.7139,1627
13.7167,1634
13.7194,1642
13.7222,1643
13.7250,1650
13.7278,1662
13.7306,1658
13.7333,1655
13.7361,1663
13.7389,1641
13.7417,1638
13.7444,1649
13.7472,1657
13.7500,1664
13.7528,1663
13.7556,1655
13.7583,1660
13.7611,1657
13.7639,1652
13.7667,1665
13.7694,1662
13.7722,1648
13.7750,1655
13.7778,1655
13.7806,1658
13.7833,1651
13.7861,1664
13.7889,1666
13.7917,1676
13.7944,1672
13.7972,1682
13.8000,1671
13.8028,1667
13.8056,1668
13.8083,1673
13.8111,1692
13.8139,1703
13.8167,1720
13.8194,1730
13.8222,1724
13.8250,1742
13.8278,1735
13.8306,1740
13.8333,1739
13.8361,1734
13.8389,1717
13.8417,1678
13.8444,1673
13.8472,1679
13.8500,1692
13.8528,1700
13.8556,1712
13.8583,1719
13.8611,1715
13.8639,1708
13.8667,1694
13.8694,1676
13.8722,1681
13.8750,1689
13.8778,1705
13.8806,1702
13.8833,1704
13.8861,1696
13.8889,1672
13.8917,1666
13.8944,1658
13.8972,1649
13.9000,1642
13.9028,1635
13.9056,1649
13.9083,1652
13.9111,1637
13.9139,1630
13.9167,1644
13.9194,1643
13.9222,1647
13.9250,1652
13.9278,1651
13.9306,1643
13.9333,1635
13.9361,1645
13.9389,1629
13.9417,1628
13.9444,1639
13.9472,1646
13.9500,1658
13.9528,1651
13.9556,1648
13.9583,1652
13.9611,1646
13.9639,1694
13.9667,1749
13.9694,1793
13.9722,1817
13.9750,1814
13.9778,1788
13.9806,1747
13.9833,1719
13.9861,1711
13.9889,1701
13.9917,1711
13.9944,1775
13.9972,1922
14.0000,2124
14.0028,2218
14.0056,2148
14.0083,1997
14.0111,1867
14.0139,1779
14.0167,1723
14.0194,1663
14.0222,1616
14.0250,1579
14.0278,1518
14.0306,1488
14.0333,1484
14.0361,1512
14.0389,1568
14.0417,1614
14.0444,1645
14.0472,1672
14.0500,1687
14.0528,1689
14.0556,1683
14.0583,1667
14.0611,1643
14.0639,1656
14.0667,1672
14.0694,1698
14.0722,1711
14.0750,1732
14.0778,1717
14.0806,1716
14.0833,1703
14.0861,1705
14.0889,1713
14.0917,1711
14.0944,1703
14.0972,1709
14.1000,1712
14.1028,1704
14.1056,1719
14.1083,1729
14.1111,1746
14.1139,1756
14.1167,1759
14.1194,1739
14.1222,1734
14.1250,1748
14.1278,1757
14.1306,1768
14.1333,1772
14.1361,1775
14.1389,1774
14.1417,1768
14.1444,1780
14.1472,1786
14.1500,1800
14.1528,1809
14.1556,1808
14.1583,1807
14.1611,1785
14.1639,1803
14.1667,1799
14.1694,1815
14.1722,1824
14.1750,1818
14.1778,1829
14.1806,1820
14.1833,1833
14.1861,1850
14.1889,1869
14.1917,1881
14.1944,1989
14.1972,1960
14.2000,1939
14.2028,1944
14.2056,1959
14.2083,1972
14.2111,1979
14.2139,1965
14.2167,1965
14.2194,1945
14.2222,1941
14.2250,1939
14.2278,1950
14.2306,1964
14.2333,1957
14.2361,1958
14.2389,1943
14.2417,1924
14.2444,1914
14.2472,1921
14.2500,1917
14.2528,1923
14.2556,1922
14.2583,1900
14.2611,1877
14.2639,1861
14.2667,1850
14.2694,1855
14.2722,1845
14.2750,1831
14.2778,1805
14.2806,1794
14.2833,1779
14.2861,1782
14.2889,1791
14.2917,1793
14.2944,1794
14.2972,1784
14.3000,1764
14.3028,1753
14.3056,1765
14.3083,1767
14.3111,1766
14.3139,1757
14.3167,1747
14.3194,1729
14.3222,1721
14.3250,1739
14.3278,1745
14.3306,1757
14.3333,1764
14.3361,1767
14.3389,1748
14.3417,1745
14.3444,1735
14.3472,1736
14.3500,1741
14.3528,1751
14.3556,1758
14.3583,1750
14.3611,1732
14.3639,1741
14.3667,1752
14.3694,1769
14.3722,1769
14.3750,1763
14.3778,1763
14.3806,1746
14.3833,1730
14.3861,1736
14.3889,1744
14.3917,1737
14.3944,1754
14.3972,1750
14.4000,1745
14.4028,1748
14.4056,1761
14.4083,1765
14.4111,1774
14.4139,1772
14.4167,1775
14.4194,1774
14.4222,1755
14.4250,1767
14.4278,1762
14.4306,1756
14.4333,1765
14.4361,1754
14.4389,1746
14.4417,1750
14.4444,1751
14.4472,1754
14.4500,1750
14.4528,1764
14.4556,1755
14.4583,1764
14.4611,1755
14.4639,1773
14.4667,1773
14.4694,1766
14.4722,1758
14.4750,1756
14.4778,1747
14.4806,1733
14.4833,1747
14.4861,1749
14.4889,1759
14.4917,1762
14.4944,1758
14.4972,1769
14.5000,1753
14.5028,1756
14.5056,1757
14.5083,1761
14.5111,1772
14.5139,1777
14.5167,1766
14.5194,1749
14.5222,1735
14.5250,1739
14.5278,1751
14.5306,1759
14.5333,1769
14.5361,1754
14.5389,1754
14.5417,1752
14.5444,1764
14.5472,1775
14.5500,1786
14.5528,1785
14.5556,1781
14.5583,1755
14.5611,1747
14.5639,1750
14.5667,1746
14.5694,1755
14.5722,1760
14.5750,1758
14.5778,1764
14.5806,1752
14.5833,1750
14.5861,1762
14.5889,1758
14.5917,1769
14.5944,1769
14.5972,1781
14.6000,1762
14.6028,1777
14.6056,1770
14.6083,1770
14.6111,1782
14.6139,1799
14.6167,1817
14.6194,1831
14.6222,1846
14.6250,1868
14.6278,1887
14.6306,1888
14.6333,1888
14.6361,1865
14.6389,1849
14.6417,1814
14.6444,1802
14.6472,1808
14.6500,1795
14.6528,1805
14.6556,1813
14.6583,1813
14.6611,1813
14.6639,1815
14.6667,1811
14.6694,1795
14.6722,1789
14.6750,1793
14.6778,1807
14.6806,1815
14.6833,1820
14.6861,1815
14.6889,1809
14.6917,1801
14.6944,1791
14.6972,1773
14.7000,1745
14.7028,1739
14.7056,1744
14.7083,1738
14.7111,1733
14.7139,1725
14.7167,1716
14.7194,1707
14.7222,1712
14.7250,1711
14.7278,1695
14.7306,1713
14.7333,1709
14.7361,1719
14.7389,1717
14.7417,1710
14.7444,1723
14.7472,1722
14.7500,1713
14.7528,1708
14.7556,1713
14.7583,1716
14.7611,1723
14.7639,1741
14.7667,1775
14.7694,1840
14.7722,1890
14.7750,1938
14.7778,1939
14.7806,1921
14.7833,1886
14.7861,1862
14.7889,1853
14.7917,1843
14.7944,1877
14.7972,1948
14.8000,2091
14.8028,2284
14.8056,2368
14.8083,2263
14.8111,2067
14.8139,1891
14.8167,1780
14.8194,1729
14.8222,1696
14.8250,1664
14.8278,1631
14.8306,1610
14.8333,1627
14.8361,1661
14.8389,1686
14.8417,1715
14.8444,1737
14.8472,1743
14.8500,1746
14.8528,1747
14.8556,1748
14.8583,1734
14.8611,1722
14.8639,1716
14.8667,1722
14.8694,1740
14.8722,1738
14.8750,1753
14.8778,1751
14.8806,1740
14.8833,1743
14.8861,1747
14.8889,1752
14.8917,1752
14.8944,1761
14.8972,1765
14.9000,1751
14.9028,1744
14.9056,1739
14.9083,1730
14.9111,1753
14.9139,1775
14.9167,1770
14.9194,1769
14.9222,1757
14.9250,1754
14.9278,1753
14.9306,1749
14.9333,1761
14.9361,1773
14.9389,1764
14.9417,1763
14.9444,1763
14.9472,1762
14.9500,1780
14.9528,1782
14.9556,1794
14.9583,1788
14.9611,1787
14.9639,1789
14.9667,1794
14.9694,1807
14.9722,1810
14.9750,1813
14.9778,1821
14.9806,1813
14.9833,1819
14.9861,1832
14.9889,1857
14.9917,1870
14.9944,1877
14.9972,1910
15.0000,1922
15.0028,1912
15.0056,1916
15.0083,1920
15.0111,1939
15.0139,1939
15.0167,1929
15.0194,1909
15.0222,1890
15.0250,1900
15.0278,1891
15.0306,1906
15.0333,1928
15.0361,1905
15.0389,1880
15.0417,1874
15.0444,1868
15.0472,1863
15.0500,1865
15.0528,1872
15.0556,1860
15.0583,1832
15.0611,1813
15.0639,1801
15.0667,1796
15.0694,1787
15.0722,1799
15.0750,1780
15.0778,1769
15.0806,1742
15.0833,1729
15.0861,1721
15.0889,1718
15.0917,1728
15.0944,1712
15.0972,1702
15.1000,1693
15.1028,1677
15.1056,1676
15.1083,1679
15.1111,1682
15.1139,1679
15.1167,1682
15.1194,1671
15.1222,1667
15.1250,1665
15.1278,1671
15.1306,1687
15.1333,1690
15.1361,1680
15.1389,1673
15.1417,1669
15.1444,1678
15.1472,1687
15.1500,1692
15.1528,1693
15.1556,1689
15.1583,1678
15.1611,1660
15.1639,1678
15.1667,1682
15.1694,1680
15.1722,1693
15.1750,1694
15.1778,1693
15.1806,1676
15.1833,1686
15.1861,1677
15.1889,1693
15.1917,1702
15.1944,1707
15.1972,1699
15.2000,1692
15.2028,1707
15.2056,1708
15.2083,1712
15.2111,1721
15.2139,1714
15.2167,1705
15.2194,1696
15.2222,1681
15.2250,1686
15.2278,1687
15.2306,1695
15.2333,1702
15.2361,1710
15.2389,1696
15.2417,1706
15.2444,1711
15.2472,1736
15.2500,1723
15.2528,1732
15.2556,1716
15.2583,1702
15.2611,1680
15.2639,1676
15.2667,1688
15.2694,1697
15.2722,1697
15.2750,1697
15.2778,1697
15.2806,1691
15.2833,1713
15.2861,1705
15.2889,1707
15.2917,1696
15.2944,1703
15.2972,1683
15.3000,1682
15.3028,1680
15.3056,1685
15.3083,1682
15.3111,1687
15.3139,1695
15.3167,1683
15.3194,1680
15.3222,1689
15.3250,1692
15.3278,1692
15.3306,1697
15.3333,1715
15.3361,1705
15.3389,1700
15.3417,1696
15.3444,1705
15.3472,1697
15.3500,1679
15.3528,1697
15.3556,1700
15.3583,1688
15.3611,1698
15.3639,1690
15.3667,1697
15.3694,1700
15.3722,1701
15.3750,1708
15.3778,1710
15.3806,1701
15.3833,1710
15.3861,1719
15.3889,1706
15.3917,1712
15.3944,1716
15.3972,1710
15.4000,1715
15.4028,1725
15.4056,1748
15.4083,1755
15.4111,1774
15.4139,1800
15.4167,1793
15.4194,1815
15.4222,1802
15.4250,1804
15.4278,1769
15.4306,1765
15.4333,1762
15.4361,1769
15.4389,1767
15.4417,1775
15.4444,1783
15.4472,1785
15.4500,1774
15.4528,1786
15.4556,1786
15.4583,1765
15.4611,1762
15.4639,1766
15.4667,1784
15.4694,1786
15.4722,1796
15.4750,1786
15.4778,1766
15.4806,1750
15.4833,1742
15.4861,1718
15.4889,1707
15.4917,1695
15.4944,1691
15.4972,1685
15.5000,1669
15.5028,1675
15.5056,1678
15.5083,1675
15.5111,1684
15.5139,1687
15.5167,1678
15.5194,1682
15.5222,1680
15.5250,1692
15.5278,1680
15.5306,1681
15.5333,1692
15.5361,1696
15.5389,1687
15.5417,1695
15.5444,1698
15.5472,1698
15.5500,1700
15.5528,1705
15.5556,1721
15.5583,1732
15.5611,1769
15.5639,1835
15.5667,1885
15.5694,1912
15.5722,1923
15.5750,1883
15.5778,1841
15.5806,1798
15.5833,1786
15.5861,1788
15.5889,1815
15.5917,1917
15.5944,2103
15.5972,2279
15.6000,2282
15.6028,2139
15.6056,1965
15.6083,1830
15.6111,1757
15.6139,1717
15.6167,1673
15.6194,1645
15.6222,1594
15.6250,1590
15.6278,1601
15.6306,1643
15.6333,1673
15.6361,1696
15.6389,1697
15.6417,1714
15.6444,1718
15.6472,1718
15.6500,1716
15.6528,1713
15.6556,1709
15.6583,1704
15.6611,1716
15.6639,1720
15.6667,1732
15.6694,1720
15.6722,1711
15.6750,1707
15.6778,1696
15.6806,1695
15.6833,1697
15.6861,1715
15.6889,1723
15.6917,1716
15.6944,1723
15.6972,1716
15.7000,1707
15.7028,1719
15.7056,1728
15.7083,1727
15.7111,1722
15.7139,1734
15.7167,1727
15.7194,1720
15.7222,1733
15.7250,1736
15.7278,1746
15.7306,1728
15.7333,1728
15.7361,1721
15.7389,1698
15.7417,1718
15.7444,1725
15.7472,1735
15.7500,1726
15.7528,1731
15.7556,1740
15.7583,1733
15.7611,1744
15.7639,1767
15.7667,1784
15.7694,1781
15.7722,1793
15.7750,1789
15.7778,1780
15.7806,1776
15.7833,1787
15.7861,1792
15.7889,1922
15.7917,1904
15.7944,1909
15.7972,1887
15.8000,1894
15.8028,1908
15.8056,1921
15.8083,1928
15.8111,1931
15.8139,1923
15.8167,1887
15.8194,1873
15.8222,1875
15.8250,1900
15.8278,1907
15.8306,1916
15.8333,1912
15.8361,1910
15.8389,1875
15.8417,1874
15.8444,1857
15.8472,1850
15.8500,1854
15.8528,1841
15.8556,1835
15.8583,1833
15.8611,1819
15.8639,1809
15.8667,1811
15.8694,1783
15.8722,1769
15.8750,1748
15.8778,1730
15.8806,1727
15.8833,1738
15.8861,1747
15.8889,1753
15.8917,1756
15.8944,1734
15.8972,1716
15.9000,1716
15.9028,1724
15.9056,1725
15.9083,1716
15.9111,1712
15.9139,1701
15.9167,1683
15.9194,1674
15.9222,1690
15.9250,1698
15.9278,1702
15.9306,1700
15.9333,1708
15.9361,1692
15.9389,1688
15.9417,1690
15.9444,1708
15.9472,1701
15.9500,1717
15.9528,1720
15.9556,1710
15.9583,1705
15.9611,1707
15.9639,1701
15.9667,1705
15.9694,1710
15.9722,1727
15.9750,1722
15.9778,1730
15.9806,1738
15.9833,1715
15.9861,1717
15.9889,1708
15.9917,1715
15.9944,1724
15.9972,1715
16.0000,1719
16.0028,1720
16.0056,1720
16.0083,1714
16.0111,1721
16.0139,1723
16.0167,1713
16.0194,1708
16.0222,1706
16.0250,1703
16.0278,1689
16.0306,1699
16.0333,1694
16.0361,1700
16.0389,1706
16.0417,1715
16.0444,1729
16.0472,1734
16.0500,1718
16.0528,1708
16.0556,1684
16.0583,1681
16.0611,1684
16.0639,1682
16.0667,1693
16.0694,1687
16.0722,1691
16.0750,1680
16.0778,1661
16.0806,1660
16.0833,1662
16.0861,1677
16.0889,1687
16.0917,1686
16.0944,1682
16.0972,1685
16.1000,1678
16.1028,1702
16.1056,1707
16.1083,1700
16.1111,1691
16.1139,1677
16.1167,1663
16.1194,1650
16.1222,1654
16.1250,1658
16.1278,1677
16.1306,1687
16.1333,1693
16.1361,1691
16.1389,1691
16.1417,1691
16.1444,1690
16.1472,1690
16.1500,1693
16.1528,1688
16.1556,1682
16.1583,1663
16.1611,1671
16.1639,1669
16.1667,1679
16.1694,1671
16.1722,1666
16.1750,1673
16.1778,1661
16.1806,1647
16.1833,1668
16.1861,1685
16.1889,1702
16.1917,1721
16.1944,1740
16.1972,1736
16.2000,1741
16.2028,1762
16.2056,1761
16.2083,1759
16.2111,1759
16.2139,1752
16.2167,1742
16.2194,1709
16.2222,1707
16.2250,1726
16.2278,1716
16.2306,1717
16.2333,1729
16.2361,1723
16.2389,1703
16.2417,1687
16.2444,1674
16.2472,1666
16.2500,1665
16.2528,1681
16.2556,1683
16.2583,1700
16.2611,1699
16.2639,1686
16.2667,1677
16.2694,1665
16.2722,1673
16.2750,1672
16.2778,1639
16.2806,1640
16.2833,1647
16.2861,1647
16.2889,1634
16.2917,1627
16.2944,1615
16.2972,1622
16.3000,1608
16.3028,1618
16.3056,1620
16.3083,1610
16.3111,1613
16.3139,1613
16.3167,1621
16.3194,1617
16.3222,1628
16.3250,1631
16.3278,1629
16.3306,1635
16.3333,1640
16.3361,1640
16.3389,1636
16.3417,1687
16.3444,1742
16.3472,1797
16.3500,1821
16.3528,1816
16.3556,1796
16.3583,1750
16.3611,1708
16.3639,1686
16.3667,1665
16.3694,1679
16.3722,1736
16.3750,1838
16.3778,2043
16.3806,2181
16.3833,2129
16.3861,1963
16.3889,1832
16.3917,1750
16.3944,1703
16.3972,1649
16.4000,1605
16.4028,1571
16.4056,1543
16.4083,1506
16.4111,1503
16.4139,1523
16.4167,1544
16.4194,1582
16.4222,1600
16.4250,1615
16.4278,1629
16.4306,1639
16.4333,1632
16.4361,1618
16.4389,1628
16.4417,1622
16.4444,1645
16.4472,1648
16.4500,1649
16.4528,1648
16.4556,1652
16.4583,1652
16.4611,1663
16.4639,1674
16.4667,1673
16.4694,1670
16.4722,1676
16.4750,1655
16.4778,1643
16.4806,1634
16.4833,1641
16.4861,1653
16.4889,1666
16.4917,1679
16.4944,1693
16.4972,1696
16.5000,1686
16.5028,1678
16.5056,1674
16.5083,1678
16.5111,1682
16.5139,1678
16.5167,1673
16.5194,1669
16.5222,1661
16.5250,1680
16.5278,1678
16.5306,1690
16.5333,1698
16.5361,1705
16.5389,1706
16.5417,1716
16.5444,1721
16.5472,1725
16.5500,1741
16.5528,1731
16.5556,1717
16.5583,1717
16.5611,1728
16.5639,1740
16.5667,1755
16.5694,1774
16.5722,1848
16.5750,1831
16.5778,1828
16.5806,1821
16.5833,1827
16.5861,1831
16.5889,1830
16.5917,1830
16.5944,1808
16.5972,1798
16.6000,1795
16.6028,1812
16.6056,1819
16.6083,1831
16.6111,1821
16.6139,1802
16.6167,1766
16.6194,1763
16.6222,1765
16.6250,1786
16.6278,1798
16.6306,1783
16.6333,1772
16.6361,1728
16.6389,1707
16.6417,1702
16.6444,1691
16.6472,1693
16.6500,1704
16.6528,1690
16.6556,1669
16.6583,1651
16.6611,1635
16.6639,1632
16.6667,1640
16.6694,1654
16.6722,1634
16.6750,1617
16.6778,1594
16.6806,1583
16.6833,1581
16.6861,1600
16.6889,1579
16.6917,1589
16.6944,1576
16.6972,1572
16.7000,1570
16.7028,1591
16.7056,1600
16.7083,1595
16.7111,1606
16.7139,1593
16.7167,1581
16.7194,1579
16.7222,1565
16.7250,1579
16.7278,1586
16.7306,1614
16.7333,1623
16.7361,1609
16.7389,1599
16.7417,1583
16.7444,1580
16.7472,1594
16.7500,1592
16.7528,1610
16.7556,1600
16.7583,1596
16.7611,1595
16.7639,1599
16.7667,1618
16.7694,1622
16.7722,1605
16.7750,1606
16.7778,1599
16.7806,1612
16.7833,1609
16.7861,1598
16.7889,1586
16.7917,1581
16.7944,1575
16.7972,1574
16.8000,1597
16.8028,1604
16.8056,1625
16.8083,1634
16.8111,1631
16.8139,1599
16.8167,1593
16.8194,1588
16.8222,1591
16.8250,1592
16.8278,1612
16.8306,1619
16.8333,1600
16.8361,1606
16.8389,1608
16.8417,1618
16.8444,1631
16.8472,1633
16.8500,1635
16.8528,1623
16.8556,1614
16.8583,1593
16.8611,1605
16.8639,1610
16.8667,1616
16.8694,1623
16.8722,1631
16.8750,1616
16.8778,1606
16.8806,1605
16.8833,1618
16.8861,1613
16.8889,1624
16.8917,1627
16.8944,1614
16.8972,1611
16.9000,1613
16.9028,1612
16.9056,1616
16.9083,1626
16.9111,1630
16.9139,1639
16.9167,1626
16.9194,1620
16.9222,1629
16.9250,1610
16.9278,1621
16.9306,1624
16.9333,1630
16.9361,1632
16.9389,1632
16.9417,1623
16.9444,1634
16.9472,1628
16.9500,1635
16.9528,1633
16.9556,1636
16.9583,1637
16.9611,1651
16.9639,1657
16.9667,1669
16.9694,1694
16.9722,1709
16.9750,1708
16.9778,1719
16.9806,1723
16.9833,1714
16.9861,1724
16.9889,1706
16.9917,1690
16.9944,1661
16.9972,1650
17.0000,1662
17.0028,1675
17.0056,1695
17.0083,1705
17.0111,1716
17.0139,1700
17.0167,1693
17.0194,1671
17.0222,1655
17.0250,1661
17.0278,1667
17.0306,1693
17.0333,1714
17.0361,1692
17.0389,1669
17.0417,1648
17.0444,1629
17.0472,1624
17.0500,1616
17.0528,1623
17.0556,1613
17.0583,1625
17.0611,1635
17.0639,1642
17.0667,1633
17.0694,1635
17.0722,1629
17.0750,1608
17.0778,1626
17.0806,1621
17.0833,1623
17.0861,1631
17.0889,1612
17.0917,1625
17.0944,1619
17.0972,1623
17.1000,1630
17.1028,1626
17.1056,1632
17.1083,1635
17.1111,1653
17.1139,1668
17.1167,1680
17.1194,1738
17.1222,1793
17.1250,1811
17.1278,1811
17.1306,1796
17.1333,1761
17.1361,1721
17.1389,1708
17.1417,1706
17.1444,1726
17.1472,1791
17.1500,1928
17.1528,2121
17.1556,2225
17.1583,2141
17.1611,1985
17.1639,1839
17.1667,1764
17.1694,1719
17.1722,1670
17.1750,1615
17.1778,1582
17.1806,1533
17.1833,1485
17.1861,1473
17.1889,1498
17.1917,1536
17.1944,1593
17.1972,1639
17.2000,1653
17.2028,1671
17.2056,1679
17.2083,1677
17.2111,1672
17.2139,1664
17.2167,1660
17.2194,1675
17.2222,1681
17.2250,1694
17.2278,1686
17.2306,1687
17.2333,1685
17.2361,1665
17.2389,1685
17.2417,1702
17.2444,1711
17.2472,1726
17.2500,1716
17.2528,1704
17.2556,1700
17.2583,1712
17.2611,1710
17.2639,1721
17.2667,1734
17.2694,1731
17.2722,1722
17.2750,1730
17.2778,1743
17.2806,1736
17.2833,1763
17.2861,1767
17.2889,1759
17.2917,1754
17.2944,1739
17.2972,1750
17.3000,1747
17.3028,1761
17.3056,1766
17.3083,1775
17.3111,1778
17.3139,1794
17.3167,1786
17.3194,1782
17.3222,1792
17.3250,1790
17.3278,1784
17.3306,1772
17.3333,1777
17.3361,1781
17.3389,1795
17.3417,1822
17.3444,1836
17.3472,1992
17.3500,1968
17.3528,1953
17.3556,1946
17.3583,1944
17.3611,1949
17.3639,1963
17.3667,1957
17.3694,1954
17.3722,1950
17.3750,1927
17.3778,1929
17.3806,1943
17.3833,1959
17.3861,1964
17.3889,1961
17.3917,1952
17.3944,1941
17.3972,1937
17.4000,1935
17.4028,1935
17.4056,1910
17.4083,1895
17.4111,1885
17.4139,1869
17.4167,1847
17.4194,1851
17.4222,1857
17.4250,1857
17.4278,1854
17.4306,1841
17.4333,1833
17.4361,1806
17.4389,1813
17.4417,1815
17.4444,1803
17.4472,1796
17.4500,1789
17.4528,1772
17.4556,1760
17.4583,1760
17.4611,1774
17.4639,1779
17.4667,1773
17.4694,1775
17.4722,1764
17.4750,1747
17.4778,1751
17.4806,1759
17.4833,1768
17.4861,1777
17.4889,1780
17.4917,1776
17.4944,1766
17.4972,1759
17.5000,1766
17.5028,1769
17.5056,1767
17.5083,1774
17.5111,1772
17.5139,1759
17.5167,1762
17.5194,1779
17.5222,1786
17.5250,1777
17.5278,1795
17.5306,1784
17.5333,1776
17.5361,1762
17.5389,1781
17.5417,1790
17.5444,1796
17.5472,1787
17.5500,1788
17.5528,1778
17.5556,1768
17.5583,1760
17.5611,1780
17.5639,1773
17.5667,1767
17.5694,1783
17.5722,1769
17.5750,1765
17.5778,1762
17.5806,1771
17.5833,1776
17.5861,1777
17.5889,1787
17.5917,1776
17.5944,1777
17.5972,1761
17.6000,1764
17.6028,1768
17.6056,1775
17.6083,1778
17.6111,1785
17.6139,1778
17.6167,1765
17.6194,1771
17.6222,1782
17.6250,1770
17.6278,1768
17.6306,1778
17.6333,1767
17.6361,1771
17.6389,1772
17.6417,1779
17.6444,1794
17.6472,1806
17.6500,1804
17.6528,1801
17.6556,1790
17.6583,1781
17.6611,1774
17.6639,1786
17.6667,1781
17.6694,1774
17.6722,1769
17.6750,1767
17.6778,1767
17.6806,1766
17.6833,1772
17.6861,1776
17.6889,1796
17.6917,1797
17.6944,1789
17.6972,1795
17.7000,1786
17.7028,1789
17.7056,1778
17.7083,1780
17.7111,1781
17.7139,1780
17.7167,1781
17.7194,1785
17.7222,1783
17.7250,1787
17.7278,1790
17.7306,1789
17.7333,1786
17.7361,1779
17.7389,1790
17.7417,1805
17.7444,1795
17.7472,1793
17.7500,1781
17.7528,1775
17.7556,1779
17.7583,1797
17.7611,1818
17.7639,1831
17.7667,1845
17.7694,1860
17.7722,1865
17.7750,1874
17.7778,1869
17.7806,1864
17.7833,1852
17.7861,1840
17.7889,1841
17.7917,1832
17.7944,1832
17.7972,1831
17.8000,1817
17.8028,1810
17.8056,1811
17.8083,1811
17.8111,1814
17.8139,1812
17.8167,1810
17.8194,1813
17.8222,1829
17.8250,1836
17.8278,1819
17.8306,1819
17.8333,1786
17.8361,1772
17.8389,1759
17.8417,1745
17.8444,1721
17.8472,1715
17.8500,1730
17.8528,1714
17.8556,1696
17.8583,1712
17.8611,1696
17.8639,1712
17.8667,1705
17.8694,1704
17.8722,1709
17.8750,1701
17.8778,1716
17.8806,1729
17.8833,1716
17.8861,1708
17.8889,1700
17.8917,1703
17.8944,1688
17.8972,1700
17.9000,1701
17.9028,1723
17.9056,1711
17.9083,1711
17.9111,1728
17.9139,1766
17.9167,1818
17.9194,1878
17.9222,1910
17.9250,1923
17.9278,1910
17.9306,1883
17.9333,1845
17.9361,1833
17.9389,1833
17.9417,1864
17.9444,1956
17.9472,2097
17.9500,2307
17.9528,2373
17.9556,2239
17.9583,2035
17.9611,1868
17.9639,1776
17.9667,1736
17.9694,1710
17.9722,1677
17.9750,1638
17.9778,1621
17.9806,1628
17.9833,1651
17.9861,1676
17.9889,1703
17.9917,1708
17.9944,1707
17.9972,1709
18.0000,1717
18.0028,1723
18.0056,1709
18.0083,1687
18.0111,1667
18.0139,1669
18.0167,1682
18.0194,1709
18.0222,1716
18.0250,1704
18.0278,1705
18.0306,1699
18.0333,1698
18.0361,1716
18.0389,1730
18.0417,1735
18.0444,1725
18.0472,1709
18.0500,1712
18.0528,1713
18.0556,1703
18.0583,1734
18.0611,1740
18.0639,1739
18.0667,1712
18.0694,1722
18.0722,1713
18.0750,1721
18.0778,1729
18.0806,1750
18.0833,1740
18.0861,1732
18.0889,1720
18.0917,1727
18.0944,1736
18.0972,1753
18.1000,1759
18.1028,1764
18.1056,1767
18.1083,1757
18.1111,1760
18.1139,1756
18.1167,1769
18.1194,1779
18.1222,1793
18.1250,1794
18.1278,1800
18.1306,1791
18.1333,1801
18.1361,1798
18.1389,1825
18.1417,1837
18.1444,1913
18.1472,1888
18.1500,1892
18.1528,1870
18.1556,1864
18.1583,1869
18.1611,1864
18.1639,1868
18.1667,1859
18.1694,1871
18.1722,1864
18.1750,1853
18.1778,1862
18.1806,1867
18.1833,1866
18.1861,1856
18.1889,1849
18.1917,1834
18.1944,1831
18.1972,1825
18.2000,1815
18.2028,1808
18.2056,1802
18.2083,1795
18.2111,1779
18.2139,1765
18.2167,1760
18.2194,1759
18.2222,1746
18.2250,1738
18.2278,1731
18.2306,1719
18.2333,1709
18.2361,1699
18.2389,1705
18.2417,1702
18.2444,1702
18.2472,1696
18.2500,1671
18.2528,1661
18.2556,1660
18.2583,1659
18.2611,1669
18.2639,1675
18.2667,1660
18.2694,1672
18.2722,1672
18.2750,1671
18.2778,1685
18.2806,1685
18.2833,1693
18.2861,1676
18.2889,1668
18.2917,1667
18.2944,1652
18.2972,1659
18.3000,1670
18.3028,1670
18.3056,1679
18.3083,1679
18.3111,1686
18.3139,1671
18.3167,1681
18.3194,1687
18.3222,1695
18.3250,1685
18.3278,1687
18.3306,1681
18.3333,1663
18.3361,1655
18.3389,1658
18.3417,1658
18.3444,1665
18.3472,1666
18.3500,1677
18.3528,1681
18.3556,1669
18.3583,1674
18.3611,1670
18.3639,1667
18.3667,1669
18.3694,1667
18.3722,1673
18.3750,1673
18.3778,1667
18.3806,1672
18.3833,1672
18.3861,1675
18.3889,1679
18.3917,1678
18.3944,1662
18.3972,1666
18.4000,1684
18.4028,1701
18.4056,1696
18.4083,1712
18.4111,1700
18.4139,1686
18.4167,1666
18.4194,1673
18.4222,1676
18.4250,1668
18.4278,1672
18.4306,1679
18.4333,1674
18.4361,1663
18.4389,1677
18.4417,1685
18.4444,1696
18.4472,1693
18.4500,1689
18.4528,1681
18.4556,1685
18.4583,1686
18.4611,1686
18.4639,1679
18.4667,1689
18.4694,1682
18.4722,1672
18.4750,1677
18.4778,1679
18.4806,1678
18.4833,1682
18.4861,1684
18.4889,1684
18.4917,1685
18.4944,1677
18.4972,1670
18.5000,1671
18.5028,1686
18.5056,1664
18.5083,1666
18.5111,1670
18.5139,1671
18.5167,1672
18.5194,1674
18.5222,1684
18.5250,1684
18.5278,1681
18.5306,1671
18.5333,1661
18.5361,1666
18.5389,1689
18.5417,1704
18.5444,1718
18.5472,1719
18.5500,1730
18.5528,1712
18.5556,1721
18.5583,1740
18.5611,1752
18.5639,1754
18.5667,1741
18.5694,1734
18.5722,1715
18.5750,1711
18.5778,1700
18.5806,1718
18.5833,1711
18.5861,1725
18.5889,1736
18.5917,1742
18.5944,1739
18.5972,1743
18.6000,1742
18.6028,1745
18.6056,1742
18.6083,1760
18.6111,1741
18.6139,1729
18.6167,1726
18.6194,1717
18.6222,1700
18.6250,1695
18.6278,1669
18.6306,1659
18.6333,1645
18.6361,1647
18.6389,1631
18.6417,1638
18.6444,1644
18.6472,1638
18.6500,1629
18.6528,1630
18.6556,1626
18.6583,1626
18.6611,1632
18.6639,1620
18.6667,1618
18.6694,1633
18.6722,1639
18.6750,1623
18.6778,1628
18.6806,1639
18.6833,1631
18.6861,1624
18.6889,1645
18.6917,1656
18.6944,1655
18.6972,1670
18.7000,1682
18.7028,1704
18.7056,1729
18.7083,1766
18.7111,1810
18.7139,1826
18.7167,1826
18.7194,1802
18.7222,1767
18.7250,1739
18.7278,1732
18.7306,1731
18.7333,1772
18.7361,1893
18.7389,2091
18.7417,2224
18.7444,2171
18.7472,1981
18.7500,1802
18.7528,1692
18.7556,1642
18.7583,1604
18.7611,1581
18.7639,1547
18.7667,1505
18.7694,1511
18.7722,1540
18.7750,1572
18.7778,1623
18.7806,1645
18.7833,1660
18.7861,1675
18.7889,1676
18.7917,1687
18.7944,1668
18.7972,1663
18.8000,1663
18.8028,1679
18.8056,1682
18.8083,1687
18.8111,1701
18.8139,1681
18.8167,1675
18.8194,1661
18.8222,1665
18.8250,1672
18.8278,1684
18.8306,1707
18.8333,1701
18.8361,1702
18.8389,1706
18.8417,1702
18.8444,1705
18.8472,1722
18.8500,1732
18.8528,1738
18.8556,1720
18.8583,1715
18.8611,1709
18.8639,1711
18.8667,1719
18.8694,1746
18.8722,1753
18.8750,1739
18.8778,1725
18.8806,1726
18.8833,1723
18.8861,1732
18.8889,1762
18.8917,1769
18.8944,1770
18.8972,1757
18.9000,1762
18.9028,1743
18.9056,1754
18.9083,1748
18.9111,1771
18.9139,1780
18.9167,1779
18.9194,1777
18.9222,1781
18.9250,1794
18.9278,1812
18.9306,1840
18.9333,1881
18.9361,1882
18.9389,1883
18.9417,1867
18.9444,1876
18.9472,1886
18.9500,1885
18.9528,1867
18.9556,1861
18.9583,1855
18.9611,1857
18.9639,1852
18.9667,1876
18.9694,1864
18.9722,1848
18.9750,1832
18.9778,1827
18.9806,1819
18.9833,1813
18.9861,1818
18.9889,1817
18.9917,1810
18.9944,1779
18.9972,1764
19.0000,1760
19.0028,1756
19.0056,1743
19.0083,1757
19.0111,1738
19.0139,1714
19.0167,1706
19.0194,1705
19.0222,1694
19.0250,1680
19.0278,1671
19.0306,1657
19.0333,1648
19.0361,1641
19.0389,1647
19.0417,1643
19.0444,1658
19.0472,1654
19.0500,1653
19.0528,1641
19.0556,1630
19.0583,1610
19.0611,1617
19.0639,1622
19.0667,1617
19.0694,1627
19.0722,1630
19.0750,1628
19.0778,1629
19.0806,1632
19.0833,1630
19.0861,1639
19.0889,1646
19.0917,1637
19.0944,1632
19.0972,1635
19.1000,1632
19.1028,1648
19.1056,1660
19.1083,1669
19.1111,1654
19.1139,1641
19.1167,1645
19.1194,1656
19.1222,1646
19.1250,1649
19.1278,1663
19.1306,1671
19.1333,1677
19.1361,1669
19.1389,1657
19.1417,1668
19.1444,1657
19.1472,1661
19.1500,1663
19.1528,1656
19.1556,1654
19.1583,1656
19.1611,1657
19.1639,1656
19.1667,1668
19.1694,1673
19.1722,1664
19.1750,1666
19.1778,1654
19.1806,1665
19.1833,1655
19.1861,1671
19.1889,1664
19.1917,1674
19.1944,1672
19.1972,1664
19.2000,1659
19.2028,1657
19.2056,1655
19.2083,1666
19.2111,1665
19.2139,1661
19.2167,1672
19.2194,1672
19.2222,1672
19.2250,1667
19.2278,1673
19.2306,1659
19.2333,1655
19.2361,1652
19.2389,1656
19.2417,1647
19.2444,1650
19.2472,1667
19.2500,1678
19.2528,1669
19.2556,1663
19.2583,1663
19.2611,1670
19.2639,1666
19.2667,1674
19.2694,1674
19.2722,1673
19.2750,1656
19.2778,1662
19.2806,1668
19.2833,1657
19.2861,1673
19.2889,1677
19.2917,1679
19.2944,1675
19.2972,1671
19.3000,1664
19.3028,1656
19.3056,1649
19.3083,1667
19.3111,1656
19.3139,1666
19.3167,1667
19.3194,1668
19.3222,1667
19.3250,1669
19.3278,1677
19.3306,1688
19.3333,1698
19.3361,1718
19.3389,1743
19.3417,1743
19.3444,1751
19.3472,1765
19.3500,1769
19.3528,1765
19.3556,1764
19.3583,1756
19.3611,1744
19.3639,1737
19.3667,1750
19.3694,1756
19.3722,1755
19.3750,1763
19.3778,1755
19.3806,1752
19.3833,1758
19.3861,1758
19.3889,1752
19.3917,1754
19.3944,1752
19.3972,1756
19.4000,1755
19.4028,1753
19.4056,1742
19.4083,1735
19.4111,1714
19.4139,1706
19.4167,1688
19.4194,1666
19.4222,1665
19.4250,1654
19.4278,1669
19.4306,1660
19.4333,1657
19.4361,1651
19.4389,1655
19.4417,1650
19.4444,1639
19.4472,1644
19.4500,1635
19.4528,1622
19.4556,1616
19.4583,1624
19.4611,1624
19.4639,1618
19.4667,1629
19.4694,1637
19.4722,1634
19.4750,1648
19.4778,1664
19.4806,1654
19.4833,1656
19.4861,1650
19.4889,1652
19.4917,1653
19.4944,1662
19.4972,1710
19.5000,1761
19.5028,1811
19.5056,1833
19.5083,1822
19.5111,1799
19.5139,1758
19.5167,1741
19.5194,1730
19.5222,1727
19.5250,1759
19.5278,1872
19.5306,2062
19.5333,2227
19.5361,2232
19.5389,2098
19.5417,1928
19.5444,1824
19.5472,1759
19.5500,1722
19.5528,1668
19.5556,1631
19.5583,1583
19.5611,1564
19.5639,1556
19.5667,1594
19.5694,1633
19.5722,1662
19.5750,1678
19.5778,1698
19.5806,1701
19.5833,1690
19.5861,1679
19.5889,1672
19.5917,1671
19.5944,1663
19.5972,1680
19.6000,1700
19.6028,1709
19.6056,1704
19.6083,1695
19.6111,1690
19.6139,1690
19.6167,1688
19.6194,1714
19.6222,1726
19.6250,1727
19.6278,1723
19.6306,1710
19.6333,1716
19.6361,1719
19.6389,1732
19.6417,1742
19.6444,1740
19.6472,1741
19.6500,1730
19.6528,1712
19.6556,1725
19.6583,1742
19.6611,1741
19.6639,1743
19.6667,1746
19.6694,1741
19.6722,1737
19.6750,1749
19.6778,1777
19.6806,1767
19.6833,1778
19.6861,1787
19.6889,1775
19.6917,1774
19.6944,1760
19.6972,1766
19.7000,1782
19.7028,1784
19.7056,1782
19.7083,1799
19.7111,1808
19.7139,1796
19.7167,1816
19.7194,1819
19.7222,1835
19.7250,1959
19.7278,1938
19.7306,1920
19.7333,1899
19.7361,1897
19.7389,1910
19.7417,1923
19.7444,1936
19.7472,1934
19.7500,1921
19.7528,1910
19.7556,1915
19.7583,1926
19.7611,1948
19.7639,1945
19.7667,1946
19.7694,1929
19.7722,1903
19.7750,1884
19.7778,1896
19.7806,1905
19.7833,1902
19.7861,1901
19.7889,1882
19.7917,1876
19.7944,1857
19.7972,1864
19.8000,1864
19.8028,1867
19.8056,1859
19.8083,1839
19.8111,1809
19.8139,1779
19.8167,1765
19.8194,1756
19.8222,1755
19.8250,1768
19.8278,1772
19.8306,1773
19.8333,1765
19.8361,1757
19.8389,1754
19.8417,1778
19.8444,1762
19.8472,1762
19.8500,1743
19.8528,1728
19.8556,1735
19.8583,1729
19.8611,1735
19.8639,1737
19.8667,1732
19.8694,1725
19.8722,1714
19.8750,1711
19.8778,1712
19.8806,1718
19.8833,1715
19.8861,1732
19.8889,1739
19.8917,1720
19.8944,1736
19.8972,1746
19.9000,1743
19.9028,1739
19.9056,1738
19.9083,1739
19.9111,1725
19.9139,1724
19.9167,1724
19.9194,1717
19.9222,1722
19.9250,1718
19.9278,1731
19.9306,1729
19.9333,1730
19.9361,1735
19.9389,1748
19.9417,1748
19.9444,1742
19.9472,1745
19.9500,1731
19.9528,1722
19.9556,1719
19.9583,1726
19.9611,1740
19.9639,1746
19.9667,1735
19.9694,1741
19.9722,1740
19.9750,1723
19.9778,1727
19.9806,1730
19.9833,1738
19.9861,1739
19.9889,1731
19.9917,1715
19.9944,1699
19.9972,1705
20.0000,1713
20.0028,1707
20.0056,1712
20.0083,1718
20.0111,1717
20.0139,1712
20.0167,1724
20.0194,1733
20.0222,1732
20.0250,1727
20.0278,1726
20.0306,1707
20.0333,1702
20.0361,1705
20.0389,1701
20.0417,1695
20.0444,1714
20.0472,1728
20.0500,1717
20.0528,1705
20.0556,1708
20.0583,1704
20.0611,1712
20.0639,1704
20.0667,1706
20.0694,1701
20.0722,1705
20.0750,1714
20.0778,1716
20.0806,1701
20.0833,1699
20.0861,1701
20.0889,1697
20.0917,1696
20.0944,1701
20.0972,1721
20.1000,1710
20.1028,1709
20.1056,1702
20.1083,1701
20.1111,1694
20.1139,1699
20.1167,1711
20.1194,1722
20.1222,1740
20.1250,1746
20.1278,1761
20.1306,1767
20.1333,1766
20.1361,1772
20.1389,1783
20.1417,1774
20.1444,1759
20.1472,1746
20.1500,1713
20.1528,1707
20.1556,1710
20.1583,1720
20.1611,1726
20.1639,1731
20.1667,1730
20.1694,1731
20.1722,1700
20.1750,1701
20.1778,1694
20.1806,1710
20.1833,1717
20.1861,1721
20.1889,1731
20.1917,1719
20.1944,1704
20.1972,1697
20.2000,1678
20.2028,1672
20.2056,1677
20.2083,1660
20.2111,1652
20.2139,1663
20.2167,1663
20.2194,1664
20.2222,1643
20.2250,1639
20.2278,1637
20.2306,1634
20.2333,1631
20.2361,1637
20.2389,1650
20.2417,1652
20.2444,1664
20.2472,1668
20.2500,1673
20.2528,1663
20.2556,1675
20.2583,1666
20.2611,1673
20.2639,1676
20.2667,1688
20.2694,1682
20.2722,1699
20.2750,1746
20.2778,1792
20.2806,1823
20.2833,1839
20.2861,1815
20.2889,1783
20.2917,1741
20.2944,1720
20.2972,1725
20.3000,1715
20.3028,1774
20.3056,1894
20.3083,2087
20.3111,2229
20.3139,2170
20.3167,2011
20.3194,1860
20.3222,1763
20.3250,1725
20.3278,1691
20.3306,1642
20.3333,1611
20.3361,1565
20.3389,1519
20.3417,1501
20.3444,1527
20.3472,1571
20.3500,1597
20.3528,1619
20.3556,1637
20.3583,1639
20.3611,1659
20.3639,1657
20.3667,1654
20.3694,1649
20.3722,1640
20.3750,1657
20.3778,1675
20.3806,1671
20.3833,1667
20.3861,1661
20.3889,1652
20.3917,1652
20.3944,1671
20.3972,1678
20.4000,1692
20.4028,1698
20.4056,1703
20.4083,1702
20.4111,1679
20.4139,1693
20.4167,1694
20.4194,1708
20.4222,1711
20.4250,1692
20.4278,1690
20.4306,1696
20.4333,1693
20.4361,1712
20.4389,1725
20.4417,1733
20.4444,1742
20.4472,1741
20.4500,1736
20.4528,1721
20.4556,1716
20.4583,1727
20.4611,1729
20.4639,1736
20.4667,1733
20.4694,1728
20.4722,1721
20.4750,1739
20.4778,1747
20.4806,1762
20.4833,1757
20.4861,1753
20.4889,1748
20.4917,1743
20.4944,1748
20.4972,1781
20.5000,1782
20.5028,1905
20.5056,1879
20.5083,1880
20.5111,1860
20.5139,1850
20.5167,1856
20.5194,1861
20.5222,1865
20.5250,1850
20.5278,1824
20.5306,1813
20.5333,1812
20.5361,1828
20.5389,1840
20.5417,1853
20.5444,1860
20.5472,1848
20.5500,1827
20.5528,1808
20.5556,1822
20.5583,1819
20.5611,1819
20.5639,1807
20.5667,1787
20.5694,1762
20.5722,1742
20.5750,1730
20.5778,1732
20.5806,1735
20.5833,1743
20.5861,1731
20.5889,1710
20.5917,1693
20.5944,1686
20.5972,1694
20.6000,1685
20.6028,1674
20.6056,1685
20.6083,1660
20.6111,1627
20.6139,1623
20.6167,1626
20.6194,1615
20.6222,1631
20.6250,1629
20.6278,1625
20.6306,1616
20.6333,1622
20.6361,1639
20.6389,1643
20.6417,1638
20.6444,1636
20.6472,1621
20.6500,1597
20.6528,1605
20.6556,1607
20.6583,1605
20.6611,1620
20.6639,1626
20.6667,1632
20.6694,1621
20.6722,1621
20.6750,1613
20.6778,1624
20.6806,1627
20.6833,1635
20.6861,1634
20.6889,1632
20.6917,1624
20.6944,1632
20.6972,1645
20.7000,1637
20.7028,1639
20.7056,1638
20.7083,1636
20.7111,1615
20.7139,1617
20.7167,1630
20.7194,1637
20.7222,1647
20.7250,1652
20.7278,1651
20.7306,1637
20.7333,1621
20.7361,1631
20.7389,1628
20.7417,1639
20.7444,1648
20.7472,1650
20.7500,1641
20.7528,1642
20.7556,1664
20.7583,1662
20.7611,1661
20.7639,1670
20.7667,1674
20.7694,1653
20.7722,1638
20.7750,1629
20.7778,1627
20.7806,1628
20.7833,1630
20.7861,1632
20.7889,1646
20.7917,1640
20.7944,1646
20.7972,1643
20.8000,1648
20.8028,1646
20.8056,1658
20.8083,1648
20.8111,1633
20.8139,1628
20.8167,1636
20.8194,1633
20.8222,1640
20.8250,1649
20.8278,1635
20.8306,1639
20.8333,1636
20.8361,1644
20.8389,1649
20.8417,1652
20.8444,1657
20.8472,1654
20.8500,1652
20.8528,1638
20.8556,1654
20.8583,1658
20.8611,1662
20.8639,1659
20.8667,1666
20.8694,1649
20.8722,1645
20.8750,1662
20.8778,1660
20.8806,1663
20.8833,1680
20.8861,1688
20.8889,1681
20.8917,1672
20.8944,1678
20.8972,1693
20.9000,1727
20.9028,1735
20.9056,1746
20.9083,1774
20.9111,1790
20.9139,1794
20.9167,1804
20.9194,1785
20.9222,1766
20.9250,1745
20.9278,1720
20.9306,1716
20.9333,1726
20.9361,1742
20.9389,1754
20.9417,1769
20.9444,1774
20.9472,1766
20.9500,1740
20.9528,1729
20.9556,1730
20.9583,1741
20.9611,1745
20.9639,1755
20.9667,1750
20.9694,1745
20.9722,1724
20.9750,1718
20.9778,1712
20.9806,1701
20.9833,1687
20.9861,1679
20.9889,1675
20.9917,1664
20.9944,1674
20.9972,1677
21.0000,1681
21.0028,1670
21.0056,1668
21.0083,1667
21.0111,1661
21.0139,1654
21.0167,1662
21.0194,1678
21.0222,1681
21.0250,1696
21.0278,1703
21.0306,1700
21.0333,1698
21.0361,1702
21.0389,1702
21.0417,1719
21.0444,1720
21.0472,1735
21.0500,1741
21.0528,1772
21.0556,1824
21.0583,1869
21.0611,1879
21.0639,1876
21.0667,1859
21.0694,1820
21.0722,1796
21.0750,1785
21.0778,1793
21.0806,1830
21.0833,1930
21.0861,2110
21.0889,2261
21.0917,2217
21.0944,2059
21.0972,1904
21.1000,1804
21.1028,1762
21.1056,1718
21.1083,1692
21.1111,1662
21.1139,1619
21.1167,1587
21.1194,1564
21.1222,1592
21.1250,1644
21.1278,1678
21.1306,1702
21.1333,1722
21.1361,1735
21.1389,1741
21.1417,1735
21.1444,1722
21.1472,1722
21.1500,1714
21.1528,1723
21.1556,1741
21.1583,1760
21.1611,1750
21.1639,1748
21.1667,1744
21.1694,1732
21.1722,1735
21.1750,1744
21.1778,1757
21.1806,1767
21.1833,1758
21.1861,1761
21.1889,1762
21.1917,1752
21.1944,1777
21.1972,1778
21.2000,1780
21.2028,1775
21.2056,1779
21.2083,1780
21.2111,1765
21.2139,1778
21.2167,1783
21.2194,1796
21.2222,1794
21.2250,1793
21.2278,1774
21.2306,1774
21.2333,1797
21.2361,1805
21.2389,1830
21.2417,1822
21.2444,1821
21.2472,1827
21.2500,1821
21.2528,1815
21.2556,1840
21.2583,1839
21.2611,1835
21.2639,1849
21.2667,1844
21.2694,1849
21.2722,1848
21.2750,1866
21.2778,1868
21.2806,1976
21.2833,1952
21.2861,1958
21.2889,1938
21.2917,1925
21.2944,1929
21.2972,1946
21.3000,1954
21.3028,1963
21.3056,1955
21.3083,1934
21.3111,1917
21.3139,1925
21.3167,1918
21.3194,1924
21.3222,1915
21.3250,1913
21.3278,1888
21.3306,1875
21.3333,1876
21.3361,1876
21.3389,1878
21.3417,1885
21.3444,1881
21.3472,1851
21.3500,1835
21.3528,1823
21.3556,1821
21.3583,1805
21.3611,1816
21.3639,1808
21.3667,1781
21.3694,1762
21.3722,1751
21.3750,1747
21.3778,1755
21.3806,1743
21.3833,1733
21.3861,1727
21.3889,1704
21.3917,1699
21.3944,1702
21.3972,1709
21.4000,1697
21.4028,1705
21.4056,1702
21.4083,1691
21.4111,1682
21.4139,1697
21.4167,1703
21.4194,1699
21.4222,1705
21.4250,1708
21.4278,1703
21.4306,1692
21.4333,1711
21.4361,1720
21.4389,1712
21.4417,1716
21.4444,1717
21.4472,1701
21.4500,1705
21.4528,1697
21.4556,1707
21.4583,1709
21.4611,1711
21.4639,1711
21.4667,1716
21.4694,1703
21.4722,1686
21.4750,1706
21.4778,1711
21.4806,1722
21.4833,1719
21.4861,1720
21.4889,1701
21.4917,1701
21.4944,1703
21.4972,1704
21.5000,1715
21.5028,1714
21.5056,1720
21.5083,1714
21.5111,1701
21.5139,1720
21.5167,1725
21.5194,1708
21.5222,1709
21.5250,1702
21.5278,1698
21.5306,1692
21.5333,1699
21.5361,1691
21.5389,1693
21.5417,1705
21.5444,1705
21.5472,1699
21.5500,1683
21.5528,1694
21.5556,1704
21.5583,1698
21.5611,1702
21.5639,1702
21.5667,1694
21.5694,1683
21.5722,1687
21.5750,1689
21.5778,1692
21.5806,1709
21.5833,1716
21.5861,1714
21.5889,1704
21.5917,1696
21.5944,1702
21.5972,1703
21.6000,1701
21.6028,1690
21.6056,1705
21.6083,1691
21.6111,1697
21.6139,1705
21.6167,1712
21.6194,1711
21.6222,1719
21.6250,1724
21.6278,1721
21.6306,1709
21.6333,1709
21.6361,1711
21.6389,1707
21.6417,1695
21.6444,1698
21.6472,1696
21.6500,1684
21.6528,1683
21.6556,1690
21.6583,1684
21.6611,1697
21.6639,1704
21.6667,1708
21.6694,1700
21.6722,1716
21.6750,1736
21.6778,1739
21.6806,1758
21.6833,1771
21.6861,1764
21.6889,1776
21.6917,1780
21.6944,1792
21.6972,1800
21.7000,1793
21.7028,1795
21.7056,1784
21.7083,1775
21.7111,1770
21.7139,1780
21.7167,1787
21.7194,1785
21.7222,1769
21.7250,1772
21.7278,1777
21.7306,1773
21.7333,1780
21.7361,1797
21.7389,1792
21.7417,1799
21.7444,1793
21.7472,1770
21.7500,1752
21.7528,1738
21.7556,1735
21.7583,1719
21.7611,1705
21.7639,1681
21.7667,1676
21.7694,1665
21.7722,1656
21.7750,1660
21.7778,1657
21.7806,1653
21.7833,1659
21.7861,1658
21.7889,1642
21.7917,1627
21.7944,1639
21.7972,1627
21.8000,1628
21.8028,1629
21.8056,1623
21.8083,1629
21.8111,1632
21.8139,1644
21.8167,1653
21.8194,1658
21.8222,1661
21.8250,1671
21.8278,1671
21.8306,1666
21.8333,1661
21.8361,1667
21.8389,1705
21.8417,1760
21.8444,1820
21.8472,1853
21.8500,1849
21.8528,1847
21.8556,1833
21.8583,1809
21.8611,1793
21.8639,1805
21.8667,1816
21.8694,1897
21.8722,2036
21.8750,2218
21.8778,2271
21.8806,2143
21.8833,1957
21.8861,1819
21.8889,1733
21.8917,1700
21.8944,1684
21.8972,1644
21.9000,1605
21.9028,1573
21.9056,1591
21.9083,1609
21.9111,1647
21.9139,1671
21.9167,1680
21.9194,1679
21.9222,1695
21.9250,1692
21.9278,1678
21.9306,1664
21.9333,1663
21.9361,1652
21.9389,1670
21.9417,1666
21.9444,1675
21.9472,1688
21.9500,1679
21.9528,1673
21.9556,1667
21.9583,1679
21.9611,1702
21.9639,1720
21.9667,1726
21.9694,1713
21.9722,1707
21.9750,1700
21.9778,1705
21.9806,1708
21.9833,1720
21.9861,1736
21.9889,1728
21.9917,1720
21.9944,1721
21.9972,1718
22.0000,1727
22.0028,1741
22.0056,1752
22.0083,1757
22.0111,1748
22.0139,1748
22.0167,1746
22.0194,1741
22.0222,1762
22.0250,1781
22.0278,1777
22.0306,1763
22.0333,1764
22.0361,1762
22.0389,1766
22.0417,1770
22.0444,1790
22.0472,1798
22.0500,1788
22.0528,1781
22.0556,1796
22.0583,1804
22.0611,1815
22.0639,1838
22.0667,1835
22.0694,1889
22.0722,1901
22.0750,1912
22.0778,1904
22.0806,1914
22.0833,1908
22.0861,1905
22.0889,1884
22.0917,1876
22.0944,1874
22.0972,1875
22.1000,1891
22.1028,1901
22.1056,1893
22.1083,1872
22.1111,1858
22.1139,1848
22.1167,1845
22.1194,1848
22.1222,1849
22.1250,1846
22.1278,1819
22.1306,1799
22.1333,1786
22.1361,1773
22.1389,1777
22.1417,1765
22.1444,1768
22.1472,1750
22.1500,1745
22.1528,1728
22.1556,1708
22.1583,1700
22.1611,1702
22.1639,1707
22.1667,1695
22.1694,1676
22.1722,1680
22.1750,1679
22.1778,1679
22.1806,1688
22.1833,1689
22.1861,1686
22.1889,1660
22.1917,1666
22.1944,1662
22.1972,1681
22.2000,1687
22.2028,1700
22.2056,1687
22.2083,1683
22.2111,1679
22.2139,1682
22.2167,1669
22.2194,1679
22.2222,1692
22.2250,1700
22.2278,1688
22.2306,1676
22.2333,1684
22.2361,1692
22.2389,1687
22.2417,1703
22.2444,1709
22.2472,1697
22.2500,1681
22.2528,1679
22.2556,1685
22.2583,1693
22.2611,1702
22.2639,1694
22.2667,1706
22.2694,1687
22.2722,1693
22.2750,1693
22.2778,1694
22.2806,1709
22.2833,1720
22.2861,1711
22.2889,1687
22.2917,1698
22.2944,1678
22.2972,1673
22.3000,1701
22.3028,1699
22.3056,1718
22.3083,1699
22.3111,1693
22.3139,1700
22.3167,1685
22.3194,1685
22.3222,1695
22.3250,1709
22.3278,1711
22.3306,1702
22.3333,1704
22.3361,1693
22.3389,1691
22.3417,1696
22.3444,1707
22.3472,1698
22.3500,1697
22.3528,1707
22.3556,1706
22.3583,1707
22.3611,1718
22.3639,1712
22.3667,1710
22.3694,1700
22.3722,1696
22.3750,1704
22.3778,1709
22.3806,1707
22.3833,1718
22.3861,1711
22.3889,1703
22.3917,1698
22.3944,1694
22.3972,1697
22.4000,1703
22.4028,1707
22.4056,1707
22.4083,1705
22.4111,1701
22.4139,1696
22.4167,1693
22.4194,1702
22.4222,1707
22.4250,1709
22.4278,1707
22.4306,1693
22.4333,1701
22.4361,1698
22.4389,1704
22.4417,1697
22.4444,1708
22.4472,1708
22.4500,1717
22.4528,1724
22.4556,1752
22.4583,1762
22.4611,1774
22.4639,1792
22.4667,1805
22.4694,1809
22.4722,1813
22.4750,1791
22.4778,1786
22.4806,1763
22.4833,1775
22.4861,1783
22.4889,1781
22.4917,1779
22.4944,1779
22.4972,1767
22.5000,1773
22.5028,1774
22.5056,1774
22.5083,1768
22.5111,1766
22.5139,1786
22.5167,1794
22.5194,1785
22.5222,1779
22.5250,1765
22.5278,1734
22.5306,1721
22.5333,1714
22.5361,1693
22.5389,1691
22.5417,1687
22.5444,1679
22.5472,1675
22.5500,1653
22.5528,1654
22.5556,1644
22.5583,1646
22.5611,1640
22.5639,1650
22.5667,1635
22.5694,1629
22.5722,1633
22.5750,1631
22.5778,1650
22.5806,1655
22.5833,1662
22.5861,1647
22.5889,1634
22.5917,1631
22.5944,1628
22.5972,1629
22.6000,1623
22.6028,1644
22.6056,1660
22.6083,1642
22.6111,1671
22.6139,1686
22.6167,1726
22.6194,1766
22.6222,1807
22.6250,1807
22.6278,1807
22.6306,1775
22.6333,1761
22.6361,1742
22.6389,1722
22.6417,1724
22.6444,1755
22.6472,1844
22.6500,2005
22.6528,2193
22.6556,2219
22.6583,2087
22.6611,1911
22.6639,1785
22.6667,1721
22.6694,1660
22.6722,1634
22.6750,1596
22.6778,1550
22.6806,1528
22.6833,1557
22.6861,1568
22.6889,1602
22.6917,1624
22.6944,1633
22.6972,1641
22.7000,1647
22.7028,1652
22.7056,1639
22.7083,1632
22.7111,1639
22.7139,1645
22.7167,1653
22.7194,1669
22.7222,1679
22.7250,1677
22.7278,1660
22.7306,1646
22.7333,1641
22.7361,1632
22.7389,1643
22.7417,1656
22.7444,1670
22.7472,1678
22.7500,1673
22.7528,1676
22.7556,1674
22.7583,1677
22.7611,1679
22.7639,1696
22.7667,1700
22.7694,1686
22.7722,1682
22.7750,1692
22.7778,1698
22.7806,1698
22.7833,1699
22.7861,1701
22.7889,1694
22.7917,1683
22.7944,1686
22.7972,1688
22.8000,1702
22.8028,1719
22.8056,1719
22.8083,1724
22.8111,1723
22.8139,1731
22.8167,1728
22.8194,1736
22.8222,1731
22.8250,1745
22.8278,1747
22.8306,1745
22.8333,1761
22.8361,1769
22.8389,1777
22.8417,1784
22.8444,1857
22.8472,1863
22.8500,1860
22.8528,1860
22.8556,1859
22.8583,1867
22.8611,1879
22.8639,1868
22.8667,1857
22.8694,1843
22.8722,1831
22.8750,1835
22.8778,1852
22.8806,1852
22.8833,1868
22.8861,1863
22.8889,1838
22.8917,1828
22.8944,1819
22.8972,1804
22.9000,1794
22.9028,1791
22.9056,1781
22.9083,1767
22.9111,1755
22.9139,1751
22.9167,1748
22.9194,1751
22.9222,1737
22.9250,1722
22.9278,1684
22.9306,1672
22.9333,1671
22.9361,1671
22.9389,1669
22.9417,1678
22.9444,1668
22.9472,1658
22.9500,1639
22.9528,1641
22.9556,1649
22.9583,1648
22.9611,1663
22.9639,1653
22.9667,1649
22.9694,1632
22.9722,1623
22.9750,1617
22.9778,1636
22.9806,1638
22.9833,1643
22.9861,1646
22.9889,1639
22.9917,1632
22.9944,1652
22.9972,1665
23.0000,1664
23.0028,1673
23.0056,1683
23.0083,1663
23.0111,1665
23.0139,1667
23.0167,1662
23.0194,1668
23.0222,1669
23.0250,1677
23.0278,1671
23.0306,1670
23.0333,1669
23.0361,1675
23.0389,1685
23.0417,1700
23.0444,1689
23.0472,1683
23.0500,1676
23.0528,1681
23.0556,1679
23.0583,1679
23.0611,1676
23.0639,1679
23.0667,1661
23.0694,1655
23.0722,1666
23.0750,1677
23.0778,1678
23.0806,1694
23.0833,1697
23.0861,1686
23.0889,1672
23.0917,1672
23.0944,1665
23.0972,1660
23.1000,1670
23.1028,1680
23.1056,1672
23.1083,1678
23.1111,1671
23.1139,1676
23.1167,1686
23.1194,1698
23.1222,1706
23.1250,1703
23.1278,1685
23.1306,1674
23.1333,1673
23.1361,1664
23.1389,1684
23.1417,1684
23.1444,1689
23.1472,1680
23.1500,1677
23.1528,1677
23.1556,1682
23.1583,1702
23.1611,1709
23.1639,1701
23.1667,1690
23.1694,1695
23.1722,1695
23.1750,1700
23.1778,1700
23.1806,1702
23.1833,1704
23.1861,1691
23.1889,1696
23.1917,1699
23.1944,1696
23.1972,1702
23.2000,1697
23.2028,1697
23.2056,1688
23.2083,1680
23.2111,1703
23.2139,1705
23.2167,1705
23.2194,1703
23.2222,1705
23.2250,1703
23.2278,1721
23.2306,1727
23.2333,1739
23.2361,1738
23.2389,1755
23.2417,1759
23.2444,1763
23.2472,1763
23.2500,1757
23.2528,1753
23.2556,1756
23.2583,1755
23.2611,1767
23.2639,1791
23.2667,1792
23.2694,1787
23.2722,1778
23.2750,1780
23.2778,1767
23.2806,1770
23.2833,1770
23.2861,1774
23.2889,1765
23.2917,1792
23.2944,1802
23.2972,1809
23.3000,1802
23.3028,1804
23.3056,1766
23.3083,1739
23.3111,1726
23.3139,1714
23.3167,1695
23.3194,1672
23.3222,1672
23.3250,1675
23.3278,1668
23.3306,1666
23.3333,1670
23.3361,1654
23.3389,1649
23.3417,1650
23.3444,1645
23.3472,1636
23.3500,1619
23.3528,1619
23.3556,1632
23.3583,1630
23.3611,1635
23.3639,1654
23.3667,1647
23.3694,1641
23.3722,1648
23.3750,1652
23.3778,1652
23.3806,1667
23.3833,1664
23.3861,1657
23.3889,1663
23.3917,1681
23.3944,1695
23.3972,1744
23.4000,1794
23.4028,1841
23.4056,1848
23.4083,1828
23.4111,1814
23.4139,1779
23.4167,1741
23.4194,1735
23.4222,1738
23.4250,1786
23.4278,1894
23.4306,2079
23.4333,2250
23.4361,2234
23.4389,2084
23.4417,1934
23.4444,1823
23.4472,1759
23.4500,1712
23.4528,1676
23.4556,1636
23.4583,1586
23.4611,1574
23.4639,1591
23.4667,1615
23.4694,1640
23.4722,1671
23.4750,1683
23.4778,1695
23.4806,1706
23.4833,1702
23.4861,1687
23.4889,1683
23.4917,1692
23.4944,1688
23.4972,1692
23.5000,1707
23.5028,1722
23.5056,1715
23.5083,1700
23.5111,1696
23.5139,1699
23.5167,1696
23.5194,1707
23.5222,1737
23.5250,1722
23.5278,1721
23.5306,1711
23.5333,1708
23.5361,1689
23.5389,1707
23.5417,1711
23.5444,1734
23.5472,1736
23.5500,1726
23.5528,1718
23.5556,1730
23.5583,1722
23.5611,1737
23.5639,1752
23.5667,1741
23.5694,1728
23.5722,1729
23.5750,1740
23.5778,1746
23.5806,1756
23.5833,1774
23.5861,1758
23.5889,1739
23.5917,1737
23.5944,1730
23.5972,1751
23.6000,1758
23.6028,1777
23.6056,1781
23.6083,1782
23.6111,1781
23.6139,1792
23.6167,1798
23.6194,1816
23.6222,1828
23.6250,1890
23.6278,1890
23.6306,1891
23.6333,1886
23.6361,1880
23.6389,1892
23.6417,1911
23.6444,1894
23.6472,1881
23.6500,1886
23.6528,1894
23.6556,1902
23.6583,1906
23.6611,1909
23.6639,1907
23.6667,1882
23.6694,1861
23.6722,1856
23.6750,1846
23.6778,1853
23.6806,1862
23.6833,1851
23.6861,1829
23.6889,1801
23.6917,1808
23.6944,1791
23.6972,1794
23.7000,1798
23.7028,1793
23.7056,1778
23.7083,1757
23.7111,1750
23.7139,1747
23.7167,1744
23.7194,1737
23.7222,1731
23.7250,1703
23.7278,1691
23.7306,1684
23.7333,1684
23.7361,1688
23.7389,1682
23.7417,1682
23.7444,1680
23.7472,1694
23.7500,1685
23.7528,1691
23.7556,1682
23.7583,1685
23.7611,1670
23.7639,1666
23.7667,1646
23.7694,1657
23.7722,1654
23.7750,1678
23.7778,1675
23.7806,1698
23.7833,1682
23.7861,1683
23.7889,1682
23.7917,1680
23.7944,1687
23.7972,1693
23.8000,1696
23.8028,1701
23.8056,1689
23.8083,1688
23.8111,1685
23.8139,1682
23.8167,1687
23.8194,1691
23.8222,1694
23.8250,1685
23.8278,1698
23.8306,1713
23.8333,1728
23.8361,1731
23.8389,1715
23.8417,1706
23.8444,1686
23.8472,1683
23.8500,1674
23.8528,1689
23.8556,1692
23.8583,1712
23.8611,1713
23.8639,1717
23.8667,1715
23.8694,1707
23.8722,1702
23.8750,1697
23.8778,1690
23.8806,1703
23.8833,1698
23.8861,1686
23.8889,1685
23.8917,1690
23.8944,1679
23.8972,1696
23.9000,1705
23.9028,1716
23.9056,1710
23.9083,1701
23.9111,1712
23.9139,1708
23.9167,1707
23.9194,1719
23.9222,1726
23.9250,1706
23.9278,1696
23.9306,1704
23.9333,1696
23.9361,1702
23.9389,1706
23.9417,1714
23.9444,1705
23.9472,1704
23.9500,1701
23.9528,1700
23.9556,1698
23.9583,1710
23.9611,1710
23.9639,1704
23.9667,1702
23.9694,1708
23.9722,1706
23.9750,1698
23.9778,1712
23.9806,1719
23.9833,1712
23.9861,1724
23.9889,1714
23.9917,1719
23.9944,1713
23.9972,1716
24.0000,1712
24.0028,1717
24.0056,1718
24.0083,1703
24.0111,1721
24.0139,1743
24.0167,1756
24.0194,1764
24.0222,1795
24.0250,1788
24.0278,1788
24.0306,1810
24.0333,1799
24.0361,1780
24.0389,1778
24.0417,1780
24.0444,1786
24.0472,1788
24.0500,1796
24.0528,1817
24.0556,1804
24.0583,1796
24.0611,1807
24.0639,1795
24.0667,1799
24.0694,1799
24.0722,1793
24.0750,1797
24.0778,1819
24.0806,1829
24.0833,1827
24.0861,1812
24.0889,1795
24.0917,1780
24.0944,1764
24.0972,1760
24.1000,1741
24.1028,1718
24.1056,1695
24.1083,1686
24.1111,1665
24.1139,1667
24.1167,1669
24.1194,1675
24.1222,1682
24.1250,1686
24.1278,1664
24.1306,1670
24.1333,1665
24.1361,1669
24.1389,1681
24.1417,1684
24.1444,1671
24.1472,1658
24.1500,1663
24.1528,1654
24.1556,1655
24.1583,1662
24.1611,1663
24.1639,1678
24.1667,1677
24.1694,1686
24.1722,1679
24.1750,1679
24.1778,1692
24.1806,1738
24.1833,1793
24.1861,1828
24.1889,1859
24.1917,1847
24.1944,1823
24.1972,1777
24.2000,1742
24.2028,1731
24.2056,1731
24.2083,1738
24.2111,1822
24.2139,1987
24.2167,2176
24.2194,2252
24.2222,2144
24.2250,1978
24.2278,1838
24.2306,1775
24.2333,1725
24.2361,1678
24.2389,1650
24.2417,1605
24.2444,1570
24.2472,1556
24.2500,1578
24.2528,1617
24.2556,1654
24.2583,1685
24.2611,1702
24.2639,1705
24.2667,1707
24.2694,1703
24.2722,1702
24.2750,1690
24.2778,1695
24.2806,1700
24.2833,1722
24.2861,1726
24.2889,1734
24.2917,1736
24.2944,1718
24.2972,1704
24.3000,1710
24.3028,1715
24.3056,1716
24.3083,1730
24.3111,1740
24.3139,1748
24.3167,1737
24.3194,1743
24.3222,1747
24.3250,1749
24.3278,1749
24.3306,1740
24.3333,1740
24.3361,1737
24.3389,1742
24.3417,1746
24.3444,1759
24.3472,1749
24.3500,1753
24.3528,1751
24.3556,1741
24.3583,1733
24.3611,1754
24.3639,1760
24.3667,1769
24.3694,1772
24.3722,1797
24.3750,1783
24.3778,1774
24.3806,1784
24.3833,1802
24.3861,1801
24.3889,1809
24.3917,1806
24.3944,1789
24.3972,1781
24.4000,1790
24.4028,1810
24.4056,1820
24.4083,1836
24.4111,1875
24.4139,1883
24.4167,1893
24.4194,1898
24.4222,1899
24.4250,1888
24.4278,1889
24.4306,1888
24.4333,1901
24.4361,1887
24.4389,1902
24.4417,1904
24.4444,1892
24.4472,1874
24.4500,1861
24.4528,1851
24.4556,1854
24.4583,1838
24.4611,1838
24.4639,1833
24.4667,1830
24.4694,1820
24.4722,1808
24.4750,1799
24.4778,1777
24.4806,1762
24.4833,1764
24.4861,1728
24.4889,1729
24.4917,1713
24.4944,1722
24.4972,1701
24.5000,1687
24.5028,1675
24.5056,1686
24.5083,1680
24.5111,1677
24.5139,1676
24.5167,1668
24.5194,1653
24.5222,1646
24.5250,1634
24.5278,1636
24.5306,1641
24.5333,1652
24.5361,1646
24.5389,1644
24.5417,1632
24.5444,1625
24.5472,1623
24.5500,1623
24.5528,1619
24.5556,1627
24.5583,1641
24.5611,1649
24.5639,1653
24.5667,1643
24.5694,1649
24.5722,1641
24.5750,1643
24.5778,1639
24.5806,1651
24.5833,1652
24.5861,1649
24.5889,1647
24.5917,1649
24.5944,1650
24.5972,1639
24.6000,1642
24.6028,1630
24.6056,1624
24.6083,1636
24.6111,1638
24.6139,1638
24.6167,1648
24.6194,1659
24.6222,1640
24.6250,1639
24.6278,1640
24.6306,1653
24.6333,1636
24.6361,1638
24.6389,1639
24.6417,1634
24.6444,1634
24.6472,1639
24.6500,1645
24.6528,1650
24.6556,1643
24.6583,1649
24.6611,1646
24.6639,1631
24.6667,1632
24.6694,1632
24.6722,1630
24.6750,1625
24.6778,1630
24.6806,1638
24.6833,1637
24.6861,1637
24.6889,1634
24.6917,1638
24.6944,1639
24.6972,1634
24.7000,1643
24.7028,1644
24.7056,1649
24.7083,1643
24.7111,1638
24.7139,1628
24.7167,1632
24.7194,1629
24.7222,1627
24.7250,1632
24.7278,1638
24.7306,1639
24.7333,1649
24.7361,1658
24.7389,1665
24.7417,1664
24.7444,1667
24.7472,1670
24.7500,1663
24.7528,1652
24.7556,1639
24.7583,1638
24.7611,1638
24.7639,1634
24.7667,1626
24.7694,1639
24.7722,1637
24.7750,1637
24.7778,1660
24.7806,1648
24.7833,1660
24.7861,1661
24.7889,1665
24.7917,1664
24.7944,1669
24.7972,1680
24.8000,1706
24.8028,1729
24.8056,1732
24.8083,1743
24.8111,1739
24.8139,1732
24.8167,1731
24.8194,1718
24.8222,1731
24.8250,1732
24.8278,1733
24.8306,1740
24.8333,1738
24.8361,1735
24.8389,1730
24.8417,1733
24.8444,1739
24.8472,1754
24.8500,1776
24.8528,1781
24.8556,1784
24.8583,1787
24.8611,1784
24.8639,1756
24.8667,1734
24.8694,1727
24.8722,1709
24.8750,1705
24.8778,1691
24.8806,1683
24.8833,1653
24.8861,1647
24.8889,1634
24.8917,1635
24.8944,1635
24.8972,1633
24.9000,1652
24.9028,1635
24.9056,1630
24.9083,1632
24.9111,1631
24.9139,1622
24.9167,1609
24.9194,1608
24.9222,1600
24.9250,1603
24.9278,1608
24.9306,1620
24.9333,1636
24.9361,1642
24.9389,1646
24.9417,1658
24.9444,1660
24.9472,1645
24.9500,1641
24.9528,1625
24.9556,1626
24.9583,1652
24.9611,1694
24.9639,1736
24.9667,1767
24.9694,1787
24.9722,1774
24.9750,1753
24.9778,1724
24.9806,1703
24.9833,1680
24.9861,1679
24.9889,1691
24.9917,1772
24.9944,1930
24.9972,2110
25.0000,2146
25.0028,2036
25.0056,1904
25.0083,1806
25.0111,1754
25.0139,1708
25.0167,1667
25.0194,1613
25.0222,1559
25.0250,1490
25.0278,1452
25.0306,1455
25.0333,1492
25.0361,1549
25.0389,1595
25.0417,1632
25.0444,1659
25.0472,1661
25.0500,1668
25.0528,1667
25.0556,1648
25.0583,1635
25.0611,1645
25.0639,1635
25.0667,1647
25.0694,1652
25.0722,1664
25.0750,1661
25.0778,1658
25.0806,1661
25.0833,1665
25.0861,1676
25.0889,1678
25.0917,1671
25.0944,1660
25.0972,1670
25.1000,1680
25.1028,1686
25.1056,1683
25.1083,1691
25.1111,1681
25.1139,1674
25.1167,1680
25.1194,1686
25.1222,1696
25.1250,1695
25.1278,1698
25.1306,1696
25.1333,1685
25.1361,1681
25.1389,1686
25.1417,1703
25.1444,1716
25.1472,1724
25.1500,1723
25.1528,1718
25.1556,1699
25.1583,1695
25.1611,1705
25.1639,1722
25.1667,1738
25.1694,1744
25.1722,1737
25.1750,1723
25.1778,1725
25.1806,1735
25.1833,1734
25.1861,1731
25.1889,1763
25.1917,1888
25.1944,1883
25.1972,1881
25.2000,1889
25.2028,1902
25.2056,1883
25.2083,1888
25.2111,1874
25.2139,1867
25.2167,1842
25.2194,1847
25.2222,1840
25.2250,1850
25.2278,1861
25.2306,1861
25.2333,1875
25.2361,1856
25.2389,1843
25.2417,1839
25.2444,1812
25.2472,1808
25.2500,1797
25.2528,1806
25.2556,1791
25.2583,1783
25.2611,1776
25.2639,1769
25.2667,1765
25.2694,1763
25.2722,1761
25.2750,1731
25.2778,1722
25.2806,1706
25.2833,1679
25.2861,1672
25.2889,1683
25.2917,1678
25.2944,1668
25.2972,1681
25.3000,1667
25.3028,1652
25.3056,1655
25.3083,1661
25.3111,1661
25.3139,1638
25.3167,1648
25.3194,1642
25.3222,1640
25.3250,1643
25.3278,1658
25.3306,1660
25.3333,1660
25.3361,1649
25.3389,1650
25.3417,1646
25.3444,1646
25.3472,1643
25.3500,1654
25.3528,1652
25.3556,1645
25.3583,1656
25.3611,1659
25.3639,1646
25.3667,1651
25.3694,1655
25.3722,1662
25.3750,1670
25.3778,1670
25.3806,1667
25.3833,1652
25.3861,1656
25.3889,1666
25.3917,1665
25.3944,1660
25.3972,1669
25.4000,1667
25.4028,1678
25.4056,1688
25.4083,1688
25.4111,1690
25.4139,1694
25.4167,1690
25.4194,1684
25.4222,1666
25.4250,1672
25.4278,1677
25.4306,1674
25.4333,1684
25.4361,1687
25.4389,1707
25.4417,1695
25.4444,1705
25.4472,1717
25.4500,1724
25.4528,1718
25.4556,1721
25.4583,1723
25.4611,1719
25.4639,1722
25.4667,1720
25.4694,1721
25.4722,1719
25.4750,1714
25.4778,1721
25.4806,1724
25.4833,1711
25.4861,1716
25.4889,1717
25.4917,1721
25.4944,1723
25.4972,1718
25.5000,1724
25.5028,1717
25.5056,1719
25.5083,1720
25.5111,1729
25.5139,1726
25.5167,1712
25.5194,1719
25.5222,1718
25.5250,1720
25.5278,1723
25.5306,1724
25.5333,1726
25.5361,1710
25.5389,1712
25.5417,1708
25.5444,1695
25.5472,1701
25.5500,1706
25.5528,1704
25.5556,1709
25.5583,1728
25.5611,1742
25.5639,1760
25.5667,1758
25.5694,1769
25.5722,1777
25.5750,1774
25.5778,1772
25.5806,1772
25.5833,1746
25.5861,1754
25.5889,1769
25.5917,1785
25.5944,1787
25.5972,1801
25.6000,1799
25.6028,1781
25.6056,1775
25.6083,1778
25.6111,1789
25.6139,1789
25.6167,1805
25.6194,1810
25.6222,1828
25.6250,1838
25.6278,1808
25.6306,1790
25.6333,1752
25.6361,1723
25.6389,1728
25.6417,1726
25.6444,1690
25.6472,1684
25.6500,1663
25.6528,1656
25.6556,1646
25.6583,1650
25.6611,1662
25.6639,1656
25.6667,1647
25.6694,1655
25.6722,1647
25.6750,1646
25.6778,1635
25.6806,1638
25.6833,1638
25.6861,1642
25.6889,1640
25.6917,1637
25.6944,1641
25.6972,1646
25.7000,1656
25.7028,1655
25.7056,1655
25.7083,1668
25.7111,1663
25.7139,1661
25.7167,1655
25.7194,1663
25.7222,1687
25.7250,1730
25.7278,1780
25.7306,1809
25.7333,1818
25.7361,1805
25.7389,1794
25.7417,1761
25.7444,1733
25.7472,1720
25.7500,1733
25.7528,1769
25.7556,1872
25.7583,2053
25.7611,2173
25.7639,2120
25.7667,1974
25.7694,1834
25.7722,1761
25.7750,1710
25.7778,1671
25.7806,1633
25.7833,1588
25.7861,1553
25.7889,1523
25.7917,1507
25.7944,1535
25.7972,1578
25.8000,1628
25.8028,1652
25.8056,1662
25.8083,1667
25.8111,1698
25.8139,1679
25.8167,1664
25.8194,1662
25.8222,1663
25.8250,1666
25.8278,1694
25.8306,1715
25.8333,1717
25.8361,1698
25.8389,1694
25.8417,1697
25.8444,1703
25.8472,1714
25.8500,1730
25.8528,1724
25.8556,1717
25.8583,1710
25.8611,1711
25.8639,1720
25.8667,1731
25.8694,1745
25.8722,1750
25.8750,1745
25.8778,1744
25.8806,1753
25.8833,1742
25.8861,1744
25.8889,1762
25.8917,1760
25.8944,1777
25.8972,1775
25.9000,1776
25.9028,1785
25.9056,1788
25.9083,1815
25.9111,1823
25.9139,1825
25.9167,1828
25.9194,1818
25.9222,1821
25.9250,1841
25.9278,1864
25.9306,1874
25.9333,1877
25.9361,1870
25.9389,1866
25.9417,1874
25.9444,1888
25.9472,1895
25.9500,1914
25.9528,2008
25.9556,1999
25.9583,1980
25.9611,1962
25.9639,1958
25.9667,1961
25.9694,1971
25.9722,1966
25.9750,1969
25.9778,1947
25.9806,1949
25.9833,1933
25.9861,1935
25.9889,1946
25.9917,1942
25.9944,1934
25.9972,1931
26.0000,1915
26.0028,1905
26.0056,1907
26.0083,1919
26.0111,1909
26.0139,1879
26.0167,1876
26.0194,1853
26.0222,1827
26.0250,1821
26.0278,1829
26.0306,1818
26.0333,1812
26.0361,1791
26.0389,1776
26.0417,1763
26.0444,1748
26.0472,1757
26.0500,1744
26.0528,1736
26.0556,1727
26.0583,1727
26.0611,1705
26.0639,1699
26.0667,1698
26.0694,1714
26.0722,1697
26.0750,1687
26.0778,1698
26.0806,1680
26.0833,1674
26.0861,1681
26.0889,1686
26.0917,1696
26.0944,1693
26.0972,1695
26.1000,1678
26.1028,1656
26.1056,1664
26.1083,1668
26.1111,1678
26.1139,1692
26.1167,1691
26.1194,1676
26.1222,1660
26.1250,1658
26.1278,1652
26.1306,1668
26.1333,1658
26.1361,1658
26.1389,1650
26.1417,1632
26.1444,1631
26.1472,1638
26.1500,1635
26.1528,1633
26.1556,1621
26.1583,1620
26.1611,1597
26.1639,1581
26.1667,1577
26.1694,1585
26.1722,1582
26.1750,1584
26.1778,1584
26.1806,1594
26.1833,1602
26.1861,1613
26.1889,1626
26.1917,1637
26.1944,1639
26.1972,1644
26.2000,1633
26.2028,1638
26.2056,1642
26.2083,1655
26.2111,1655
26.2139,1669
26.2167,1667
26.2194,1669
26.2222,1680
26.2250,1690
26.2278,1703
26.2306,1704
26.2333,1696
26.2361,1713
26.2389,1715
26.2417,1729
26.2444,1734
26.2472,1750
26.2500,1756
26.2528,1765
26.2556,1762
26.2583,1770
26.2611,1765
26.2639,1765
26.2667,1781
26.2694,1788
26.2722,1794
26.2750,1802
26.2778,1808
26.2806,1793
26.2833,1787
26.2861,1780
26.2889,1790
26.2917,1798
26.2944,1794
26.2972,1788
26.3000,1787
26.3028,1780
26.3056,1769
26.3083,1768
26.3111,1783
26.3139,1783
26.3167,1780
26.3194,1782
26.3222,1786
26.3250,1783
26.3278,1800
26.3306,1819
26.3333,1823
26.3361,1837
26.3389,1839
26.3417,1843
26.3444,1857
26.3472,1870
26.3500,1872
26.3528,1855
26.3556,1852
26.3583,1859
26.3611,1847
26.3639,1855
26.3667,1871
26.3694,1880
26.3722,1876
26.3750,1859
26.3778,1841
26.3806,1829
26.3833,1828
26.3861,1832
26.3889,1828
26.3917,1832
26.3944,1845
26.3972,1852
26.4000,1845
26.4028,1836
26.4056,1826
