Tiempo(s),Valor_ADC
0.0028,1839
0.0056,1813
0.0083,1800
0.0111,1786
0.0139,1770
0.0167,1730
0.0194,1704
0.0222,1672
0.0250,1634
0.0278,1615
0.0306,1606
0.0333,1599
0.0361,1602
0.0389,1615
0.0417,1616
0.0444,1610
0.0472,1597
0.0500,1606
0.0528,1608
0.0556,1607
0.0583,1575
0.0611,1560
0.0639,1547
0.0667,1553
0.0694,1569
0.0722,1595
0.0750,1599
0.0778,1580
0.0806,1563
0.0833,1556
0.0861,1561
0.0889,1568
0.0917,1578
0.0944,1594
0.0972,1600
0.1000,1587
0.1028,1598
0.1056,1591
0.1083,1603
0.1111,1612
0.1139,1621
0.1167,1607
0.1194,1583
0.1222,1592
0.1250,1607
0.1278,1622
0.1306,1632
0.1333,1622
0.1361,1615
0.1389,1610
0.1417,1618
0.1444,1630
0.1472,1646
0.1500,1667
0.1528,1669
0.1556,1666
0.1583,1663
0.1611,1654
0.1639,1643
0.1667,1648
0.1694,1639
0.1722,1644
0.1750,1657
0.1778,1654
0.1806,1649
0.1833,1645
0.1861,1663
0.1889,1681
0.1917,1703
0.1944,1699
0.1972,1681
0.2000,1677
0.2028,1684
0.2056,1686
0.2083,1682
0.2111,1687
0.2139,1694
0.2167,1702
0.2194,1692
0.2222,1674
0.2250,1669
0.2278,1665
0.2306,1662
0.2333,1668
0.2361,1656
0.2389,1665
0.2417,1677
0.2444,1693
0.2472,1707
0.2500,1716
0.2528,1717
0.2556,1699
0.2583,1692
0.2611,1702
0.2639,1720
0.2667,1731
0.2694,1747
0.2722,1771
0.2750,1770
0.2778,1766
0.2806,1746
0.2833,1734
0.2861,1726
0.2889,1745
0.2917,1745
0.2944,1745
0.2972,1751
0.3000,1763
0.3028,1773
0.3056,1771
0.3083,1757
0.3111,1765
0.3139,1781
0.3167,1794
0.3194,1799
0.3222,1800
0.3250,1789
0.3278,1786
0.3306,1798
0.3333,1800
0.3361,1796
0.3389,1785
0.3417,1792
0.3444,1787
0.3472,1777
0.3500,1767
0.3528,1759
0.3556,1766
0.3583,1766
0.3611,1767
0.3639,1770
0.3667,1775
0.3694,1773
0.3722,1770
0.3750,1769
0.3778,1772
0.3806,1767
0.3833,1759
0.3861,1760
0.3889,1751
0.3917,1744
0.3944,1740
0.3972,1734
0.4000,1719
0.4028,1731
0.4056,1760
0.4083,1764
0.4111,1753
0.4139,1749
0.4167,1733
0.4194,1715
0.4222,1695
0.4250,1694
0.4278,1683
0.4306,1679
0.4333,1694
0.4361,1691
0.4389,1678
0.4417,1650
0.4444,1648
0.4472,1647
0.4500,1678
0.4528,1695
0.4556,1697
0.4583,1694
0.4611,1682
0.4639,1681
0.4667,1687
0.4694,1686
0.4722,1686
0.4750,1675
0.4778,1666
0.4806,1653
0.4833,1655
0.4861,1660
0.4889,1654
0.4917,1650
0.4944,1642
0.4972,1645
0.5000,1643
0.5028,1640
0.5056,1637
0.5083,1634
0.5111,1644
0.5139,1643
0.5167,1621
0.5194,1617
0.5222,1628
0.5250,1630
0.5278,1632
0.5306,1635
0.5333,1635
0.5361,1618
0.5389,1599
0.5417,1587
0.5444,1591
0.5472,1609
0.5500,1625
0.5528,1609
0.5556,1615
0.5583,1636
0.5611,1642
0.5639,1639
0.5667,1615
0.5694,1612
0.5722,1636
0.5750,1656
0.5778,1682
0.5806,1671
0.5833,1683
0.5861,1688
0.5889,1682
0.5917,1679
0.5944,1670
0.5972,1668
0.6000,1679
0.6028,1686
0.6056,1705
0.6083,1707
0.6111,1723
0.6139,1732
0.6167,1742
0.6194,1708
0.6222,1687
0.6250,1675
0.6278,1695
0.6306,1730
0.6333,1770
0.6361,1794
0.6389,1800
0.6417,1800
0.6444,1808
0.6472,1827
0.6500,1869
0.6528,1906
0.6556,1919
0.6583,1908
0.6611,1897
0.6639,1883
0.6667,1893
0.6694,1893
0.6722,1879
0.6750,1880
0.6778,1877
0.6806,1871
0.6833,1888
0.6861,1891
0.6889,1886
0.6917,1883
0.6944,1867
0.6972,1848
0.7000,1820
0.7028,1818
0.7056,1807
0.7083,1805
0.7111,1808
0.7139,1805
0.7167,1793
0.7194,1783
0.7222,1780
0.7250,1785
0.7278,1788
0.7306,1790
0.7333,1775
0.7361,1776
0.7389,1761
0.7417,1705
0.7444,1609
0.7472,1538
0.7500,1513
0.7528,1566
0.7556,1678
0.7583,1849
0.7611,2092
0.7639,2407
0.7667,2730
0.7694,3083
0.7722,3356
0.7750,3359
0.7778,3363
0.7806,3370
0.7833,3366
0.7861,3299
0.7889,2798
0.7917,2187
0.7944,1726
0.7972,1510
0.8000,1494
0.8028,1546
0.8056,1637
0.8083,1701
0.8111,1734
0.8139,1756
0.8167,1746
0.8194,1735
0.8222,1712
0.8250,1693
0.8278,1684
0.8306,1684
0.8333,1705
0.8361,1712
0.8389,1722
0.8417,1719
0.8444,1696
0.8472,1677
0.8500,1666
0.8528,1668
0.8556,1671
0.8583,1655
0.8611,1647
0.8639,1649
0.8667,1652
0.8694,1671
0.8722,1689
0.8750,1692
0.8778,1669
0.8806,1639
0.8833,1618
0.8861,1602
0.8889,1624
0.8917,1665
0.8944,1698
0.8972,1695
0.9000,1673
0.9028,1646
0.9056,1636
0.9083,1635
0.9111,1640
0.9139,1653
0.9167,1657
0.9194,1650
0.9222,1624
0.9250,1587
0.9278,1588
0.9306,1613
0.9333,1641
0.9361,1669
0.9389,1672
0.9417,1649
0.9444,1617
0.9472,1606
0.9500,1608
0.9528,1621
0.9556,1627
0.9583,1641
0.9611,1634
0.9639,1634
0.9667,1638
0.9694,1649
0.9722,1680
0.9750,1685
0.9778,1693
0.9806,1675
0.9833,1655
0.9861,1640
0.9889,1826
0.9917,1826
0.9944,1824
0.9972,1811
1.0000,1807
1.0028,1803
1.0056,1796
1.0083,1780
1.0111,1769
1.0139,1733
1.0167,1709
1.0194,1672
1.0222,1636
1.0250,1614
1.0278,1609
1.0306,1605
1.0333,1615
1.0361,1603
1.0389,1599
1.0417,1582
1.0444,1560
1.0472,1541
1.0500,1550
1.0528,1562
1.0556,1558
1.0583,1549
1.0611,1535
1.0639,1514
1.0667,1522
1.0694,1542
1.0722,1565
1.0750,1574
1.0778,1589
1.0806,1581
1.0833,1568
1.0861,1562
1.0889,1547
1.0917,1546
1.0944,1549
1.0972,1549
1.1000,1554
1.1028,1559
1.1056,1546
1.1083,1553
1.1111,1567
1.1139,1580
1.1167,1589
1.1194,1610
1.1222,1612
1.1250,1597
1.1278,1576
1.1306,1561
1.1333,1567
1.1361,1587
1.1389,1609
1.1417,1612
1.1444,1612
1.1472,1612
1.1500,1608
1.1528,1619
1.1556,1640
1.1583,1627
1.1611,1622
1.1639,1625
1.1667,1626
1.1694,1615
1.1722,1620
1.1750,1635
1.1778,1658
1.1806,1656
1.1833,1637
1.1861,1636
1.1889,1640
1.1917,1667
1.1944,1677
1.1972,1678
1.2000,1676
1.2028,1666
1.2056,1658
1.2083,1659
1.2111,1670
1.2139,1668
1.2167,1658
1.2194,1652
1.2222,1653
1.2250,1657
1.2278,1662
1.2306,1664
1.2333,1672
1.2361,1650
1.2389,1642
1.2417,1643
1.2444,1637
1.2472,1644
1.2500,1648
1.2528,1643
1.2556,1653
1.2583,1646
1.2611,1632
1.2639,1637
1.2667,1641
1.2694,1652
1.2722,1656
1.2750,1666
1.2778,1658
1.2806,1662
1.2833,1670
1.2861,1670
1.2889,1665
1.2917,1650
1.2944,1636
1.2972,1616
1.3000,1606
1.3028,1607
1.3056,1628
1.3083,1637
1.3111,1650
1.3139,1676
1.3167,1684
1.3194,1689
1.3222,1683
1.3250,1676
1.3278,1671
1.3306,1660
1.3333,1656
1.3361,1656
1.3389,1646
1.3417,1653
1.3444,1645
1.3472,1637
1.3500,1641
1.3528,1663
1.3556,1686
1.3583,1696
1.3611,1710
1.3639,1715
1.3667,1705
1.3694,1696
1.3722,1684
1.3750,1666
1.3778,1682
1.3806,1706
1.3833,1719
1.3861,1720
1.3889,1717
1.3917,1729
1.3944,1739
1.3972,1751
1.4000,1752
1.4028,1748
1.4056,1734
1.4083,1727
1.4111,1710
1.4139,1709
1.4167,1716
1.4194,1740
1.4222,1758
1.4250,1752
1.4278,1752
1.4306,1759
1.4333,1759
1.4361,1750
1.4389,1733
1.4417,1727
1.4444,1722
1.4472,1733
1.4500,1738
1.4528,1748
1.4556,1753
1.4583,1756
1.4611,1755
1.4639,1735
1.4667,1738
1.4694,1749
1.4722,1761
1.4750,1765
1.4778,1758
1.4806,1764
1.4833,1752
1.4861,1753
1.4889,1755
1.4917,1759
1.4944,1759
1.4972,1763
1.5000,1762
1.5028,1765
1.5056,1777
1.5083,1770
1.5111,1771
1.5139,1780
1.5167,1774
1.5194,1775
1.5222,1768
1.5250,1763
1.5278,1760
1.5306,1766
1.5333,1762
1.5361,1771
1.5389,1773
1.5417,1762
1.5444,1747
1.5472,1740
1.5500,1734
1.5528,1748
1.5556,1760
1.5583,1766
1.5611,1782
1.5639,1793
1.5667,1795
1.5694,1782
1.5722,1772
1.5750,1791
1.5778,1815
1.5806,1835
1.5833,1856
1.5861,1873
1.5889,1870
1.5917,1874
1.5944,1878
1.5972,1883
1.6000,1865
1.6028,1846
1.6056,1835
1.6083,1832
1.6111,1835
1.6139,1844
1.6167,1835
1.6194,1818
1.6222,1796
1.6250,1784
1.6278,1759
1.6306,1734
1.6333,1713
1.6361,1703
1.6389,1704
1.6417,1711
1.6444,1728
1.6472,1747
1.6500,1751
1.6528,1749
1.6556,1744
1.6583,1736
1.6611,1716
1.6639,1695
1.6667,1680
1.6694,1658
1.6722,1610
1.6750,1532
1.6778,1463
1.6806,1469
1.6833,1526
1.6861,1649
1.6889,1819
1.6917,2085
1.6944,2411
1.6972,2747
1.7000,3070
1.7028,3353
1.7056,3365
1.7083,3375
1.7111,3372
1.7139,3366
1.7167,3203
1.7194,2650
1.7222,2068
1.7250,1651
1.7278,1463
1.7306,1450
1.7333,1514
1.7361,1600
1.7389,1666
1.7417,1711
1.7444,1743
1.7472,1750
1.7500,1729
1.7528,1682
1.7556,1645
1.7583,1642
1.7611,1661
1.7639,1678
1.7667,1693
1.7694,1689
1.7722,1675
1.7750,1648
1.7778,1633
1.7806,1649
1.7833,1681
1.7861,1704
1.7889,1715
1.7917,1700
1.7944,1690
1.7972,1673
1.8000,1676
1.8028,1688
1.8056,1707
1.8083,1703
1.8111,1703
1.8139,1686
1.8167,1682
1.8194,1685
1.8222,1706
1.8250,1717
1.8278,1711
1.8306,1709
1.8333,1688
1.8361,1675
1.8389,1696
1.8417,1713
1.8444,1735
1.8472,1739
1.8500,1735
1.8528,1708
1.8556,1716
1.8583,1711
1.8611,1706
1.8639,1704
1.8667,1708
1.8694,1714
1.8722,1720
1.8750,1725
1.8778,1724
1.8806,1742
1.8833,1773
1.8861,1786
1.8889,1783
1.8917,1781
1.8944,1770
1.8972,1758
1.9000,1764
1.9028,1765
1.9056,1789
1.9083,1792
1.9111,1790
1.9139,1786
1.9167,1791
1.9194,1878
1.9222,1890
1.9250,1900
1.9278,1922
1.9306,1907
1.9333,1895
1.9361,1868
1.9389,1846
1.9417,1833
1.9444,1828
1.9472,1804
1.9500,1767
1.9528,1730
1.9556,1703
1.9583,1680
1.9611,1678
1.9639,1673
1.9667,1680
1.9694,1671
1.9722,1659
1.9750,1644
1.9778,1620
1.9806,1614
1.9833,1605
1.9861,1612
1.9889,1607
1.9917,1602
1.9944,1606
1.9972,1606
2.0000,1613
2.0028,1610
2.0056,1609
2.0083,1604
2.0111,1595
2.0139,1582
2.0167,1573
2.0194,1568
2.0222,1583
2.0250,1606
2.0278,1629
2.0306,1635
2.0333,1633
2.0361,1621
2.0389,1614
2.0417,1596
2.0444,1593
2.0472,1594
2.0500,1600
2.0528,1605
2.0556,1594
2.0583,1591
2.0611,1601
2.0639,1614
2.0667,1620
2.0694,1632
2.0722,1631
2.0750,1627
2.0778,1622
2.0806,1610
2.0833,1603
2.0861,1597
2.0889,1595
2.0917,1550
2.0944,1498
2.0972,1461
2.1000,1437
2.1028,1427
2.1056,1436
2.1083,1453
2.1111,1454
2.1139,1474
2.1167,1467
2.1194,1462
2.1222,1463
2.1250,1463
2.1278,1456
2.1306,1478
2.1333,1499
2.1361,1516
2.1389,1532
2.1417,1535
2.1444,1531
2.1472,1536
2.1500,1534
2.1528,1554
2.1556,1574
2.1583,1602
2.1611,1624
2.1639,1660
2.1667,1691
2.1694,1755
2.1722,1824
2.1750,1884
2.1778,1912
2.1806,1932
2.1833,1940
2.1861,1937
2.1889,1920
2.1917,1892
2.1944,1875
2.1972,1868
2.2000,1873
2.2028,1857
2.2056,1850
2.2083,1847
2.2111,1838
2.2139,1829
2.2167,1815
2.2194,1807
2.2222,1793
2.2250,1780
2.2278,1767
2.2306,1768
2.2333,1756
2.2361,1754
2.2389,1762
2.2417,1766
2.2444,1776
2.2472,1774
2.2500,1759
2.2528,1742
2.2556,1711
2.2583,1714
2.2611,1708
2.2639,1717
2.2667,1730
2.2694,1739
2.2722,1718
2.2750,1710
2.2778,1702
2.2806,1706
2.2833,1715
2.2861,1716
2.2889,1731
2.2917,1719
2.2944,1708
2.2972,1690
2.3000,1688
2.3028,1686
2.3056,1678
2.3083,1683
2.3111,1695
2.3139,1690
2.3167,1686
2.3194,1670
2.3222,1649
2.3250,1627
2.3278,1629
2.3306,1630
2.3333,1640
2.3361,1648
2.3389,1661
2.3417,1660
2.3444,1648
2.3472,1636
2.3500,1627
2.3528,1621
2.3556,1625
2.3583,1633
2.3611,1644
2.3639,1641
2.3667,1639
2.3694,1633
2.3722,1629
2.3750,1617
2.3778,1621
2.3806,1639
2.3833,1649
2.3861,1651
2.3889,1648
2.3917,1640
2.3944,1627
2.3972,1620
2.4000,1612
2.4028,1624
2.4056,1629
2.4083,1628
2.4111,1631
2.4139,1635
2.4167,1637
2.4194,1636
2.4222,1623
2.4250,1606
2.4278,1610
2.4306,1623
2.4333,1639
2.4361,1645
2.4389,1646
2.4417,1661
2.4444,1666
2.4472,1652
2.4500,1647
2.4528,1630
2.4556,1632
2.4583,1635
2.4611,1641
2.4639,1662
2.4667,1666
2.4694,1663
2.4722,1648
2.4750,1646
2.4778,1651
2.4806,1653
2.4833,1656
2.4861,1651
2.4889,1642
2.4917,1626
2.4944,1619
2.4972,1607
2.5000,1613
2.5028,1634
2.5056,1660
2.5083,1674
2.5111,1673
2.5139,1662
2.5167,1659
2.5194,1648
2.5222,1644
2.5250,1651
2.5278,1653
2.5306,1654
2.5333,1654
2.5361,1659
2.5389,1666
2.5417,1674
2.5444,1668
2.5472,1667
2.5500,1646
2.5528,1639
2.5556,1631
2.5583,1639
2.5611,1639
2.5639,1636
2.5667,1639
2.5694,1640
2.5722,1626
2.5750,1640
2.5778,1655
2.5806,1668
2.5833,1672
2.5861,1701
2.5889,1737
2.5917,1760
2.5944,1762
2.5972,1757
2.6000,1741
2.6028,1731
2.6056,1743
2.6083,1745
2.6111,1745
2.6139,1742
2.6167,1728
2.6194,1724
2.6222,1720
2.6250,1708
2.6278,1697
2.6306,1684
2.6333,1659
2.6361,1646
2.6389,1646
2.6417,1644
2.6444,1640
2.6472,1637
2.6500,1626
2.6528,1625
2.6556,1631
2.6583,1648
2.6611,1647
2.6639,1636
2.6667,1619
2.6694,1611
2.6722,1623
2.6750,1641
2.6778,1627
2.6806,1586
2.6833,1490
2.6861,1399
2.6889,1359
2.6917,1377
2.6944,1464
2.6972,1614
2.7000,1847
2.7028,2160
2.7056,2525
2.7083,2888
2.7111,3259
2.7139,3350
2.7167,3362
2.7194,3373
2.7222,3378
2.7250,3340
2.7278,2880
2.7306,2238
2.7333,1720
2.7361,1453
2.7389,1387
2.7417,1446
2.7444,1543
2.7472,1624
2.7500,1685
2.7528,1715
2.7556,1697
2.7583,1664
2.7611,1632
2.7639,1598
2.7667,1580
2.7694,1593
2.7722,1628
2.7750,1666
2.7778,1670
2.7806,1649
2.7833,1626
2.7861,1603
2.7889,1585
2.7917,1604
2.7944,1635
2.7972,1656
2.8000,1657
2.8028,1642
2.8056,1618
2.8083,1616
2.8111,1612
2.8139,1606
2.8167,1626
2.8194,1640
2.8222,1646
2.8250,1667
2.8278,1668
2.8306,1663
2.8333,1665
2.8361,1681
2.8389,1695
2.8417,1691
2.8444,1687
2.8472,1682
2.8500,1680
2.8528,1713
2.8556,1729
2.8583,1723
2.8611,1695
2.8639,1683
2.8667,1684
2.8694,1699
2.8722,1724
2.8750,1749
2.8778,1758
2.8806,1743
2.8833,1725
2.8861,1727
2.8889,1722
2.8917,1724
2.8944,1745
2.8972,1738
2.9000,1734
2.9028,1735
2.9056,1742
2.9083,1759
2.9111,1763
2.9139,1773
2.9167,1775
2.9194,1772
2.9222,1774
2.9250,1760
2.9278,1915
2.9306,1921
2.9333,1940
2.9361,1943
2.9389,1930
2.9417,1908
2.9444,1874
2.9472,1860
2.9500,1850
2.9528,1827
2.9556,1800
2.9583,1776
2.9611,1746
2.9639,1721
2.9667,1707
2.9694,1694
2.9722,1690
2.9750,1694
2.9778,1684
2.9806,1657
2.9833,1619
2.9861,1593
2.9889,1603
2.9917,1608
2.9944,1619
2.9972,1614
3.0000,1596
3.0028,1571
3.0056,1543
3.0083,1526
3.0111,1538
3.0139,1543
3.0167,1548
3.0194,1543
3.0222,1524
3.0250,1511
3.0278,1506
3.0306,1529
3.0333,1536
3.0361,1537
3.0389,1532
3.0417,1518
3.0444,1509
3.0472,1494
3.0500,1507
3.0528,1508
3.0556,1508
3.0583,1520
3.0611,1529
3.0639,1544
3.0667,1547
3.0694,1555
3.0722,1563
3.0750,1559
3.0778,1562
3.0806,1556
3.0833,1552
3.0861,1553
3.0889,1552
3.0917,1554
3.0944,1554
3.0972,1560
3.1000,1560
3.1028,1549
3.1056,1559
3.1083,1571
3.1111,1594
3.1139,1610
3.1167,1615
3.1194,1607
3.1222,1602
3.1250,1594
3.1278,1587
3.1306,1581
3.1333,1576
3.1361,1583
3.1389,1589
3.1417,1585
3.1444,1586
3.1472,1591
3.1500,1589
3.1528,1616
3.1556,1630
3.1583,1628
3.1611,1629
3.1639,1625
3.1667,1597
3.1694,1588
3.1722,1598
3.1750,1600
3.1778,1609
3.1806,1615
3.1833,1616
3.1861,1622
3.1889,1617
3.1917,1623
3.1944,1638
3.1972,1652
3.2000,1651
3.2028,1619
3.2056,1603
3.2083,1612
3.2111,1623
3.2139,1636
3.2167,1640
3.2194,1632
3.2222,1646
3.2250,1639
3.2278,1648
3.2306,1650
3.2333,1650
3.2361,1647
3.2389,1647
3.2417,1650
3.2444,1643
3.2472,1639
3.2500,1628
3.2528,1642
3.2556,1661
3.2583,1674
3.2611,1670
3.2639,1642
3.2667,1623
3.2694,1622
3.2722,1636
3.2750,1651
3.2778,1658
3.2806,1647
3.2833,1638
3.2861,1640
3.2889,1651
3.2917,1661
3.2944,1672
3.2972,1672
3.3000,1666
3.3028,1661
3.3056,1663
3.3083,1655
3.3111,1642
3.3139,1639
3.3167,1638
3.3194,1653
3.3222,1667
3.3250,1673
3.3278,1678
3.3306,1672
3.3333,1660
3.3361,1655
3.3389,1649
3.3417,1663
3.3444,1658
3.3472,1663
3.3500,1675
3.3528,1675
3.3556,1674
3.3583,1658
3.3611,1654
3.3639,1667
3.3667,1673
3.3694,1677
3.3722,1677
3.3750,1685
3.3778,1681
3.3806,1683
3.3833,1701
3.3861,1705
3.3889,1703
3.3917,1704
3.3944,1705
3.3972,1717
3.4000,1723
3.4028,1722
3.4056,1725
3.4083,1712
3.4111,1692
3.4139,1693
3.4167,1700
3.4194,1710
3.4222,1730
3.4250,1733
3.4278,1738
3.4306,1737
3.4333,1729
3.4361,1722
3.4389,1729
3.4417,1722
3.4444,1718
3.4472,1730
3.4500,1745
3.4528,1753
3.4556,1749
3.4583,1750
3.4611,1744
3.4639,1738
3.4667,1728
3.4694,1729
3.4722,1733
3.4750,1740
3.4778,1750
3.4806,1760
3.4833,1772
3.4861,1769
3.4889,1769
3.4917,1768
3.4944,1768
3.4972,1767
3.5000,1763
3.5028,1758
3.5056,1742
3.5083,1739
3.5111,1718
3.5139,1722
3.5167,1733
3.5194,1751
3.5222,1764
3.5250,1772
3.5278,1770
3.5306,1783
3.5333,1783
3.5361,1765
3.5389,1746
3.5417,1745
3.5444,1748
3.5472,1752
3.5500,1753
3.5528,1749
3.5556,1743
3.5583,1743
3.5611,1745
3.5639,1734
3.5667,1738
3.5694,1741
3.5722,1745
3.5750,1736
3.5778,1738
3.5806,1748
3.5833,1746
3.5861,1745
3.5889,1751
3.5917,1750
3.5944,1754
3.5972,1768
3.6000,1764
3.6028,1765
3.6056,1768
3.6083,1772
3.6111,1789
3.6139,1785
3.6167,1782
3.6194,1783
3.6222,1793
3.6250,1797
3.6278,1804
3.6306,1814
3.6333,1824
3.6361,1825
3.6389,1818
3.6417,1814
3.6444,1811
3.6472,1824
3.6500,1822
3.6528,1822
3.6556,1813
3.6583,1804
3.6611,1783
3.6639,1757
3.6667,1749
3.6694,1736
3.6722,1733
3.6750,1724
3.6778,1705
3.6806,1703
3.6833,1712
3.6861,1724
3.6889,1721
3.6917,1730
3.6944,1739
3.6972,1737
3.7000,1722
3.7028,1695
3.7056,1627
3.7083,1552
3.7111,1483
3.7139,1468
3.7167,1500
3.7194,1604
3.7222,1770
3.7250,2026
3.7278,2367
3.7306,2708
3.7333,3056
3.7361,3341
3.7389,3368
3.7417,3376
3.7444,3376
3.7472,3377
3.7500,3335
3.7528,2882
3.7556,2248
3.7583,1750
3.7611,1498
3.7639,1440
3.7667,1488
3.7694,1572
3.7722,1641
3.7750,1705
3.7778,1743
3.7806,1751
3.7833,1733
3.7861,1703
3.7889,1672
3.7917,1656
3.7944,1661
3.7972,1676
3.8000,1690
3.8028,1675
3.8056,1660
3.8083,1637
3.8111,1629
3.8139,1651
3.8167,1675
3.8194,1704
3.8222,1713
3.8250,1698
3.8278,1666
3.8306,1655
3.8333,1656
3.8361,1678
3.8389,1697
3.8417,1701
3.8444,1676
3.8472,1664
3.8500,1662
3.8528,1670
3.8556,1689
3.8583,1707
3.8611,1711
3.8639,1707
3.8667,1707
3.8694,1694
3.8722,1687
3.8750,1687
3.8778,1704
3.8806,1718
3.8833,1723
3.8861,1719
3.8889,1696
3.8917,1684
3.8944,1694
3.8972,1722
3.9000,1745
3.9028,1760
3.9056,1742
3.9083,1720
3.9111,1705
3.9139,1719
3.9167,1726
3.9194,1742
3.9222,1759
3.9250,1752
3.9278,1751
3.9306,1743
3.9333,1746
3.9361,1754
3.9389,1763
3.9417,1763
3.9444,1773
3.9472,1763
3.9500,1776
3.9528,1924
3.9556,1924
3.9583,1933
3.9611,1930
3.9639,1913
3.9667,1889
3.9694,1845
3.9722,1822
3.9750,1805
3.9778,1790
3.9806,1788
3.9833,1770
3.9861,1738
3.9889,1701
3.9917,1684
3.9944,1678
3.9972,1677
4.0000,1670
4.0028,1648
4.0056,1629
4.0083,1602
4.0111,1580
4.0139,1581
4.0167,1592
4.0194,1602
4.0222,1595
4.0250,1591
4.0278,1573
4.0306,1567
4.0333,1547
4.0361,1558
4.0389,1579
4.0417,1585
4.0444,1587
4.0472,1586
4.0500,1587
4.0528,1586
4.0556,1597
4.0583,1593
4.0611,1602
4.0639,1598
4.0667,1593
4.0694,1585
4.0722,1588
4.0750,1589
4.0778,1590
4.0806,1582
4.0833,1597
4.0861,1585
4.0889,1585
4.0917,1577
4.0944,1580
4.0972,1587
4.1000,1589
4.1028,1593
4.1056,1598
4.1083,1605
4.1111,1599
4.1139,1614
4.1167,1626
4.1194,1627
4.1222,1623
4.1250,1616
4.1278,1613
4.1306,1602
4.1333,1595
4.1361,1595
4.1389,1615
4.1417,1623
4.1444,1609
4.1472,1602
4.1500,1599
4.1528,1597
4.1556,1595
4.1583,1599
4.1611,1617
4.1639,1625
4.1667,1615
4.1694,1617
4.1722,1614
4.1750,1637
4.1778,1655
4.1806,1658
4.1833,1644
4.1861,1637
4.1889,1623
4.1917,1612
4.1944,1604
4.1972,1601
4.2000,1619
4.2028,1620
4.2056,1617
4.2083,1607
4.2111,1593
4.2139,1606
4.2167,1603
4.2194,1621
4.2222,1617
4.2250,1611
4.2278,1606
4.2306,1601
4.2333,1596
4.2361,1607
4.2389,1610
4.2417,1604
4.2444,1593
4.2472,1583
4.2500,1584
4.2528,1571
4.2556,1566
4.2583,1582
4.2611,1597
4.2639,1606
4.2667,1608
4.2694,1602
4.2722,1602
4.2750,1600
4.2778,1596
4.2806,1581
4.2833,1575
4.2861,1589
4.2889,1587
4.2917,1598
4.2944,1591
4.2972,1586
4.3000,1579
4.3028,1590
4.3056,1605
4.3083,1610
4.3111,1599
4.3139,1583
4.3167,1587
4.3194,1580
4.3222,1596
4.3250,1608
4.3278,1611
4.3306,1595
4.3333,1580
4.3361,1581
4.3389,1589
4.3417,1593
4.3444,1591
4.3472,1594
4.3500,1579
4.3528,1572
4.3556,1578
4.3583,1594
4.3611,1614
4.3639,1620
4.3667,1627
4.3694,1614
4.3722,1616
4.3750,1610
4.3778,1609
4.3806,1602
4.3833,1604
4.3861,1600
4.3889,1597
4.3917,1598
4.3944,1611
4.3972,1614
4.4000,1617
4.4028,1617
4.4056,1617
4.4083,1620
4.4111,1611
4.4139,1612
4.4167,1607
4.4194,1610
4.4222,1606
4.4250,1610
4.4278,1613
4.4306,1612
4.4333,1618
4.4361,1620
4.4389,1613
4.4417,1610
4.4444,1603
4.4472,1609
4.4500,1611
4.4528,1622
4.4556,1630
4.4583,1633
4.4611,1621
4.4639,1608
4.4667,1609
4.4694,1606
4.4722,1612
4.4750,1619
4.4778,1616
4.4806,1632
4.4833,1647
4.4861,1653
4.4889,1646
4.4917,1650
4.4944,1643
4.4972,1647
4.5000,1644
4.5028,1640
4.5056,1657
4.5083,1682
4.5111,1687
4.5139,1686
4.5167,1690
4.5194,1691
4.5222,1715
4.5250,1713
4.5278,1694
4.5306,1681
4.5333,1677
4.5361,1689
4.5389,1708
4.5417,1699
4.5444,1696
4.5472,1684
4.5500,1696
4.5528,1701
4.5556,1723
4.5583,1748
4.5611,1758
4.5639,1743
4.5667,1717
4.5694,1692
4.5722,1691
4.5750,1707
4.5778,1728
4.5806,1732
4.5833,1727
4.5861,1734
4.5889,1753
4.5917,1764
4.5944,1747
4.5972,1744
4.6000,1737
4.6028,1742
4.6056,1733
4.6083,1737
4.6111,1739
4.6139,1728
4.6167,1730
4.6194,1736
4.6222,1737
4.6250,1739
4.6278,1732
4.6306,1739
4.6333,1735
4.6361,1737
4.6389,1747
4.6417,1743
4.6444,1754
4.6472,1766
4.6500,1790
4.6528,1812
4.6556,1808
4.6583,1801
4.6611,1781
4.6639,1770
4.6667,1780
4.6694,1807
4.6722,1836
4.6750,1858
4.6778,1856
4.6806,1851
4.6833,1840
4.6861,1826
4.6889,1809
4.6917,1788
4.6944,1761
4.6972,1752
4.7000,1746
4.7028,1742
4.7056,1731
4.7083,1718
4.7111,1701
4.7139,1688
4.7167,1684
4.7194,1682
4.7222,1689
4.7250,1709
4.7278,1718
4.7306,1724
4.7333,1727
4.7361,1722
4.7389,1706
4.7417,1674
4.7444,1611
4.7472,1531
4.7500,1458
4.7528,1435
4.7556,1492
4.7583,1608
4.7611,1784
4.7639,2031
4.7667,2354
4.7694,2710
4.7722,3084
4.7750,3350
4.7778,3362
4.7806,3385
4.7833,3389
4.7861,3380
4.7889,3346
4.7917,2972
4.7944,2342
4.7972,1822
4.8000,1539
4.8028,1457
4.8056,1498
4.8083,1593
4.8111,1678
4.8139,1749
4.8167,1782
4.8194,1784
4.8222,1758
4.8250,1703
4.8278,1661
4.8306,1652
4.8333,1659
4.8361,1691
4.8389,1715
4.8417,1711
4.8444,1682
4.8472,1646
4.8500,1619
4.8528,1623
4.8556,1642
4.8583,1676
4.8611,1698
4.8639,1697
4.8667,1662
4.8694,1633
4.8722,1615
4.8750,1617
4.8778,1648
4.8806,1682
4.8833,1689
4.8861,1666
4.8889,1640
4.8917,1641
4.8944,1653
4.8972,1668
4.9000,1678
4.9028,1670
4.9056,1660
4.9083,1646
4.9111,1653
4.9139,1665
4.9167,1702
4.9194,1711
4.9222,1703
4.9250,1689
4.9278,1685
4.9306,1680
4.9333,1691
4.9361,1713
4.9389,1710
4.9417,1710
4.9444,1705
4.9472,1695
4.9500,1688
4.9528,1692
4.9556,1696
4.9583,1713
4.9611,1715
4.9639,1732
4.9667,1733
4.9694,1737
4.9722,1728
4.9750,1751
4.9778,1760
4.9806,1769
4.9833,1764
4.9861,1757
4.9889,1756
4.9917,1914
4.9944,1923
4.9972,1932
5.0000,1929
5.0028,1929
5.0056,1912
5.0083,1903
5.0111,1890
5.0139,1882
5.0167,1858
5.0194,1827
5.0222,1801
5.0250,1784
5.0278,1769
5.0306,1739
5.0333,1716
5.0361,1695
5.0389,1685
5.0417,1688
5.0444,1668
5.0472,1647
5.0500,1639
5.0528,1640
5.0556,1625
5.0583,1619
5.0611,1613
5.0639,1607
5.0667,1598
5.0694,1583
5.0722,1588
5.0750,1595
5.0778,1601
5.0806,1608
5.0833,1626
5.0861,1628
5.0889,1625
5.0917,1601
5.0944,1592
5.0972,1593
5.1000,1591
5.1028,1603
5.1056,1612
5.1083,1595
5.1111,1586
5.1139,1593
5.1167,1610
5.1194,1631
5.1222,1628
5.1250,1614
5.1278,1603
5.1306,1598
5.1333,1607
5.1361,1609
5.1389,1629
5.1417,1636
5.1444,1641
5.1472,1618
5.1500,1610
5.1528,1610
5.1556,1621
5.1583,1632
5.1611,1653
5.1639,1657
5.1667,1644
5.1694,1634
5.1722,1638
5.1750,1645
5.1778,1661
5.1806,1661
5.1833,1640
5.1861,1615
5.1889,1606
5.1917,1618
5.1944,1630
5.1972,1654
5.2000,1671
5.2028,1680
5.2056,1678
5.2083,1652
5.2111,1636
5.2139,1638
5.2167,1657
5.2194,1677
5.2222,1674
5.2250,1679
5.2278,1673
5.2306,1675
5.2333,1681
5.2361,1673
5.2389,1666
5.2417,1659
5.2444,1641
5.2472,1627
5.2500,1625
5.2528,1636
5.2556,1666
5.2583,1678
5.2611,1684
5.2639,1676
5.2667,1672
5.2694,1670
5.2722,1669
5.2750,1658
5.2778,1663
5.2806,1664
5.2833,1679
5.2861,1688
5.2889,1667
5.2917,1648
5.2944,1640
5.2972,1660
5.3000,1667
5.3028,1679
5.3056,1697
5.3083,1697
5.3111,1691
5.3139,1690
5.3167,1673
5.3194,1674
5.3222,1670
5.3250,1654
5.3278,1660
5.3306,1666
5.3333,1680
5.3361,1678
5.3389,1672
5.3417,1665
5.3444,1666
5.3472,1661
5.3500,1673
5.3528,1691
5.3556,1704
5.3583,1708
5.3611,1703
5.3639,1698
5.3667,1680
5.3694,1664
5.3722,1662
5.3750,1675
5.3778,1696
5.3806,1685
5.3833,1660
5.3861,1665
5.3889,1690
5.3917,1710
5.3944,1723
5.3972,1716
5.4000,1716
5.4028,1710
5.4056,1700
5.4083,1697
5.4111,1690
5.4139,1684
5.4167,1688
5.4194,1692
5.4222,1686
5.4250,1668
5.4278,1654
5.4306,1655
5.4333,1673
5.4361,1703
5.4389,1728
5.4417,1732
5.4444,1719
5.4472,1699
5.4500,1681
5.4528,1685
5.4556,1683
5.4583,1704
5.4611,1720
5.4639,1721
5.4667,1730
5.4694,1715
5.4722,1705
5.4750,1699
5.4778,1685
5.4806,1675
5.4833,1686
5.4861,1708
5.4889,1710
5.4917,1713
5.4944,1710
5.4972,1701
5.5000,1705
5.5028,1701
5.5056,1698
5.5083,1700
5.5111,1700
5.5139,1703
5.5167,1696
5.5194,1705
5.5222,1703
5.5250,1699
5.5278,1688
5.5306,1691
5.5333,1683
5.5361,1683
5.5389,1683
5.5417,1698
5.5444,1713
5.5472,1718
5.5500,1716
5.5528,1717
5.5556,1715
5.5583,1709
5.5611,1705
5.5639,1701
5.5667,1708
5.5694,1714
5.5722,1714
5.5750,1727
5.5778,1723
5.5806,1726
5.5833,1718
5.5861,1705
5.5889,1724
5.5917,1730
5.5944,1736
5.5972,1729
5.6000,1721
5.6028,1712
5.6056,1699
5.6083,1713
5.6111,1721
5.6139,1727
5.6167,1734
5.6194,1733
5.6222,1727
5.6250,1717
5.6278,1698
5.6306,1699
5.6333,1714
5.6361,1745
5.6389,1768
5.6417,1784
5.6444,1796
5.6472,1791
5.6500,1777
5.6528,1769
5.6556,1766
5.6583,1758
5.6611,1763
5.6639,1791
5.6667,1810
5.6694,1815
5.6722,1818
5.6750,1819
5.6778,1817
5.6806,1818
5.6833,1819
5.6861,1810
5.6889,1807
5.6917,1801
5.6944,1788
5.6972,1774
5.7000,1767
5.7028,1762
5.7056,1748
5.7083,1736
5.7111,1727
5.7139,1718
5.7167,1709
5.7194,1723
5.7222,1716
5.7250,1707
5.7278,1718
5.7306,1720
5.7333,1722
5.7361,1692
5.7389,1655
5.7417,1573
5.7444,1480
5.7472,1414
5.7500,1389
5.7528,1447
5.7556,1574
5.7583,1748
5.7611,2010
5.7639,2334
5.7667,2691
5.7694,3034
5.7722,3338
5.7750,3355
5.7778,3367
5.7806,3378
5.7833,3383
5.7861,3249
5.7889,2717
5.7917,2094
5.7944,1632
5.7972,1421
5.8000,1388
5.8028,1447
5.8056,1540
5.8083,1605
5.8111,1653
5.8139,1698
5.8167,1722
5.8194,1716
5.8222,1689
5.8250,1678
5.8278,1657
5.8306,1645
5.8333,1641
5.8361,1641
5.8389,1649
5.8417,1649
5.8444,1645
5.8472,1648
5.8500,1651
5.8528,1660
5.8556,1650
5.8583,1654
5.8611,1647
5.8639,1646
5.8667,1650
5.8694,1672
5.8722,1685
5.8750,1690
5.8778,1693
5.8806,1691
5.8833,1676
5.8861,1667
5.8889,1670
5.8917,1665
5.8944,1684
5.8972,1679
5.9000,1679
5.9028,1661
5.9056,1642
5.9083,1651
5.9111,1670
5.9139,1691
5.9167,1703
5.9194,1696
5.9222,1688
5.9250,1670
5.9278,1668
5.9306,1673
5.9333,1687
5.9361,1711
5.9389,1726
5.9417,1711
5.9444,1686
5.9472,1676
5.9500,1694
5.9528,1710
5.9556,1723
5.9583,1724
5.9611,1719
5.9639,1724
5.9667,1733
5.9694,1733
5.9722,1751
5.9750,1777
5.9778,1782
5.9806,1779
5.9833,1776
5.9861,1774
5.9889,1921
5.9917,1924
5.9944,1938
5.9972,1947
6.0000,1939
6.0028,1926
6.0056,1897
6.0083,1870
6.0111,1855
6.0139,1842
6.0167,1831
6.0194,1816
6.0222,1774
6.0250,1745
6.0278,1719
6.0306,1711
6.0333,1699
6.0361,1681
6.0389,1659
6.0417,1646
6.0444,1640
6.0472,1626
6.0500,1640
6.0528,1637
6.0556,1630
6.0583,1628
6.0611,1623
6.0639,1605
6.0667,1596
6.0694,1599
6.0722,1613
6.0750,1622
6.0778,1631
6.0806,1641
6.0833,1631
6.0861,1631
6.0889,1614
6.0917,1608
6.0944,1602
6.0972,1613
6.1000,1623
6.1028,1622
6.1056,1621
6.1083,1620
6.1111,1623
6.1139,1645
6.1167,1649
6.1194,1656
6.1222,1660
6.1250,1663
6.1278,1668
6.1306,1666
6.1333,1673
6.1361,1675
6.1389,1663
6.1417,1644
6.1444,1639
6.1472,1637
6.1500,1647
6.1528,1678
6.1556,1689
6.1583,1699
6.1611,1699
6.1639,1693
6.1667,1694
6.1694,1701
6.1722,1715
6.1750,1719
6.1778,1729
6.1806,1724
6.1833,1720
6.1861,1710
6.1889,1718
6.1917,1725
6.1944,1737
6.1972,1743
6.2000,1745
6.2028,1743
6.2056,1736
6.2083,1733
6.2111,1730
6.2139,1726
6.2167,1736
6.2194,1742
6.2222,1737
6.2250,1732
6.2278,1720
6.2306,1721
6.2333,1727
6.2361,1723
6.2389,1720
6.2417,1716
6.2444,1690
6.2472,1671
6.2500,1674
6.2528,1712
6.2556,1734
6.2583,1738
6.2611,1734
6.2639,1729
6.2667,1727
6.2694,1728
6.2722,1744
6.2750,1742
6.2778,1734
6.2806,1722
6.2833,1718
6.2861,1705
6.2889,1705
6.2917,1706
6.2944,1702
6.2972,1701
6.3000,1692
6.3028,1665
6.3056,1656
6.3083,1654
6.3111,1658
6.3139,1665
6.3167,1674
6.3194,1686
6.3222,1689
6.3250,1688
6.3278,1694
6.3306,1690
6.3333,1690
6.3361,1689
6.3389,1687
6.3417,1685
6.3444,1687
6.3472,1691
6.3500,1678
6.3528,1673
6.3556,1672
6.3583,1663
6.3611,1668
6.3639,1679
6.3667,1692
6.3694,1692
6.3722,1683
6.3750,1673
6.3778,1676
6.3806,1686
6.3833,1698
6.3861,1708
6.3889,1704
6.3917,1708
6.3944,1700
6.3972,1692
6.4000,1692
6.4028,1703
6.4056,1702
6.4083,1696
6.4111,1687
6.4139,1697
6.4167,1709
6.4194,1710
6.4222,1711
6.4250,1709
6.4278,1698
6.4306,1700
6.4333,1693
6.4361,1700
6.4389,1715
6.4417,1705
6.4444,1711
6.4472,1707
6.4500,1704
6.4528,1703
6.4556,1696
6.4583,1702
6.4611,1706
6.4639,1711
6.4667,1714
6.4694,1719
6.4722,1730
6.4750,1734
6.4778,1739
6.4806,1746
6.4833,1743
6.4861,1737
6.4889,1726
6.4917,1717
6.4944,1724
6.4972,1712
6.5000,1710
6.5028,1708
6.5056,1715
6.5083,1721
6.5111,1719
6.5139,1714
6.5167,1710
6.5194,1708
6.5222,1708
6.5250,1701
6.5278,1691
6.5306,1683
6.5333,1680
6.5361,1688
6.5389,1703
6.5417,1696
6.5444,1706
6.5472,1704
6.5500,1702
6.5528,1702
6.5556,1692
6.5583,1682
6.5611,1676
6.5639,1661
6.5667,1649
6.5694,1648
6.5722,1659
6.5750,1678
6.5778,1688
6.5806,1698
6.5833,1693
6.5861,1684
6.5889,1679
6.5917,1670
6.5944,1660
6.5972,1656
6.6000,1670
6.6028,1676
6.6056,1679
6.6083,1681
6.6111,1683
6.6139,1681
6.6167,1684
6.6194,1684
6.6222,1687
6.6250,1698
6.6278,1690
6.6306,1695
6.6333,1692
6.6361,1692
6.6389,1695
6.6417,1698
6.6444,1701
6.6472,1704
6.6500,1708
6.6528,1713
6.6556,1709
6.6583,1713
6.6611,1710
6.6639,1699
6.6667,1707
6.6694,1718
6.6722,1715
6.6750,1715
6.6778,1716
6.6806,1723
6.6833,1726
6.6861,1730
6.6889,1720
6.6917,1711
6.6944,1716
6.6972,1720
6.7000,1726
6.7028,1753
6.7056,1755
6.7083,1760
6.7111,1757
6.7139,1769
6.7167,1765
6.7194,1750
6.7222,1751
6.7250,1763
6.7278,1784
6.7306,1806
6.7333,1818
6.7361,1809
6.7389,1797
6.7417,1781
6.7444,1767
6.7472,1764
6.7500,1750
6.7528,1744
6.7556,1730
6.7583,1722
6.7611,1696
6.7639,1672
6.7667,1668
6.7694,1659
6.7722,1661
6.7750,1663
6.7778,1676
6.7806,1680
6.7833,1686
6.7861,1674
6.7889,1686
6.7917,1675
6.7944,1682
6.7972,1669
6.8000,1621
6.8028,1526
6.8056,1429
6.8083,1372
6.8111,1390
6.8139,1468
6.8167,1593
6.8194,1777
6.8222,2053
6.8250,2392
6.8278,2738
6.8306,3098
6.8333,3355
6.8361,3368
6.8389,3365
6.8417,3381
6.8444,3367
6.8472,3127
6.8500,2532
6.8528,1927
6.8556,1532
6.8583,1383
6.8611,1402
6.8639,1485
6.8667,1552
6.8694,1623
6.8722,1674
6.8750,1712
6.8778,1709
6.8806,1688
6.8833,1653
6.8861,1633
6.8889,1622
6.8917,1632
6.8944,1644
6.8972,1649
6.9000,1647
6.9028,1623
6.9056,1617
6.9083,1614
6.9111,1635
6.9139,1659
6.9167,1678
6.9194,1658
6.9222,1641
6.9250,1632
6.9278,1617
6.9306,1635
6.9333,1666
6.9361,1691
6.9389,1699
6.9417,1686
6.9444,1677
6.9472,1666
6.9500,1681
6.9528,1683
6.9556,1688
6.9583,1690
6.9611,1677
6.9639,1670
6.9667,1670
6.9694,1686
6.9722,1703
6.9750,1718
6.9778,1719
6.9806,1710
6.9833,1687
6.9861,1686
6.9889,1692
6.9917,1714
6.9944,1731
6.9972,1739
7.0000,1721
7.0028,1724
7.0056,1717
7.0083,1726
7.0111,1738
7.0139,1763
7.0167,1764
7.0194,1772
7.0222,1751
7.0250,1722
7.0278,1724
7.0306,1747
7.0333,1775
7.0361,1801
7.0389,1804
7.0417,1814
7.0444,1807
7.0472,1887
7.0500,1895
7.0528,1905
7.0556,1914
7.0583,1919
7.0611,1903
7.0639,1872
7.0667,1851
7.0694,1821
7.0722,1790
7.0750,1774
7.0778,1768
7.0806,1762
7.0833,1738
7.0861,1705
7.0889,1682
7.0917,1668
7.0944,1653
7.0972,1636
7.1000,1622
7.1028,1598
7.1056,1599
7.1083,1594
7.1111,1601
7.1139,1624
7.1167,1647
7.1194,1652
7.1222,1650
7.1250,1639
7.1278,1645
7.1306,1659
7.1333,1675
7.1361,1693
7.1389,1689
7.1417,1689
7.1444,1701
7.1472,1698
7.1500,1708
7.1528,1725
7.1556,1728
7.1583,1732
7.1611,1725
7.1639,1722
7.1667,1723
7.1694,1735
7.1722,1733
7.1750,1729
7.1778,1736
7.1806,1734
7.1833,1743
7.1861,1745
7.1889,1745
7.1917,1755
7.1944,1762
7.1972,1768
7.2000,1778
7.2028,1779
7.2056,1764
7.2083,1770
7.2111,1787
7.2139,1804
7.2167,1804
7.2194,1807
7.2222,1796
7.2250,1776
7.2278,1779
7.2306,1779
7.2333,1792
7.2361,1800
7.2389,1801
7.2417,1803
7.2444,1791
7.2472,1781
7.2500,1787
7.2528,1791
7.2556,1803
7.2583,1808
7.2611,1801
7.2639,1781
7.2667,1773
7.2694,1786
7.2722,1812
7.2750,1810
7.2778,1815
7.2806,1820
7.2833,1822
7.2861,1816
7.2889,1808
7.2917,1795
7.2944,1780
7.2972,1771
7.3000,1775
7.3028,1773
7.3056,1786
7.3083,1779
7.3111,1789
7.3139,1778
7.3167,1777
7.3194,1769
7.3222,1787
7.3250,1791
7.3278,1784
7.3306,1784
7.3333,1790
7.3361,1782
7.3389,1785
7.3417,1795
7.3444,1794
7.3472,1790
7.3500,1795
7.3528,1779
7.3556,1769
7.3583,1759
7.3611,1751
7.3639,1755
7.3667,1764
7.3694,1769
7.3722,1778
7.3750,1765
7.3778,1757
7.3806,1749
7.3833,1746
7.3861,1751
7.3889,1757
7.3917,1757
7.3944,1753
7.3972,1751
7.4000,1750
7.4028,1751
7.4056,1756
7.4083,1747
7.4111,1755
7.4139,1751
7.4167,1744
7.4194,1736
7.4222,1730
7.4250,1736
7.4278,1739
7.4306,1750
7.4333,1769
7.4361,1781
7.4389,1777
7.4417,1761
7.4444,1745
7.4472,1731
7.4500,1730
7.4528,1733
7.4556,1749
7.4583,1752
7.4611,1750
7.4639,1740
7.4667,1735
7.4694,1739
7.4722,1743
7.4750,1759
7.4778,1752
7.4806,1743
7.4833,1746
7.4861,1729
7.4889,1723
7.4917,1723
7.4944,1746
7.4972,1750
7.5000,1753
7.5028,1744
7.5056,1739
7.5083,1726
7.5111,1724
7.5139,1729
7.5167,1741
7.5194,1741
7.5222,1732
7.5250,1719
7.5278,1711
7.5306,1712
7.5333,1721
7.5361,1741
7.5389,1741
7.5417,1744
7.5444,1736
7.5472,1726
7.5500,1719
7.5528,1720
7.5556,1730
7.5583,1744
7.5611,1744
7.5639,1738
7.5667,1715
7.5694,1705
7.5722,1699
7.5750,1707
7.5778,1712
7.5806,1733
7.5833,1737
7.5861,1731
7.5889,1711
7.5917,1703
7.5944,1702
7.5972,1707
7.6000,1720
7.6028,1714
7.6056,1722
7.6083,1701
7.6111,1696
7.6139,1709
7.6167,1734
7.6194,1742
7.6222,1749
7.6250,1749
7.6278,1739
7.6306,1729
7.6333,1726
7.6361,1730
7.6389,1724
7.6417,1722
7.6444,1722
7.6472,1731
7.6500,1748
7.6528,1748
7.6556,1749
7.6583,1733
7.6611,1718
7.6639,1714
7.6667,1733
7.6694,1752
7.6722,1769
7.6750,1775
7.6778,1760
7.6806,1752
7.6833,1746
7.6861,1766
7.6889,1792
7.6917,1799
7.6944,1788
7.6972,1786
7.7000,1787
7.7028,1798
7.7056,1804
7.7083,1800
7.7111,1792
7.7139,1775
7.7167,1763
7.7194,1761
7.7222,1771
7.7250,1780
7.7278,1768
7.7306,1785
7.7333,1796
7.7361,1794
7.7389,1794
7.7417,1794
7.7444,1790
7.7472,1784
7.7500,1785
7.7528,1784
7.7556,1777
7.7583,1759
7.7611,1748
7.7639,1750
7.7667,1767
7.7694,1783
7.7722,1792
7.7750,1785
7.7778,1784
7.7806,1784
7.7833,1790
7.7861,1795
7.7889,1802
7.7917,1811
7.7944,1811
7.7972,1803
7.8000,1793
7.8028,1798
7.8056,1795
7.8083,1803
7.8111,1828
7.8139,1851
7.8167,1872
7.8194,1886
7.8222,1878
7.8250,1872
7.8278,1868
7.8306,1853
7.8333,1827
7.8361,1812
7.8389,1812
7.8417,1806
7.8444,1794
7.8472,1766
7.8500,1729
7.8528,1722
7.8556,1729
7.8583,1741
7.8611,1747
7.8639,1746
7.8667,1722
7.8694,1712
7.8722,1702
7.8750,1701
7.8778,1701
7.8806,1689
7.8833,1666
7.8861,1629
7.8889,1565
7.8917,1478
7.8944,1387
7.8972,1327
7.9000,1324
7.9028,1391
7.9056,1513
7.9083,1718
7.9111,2015
7.9139,2345
7.9167,2685
7.9194,3017
7.9222,3320
7.9250,3350
7.9278,3365
7.9306,3366
7.9333,3249
7.9361,2723
7.9389,2103
7.9417,1604
7.9444,1321
7.9472,1237
7.9500,1280
7.9528,1382
7.9556,1474
7.9583,1539
7.9611,1586
7.9639,1605
7.9667,1601
7.9694,1569
7.9722,1542
7.9750,1526
7.9778,1544
7.9806,1582
7.9833,1604
7.9861,1616
7.9889,1616
7.9917,1601
7.9944,1578
7.9972,1569
8.0000,1586
8.0028,1609
8.0056,1632
8.0083,1637
8.0111,1640
8.0139,1636
8.0167,1644
8.0194,1656
8.0222,1664
8.0250,1657
8.0278,1640
8.0306,1621
8.0333,1622
8.0361,1631
8.0389,1654
8.0417,1672
8.0444,1672
8.0472,1664
8.0500,1647
8.0528,1636
8.0556,1656
8.0583,1674
8.0611,1700
8.0639,1707
8.0667,1693
8.0694,1669
8.0722,1674
8.0750,1671
8.0778,1679
8.0806,1696
8.0833,1698
8.0861,1701
8.0889,1697
8.0917,1696
8.0944,1693
8.0972,1699
8.1000,1706
8.1028,1715
8.1056,1715
8.1083,1701
8.1111,1687
8.1139,1697
8.1167,1713
8.1194,1733
8.1222,1734
8.1250,1742
8.1278,1742
8.1306,1755
8.1333,1771
8.1361,2001
8.1389,2006
8.1417,2023
8.1444,2023
8.1472,2017
8.1500,1983
8.1528,1965
8.1556,1934
8.1583,1922
8.1611,1905
8.1639,1875
8.1667,1848
8.1694,1823
8.1722,1804
8.1750,1793
8.1778,1771
8.1806,1728
8.1833,1703
8.1861,1697
8.1889,1697
8.1917,1689
8.1944,1684
8.1972,1674
8.2000,1650
8.2028,1623
8.2056,1607
8.2083,1588
8.2111,1588
8.2139,1595
8.2167,1591
8.2194,1595
8.2222,1598
8.2250,1602
8.2278,1595
8.2306,1588
8.2333,1594
8.2361,1579
8.2389,1585
8.2417,1587
8.2444,1585
8.2472,1584
8.2500,1577
8.2528,1575
8.2556,1548
8.2583,1541
8.2611,1541
8.2639,1544
8.2667,1527
8.2694,1520
8.2722,1518
8.2750,1514
8.2778,1520
8.2806,1524
8.2833,1525
8.2861,1508
8.2889,1503
8.2917,1492
8.2944,1490
8.2972,1490
8.3000,1509
8.3028,1506
8.3056,1508
8.3083,1501
8.3111,1503
8.3139,1487
8.3167,1475
8.3194,1472
8.3222,1475
8.3250,1488
8.3278,1483
8.3306,1477
8.3333,1487
8.3361,1482
8.3389,1480
8.3417,1474
8.3444,1478
8.3472,1478
8.3500,1481
8.3528,1496
8.3556,1498
8.3583,1504
8.3611,1511
8.3639,1510
8.3667,1508
8.3694,1512
8.3722,1507
8.3750,1494
8.3778,1504
8.3806,1509
8.3833,1512
8.3861,1512
8.3889,1501
8.3917,1500
8.3944,1511
8.3972,1508
8.4000,1526
8.4028,1529
8.4056,1535
8.4083,1526
8.4111,1514
8.4139,1503
8.4167,1503
8.4194,1515
8.4222,1531
8.4250,1550
8.4278,1551
8.4306,1543
8.4333,1532
8.4361,1518
8.4389,1523
8.4417,1539
8.4444,1557
8.4472,1565
8.4500,1575
8.4528,1574
8.4556,1571
8.4583,1575
8.4611,1576
8.4639,1578
8.4667,1581
8.4694,1583
8.4722,1588
8.4750,1586
8.4778,1593
8.4806,1596
8.4833,1604
8.4861,1613
8.4889,1616
8.4917,1614
8.4944,1618
8.4972,1628
8.5000,1633
8.5028,1635
8.5056,1640
8.5083,1634
8.5111,1629
8.5139,1618
8.5167,1610
8.5194,1616
8.5222,1619
8.5250,1641
8.5278,1646
8.5306,1654
8.5333,1649
8.5361,1652
8.5389,1656
8.5417,1651
8.5444,1646
8.5472,1646
8.5500,1635
8.5528,1638
8.5556,1632
8.5583,1638
8.5611,1648
8.5639,1647
8.5667,1638
8.5694,1631
8.5722,1634
8.5750,1635
8.5778,1655
8.5806,1661
8.5833,1677
8.5861,1672
8.5889,1652
8.5917,1643
8.5944,1642
8.5972,1649
8.6000,1669
8.6028,1676
8.6056,1670
8.6083,1674
8.6111,1667
8.6139,1682
8.6167,1698
8.6194,1704
8.6222,1720
8.6250,1709
8.6278,1715
8.6306,1712
8.6333,1709
8.6361,1706
8.6389,1715
8.6417,1719
8.6444,1726
8.6472,1730
8.6500,1734
8.6528,1737
8.6556,1737
8.6583,1727
8.6611,1727
8.6639,1717
8.6667,1719
8.6694,1720
8.6722,1715
8.6750,1716
8.6778,1727
8.6806,1728
8.6833,1741
8.6861,1744
8.6889,1753
8.6917,1756
8.6944,1756
8.6972,1758
8.7000,1759
8.7028,1754
8.7056,1761
8.7083,1760
8.7111,1762
8.7139,1756
8.7167,1753
8.7194,1758
8.7222,1765
8.7250,1780
8.7278,1781
8.7306,1783
8.7333,1773
8.7361,1773
8.7389,1792
8.7417,1798
8.7444,1797
8.7472,1781
8.7500,1775
8.7528,1774
8.7556,1786
8.7583,1790
8.7611,1795
8.7639,1800
8.7667,1804
8.7694,1800
8.7722,1791
8.7750,1795
8.7778,1790
8.7806,1789
8.7833,1786
8.7861,1794
8.7889,1797
8.7917,1796
8.7944,1803
8.7972,1817
8.8000,1808
8.8028,1796
8.8056,1802
8.8083,1783
8.8111,1769
8.8139,1771
8.8167,1770
8.8194,1804
8.8222,1811
8.8250,1812
8.8278,1792
8.8306,1775
8.8333,1763
8.8361,1756
8.8389,1766
8.8417,1769
8.8444,1778
8.8472,1767
8.8500,1764
8.8528,1765
8.8556,1766
8.8583,1767
8.8611,1780
8.8639,1787
8.8667,1795
8.8694,1811
8.8722,1816
8.8750,1820
8.8778,1824
8.8806,1814
8.8833,1822
8.8861,1834
8.8889,1859
8.8917,1875
8.8944,1868
8.8972,1852
8.9000,1835
8.9028,1832
8.9056,1820
8.9083,1816
8.9111,1810
8.9139,1796
8.9167,1790
8.9194,1791
8.9222,1776
8.9250,1765
8.9278,1750
8.9306,1735
8.9333,1723
8.9361,1722
8.9389,1721
8.9417,1727
8.9444,1715
8.9472,1718
8.9500,1716
8.9528,1724
8.9556,1717
8.9583,1716
8.9611,1697
8.9639,1642
8.9667,1557
8.9694,1471
8.9722,1412
8.9750,1414
8.9778,1465
8.9806,1586
8.9833,1778
8.9861,2049
8.9889,2403
8.9917,2765
8.9944,3103
8.9972,3354
9.0000,3362
9.0028,3365
9.0056,3369
9.0083,3370
9.0111,3162
9.0139,2589
9.0167,1988
9.0194,1595
9.0222,1421
9.0250,1410
9.0278,1484
9.0306,1570
9.0333,1644
9.0361,1709
9.0389,1735
9.0417,1739
9.0444,1707
9.0472,1670
9.0500,1641
9.0528,1629
9.0556,1633
9.0583,1665
9.0611,1688
9.0639,1673
9.0667,1658
9.0694,1633
9.0722,1625
9.0750,1623
9.0778,1654
9.0806,1677
9.0833,1689
9.0861,1684
9.0889,1669
9.0917,1658
9.0944,1665
9.0972,1673
9.1000,1674
9.1028,1668
9.1056,1666
9.1083,1655
9.1111,1649
9.1139,1655
9.1167,1666
9.1194,1669
9.1222,1672
9.1250,1656
9.1278,1648
9.1306,1631
9.1333,1646
9.1361,1657
9.1389,1676
9.1417,1689
9.1444,1690
9.1472,1674
9.1500,1665
9.1528,1659
9.1556,1671
9.1583,1677
9.1611,1684
9.1639,1681
9.1667,1675
9.1694,1670
9.1722,1676
9.1750,1688
9.1778,1691
9.1806,1691
9.1833,1687
9.1861,1691
9.1889,1689
9.1917,1694
9.1944,1699
9.1972,1719
9.2000,1713
9.2028,1718
9.2056,1718
9.2083,1720
9.2111,1929
9.2139,1936
9.2167,1945
9.2194,1953
9.2222,1948
9.2250,1928
9.2278,1881
9.2306,1841
9.2333,1832
9.2361,1836
9.2389,1845
9.2417,1828
9.2444,1793
9.2472,1750
9.2500,1718
9.2528,1697
9.2556,1683
9.2583,1686
9.2611,1678
9.2639,1673
9.2667,1653
9.2694,1628
9.2722,1590
9.2750,1580
9.2778,1578
9.2806,1593
9.2833,1590
9.2861,1580
9.2889,1563
9.2917,1542
9.2944,1540
9.2972,1540
9.3000,1543
9.3028,1546
9.3056,1528
9.3083,1515
9.3111,1521
9.3139,1531
9.3167,1545
9.3194,1529
9.3222,1534
9.3250,1518
9.3278,1507
9.3306,1502
9.3333,1508
9.3361,1528
9.3389,1553
9.3417,1556
9.3444,1546
9.3472,1533
9.3500,1521
9.3528,1525
9.3556,1537
9.3583,1554
9.3611,1569
9.3639,1574
9.3667,1557
9.3694,1551
9.3722,1554
9.3750,1564
9.3778,1581
9.3806,1603
9.3833,1597
9.3861,1594
9.3889,1594
9.3917,1591
9.3944,1596
9.3972,1599
9.4000,1596
9.4028,1602
9.4056,1609
9.4083,1610
9.4111,1600
9.4139,1597
9.4167,1605
9.4194,1610
9.4222,1618
9.4250,1609
9.4278,1609
9.4306,1602
9.4333,1606
9.4361,1616
9.4389,1621
9.4417,1632
9.4444,1624
9.4472,1620
9.4500,1618
9.4528,1619
9.4556,1622
9.4583,1630
9.4611,1623
9.4639,1619
9.4667,1604
9.4694,1596
9.4722,1610
9.4750,1617
9.4778,1628
9.4806,1637
9.4833,1625
9.4861,1616
9.4889,1608
9.4917,1603
9.4944,1595
9.4972,1598
9.5000,1593
9.5028,1600
9.5056,1600
9.5083,1599
9.5111,1595
9.5139,1602
9.5167,1599
9.5194,1592
9.5222,1591
9.5250,1594
9.5278,1600
9.5306,1601
9.5333,1618
9.5361,1622
9.5389,1616
9.5417,1624
9.5444,1616
9.5472,1615
9.5500,1620
9.5528,1621
9.5556,1619
9.5583,1626
9.5611,1635
9.5639,1630
9.5667,1639
9.5694,1630
9.5722,1623
9.5750,1630
9.5778,1642
9.5806,1650
9.5833,1651
9.5861,1655
9.5889,1654
9.5917,1652
9.5944,1647
9.5972,1654
9.6000,1646
9.6028,1638
9.6056,1647
9.6083,1643
9.6111,1645
9.6139,1640
9.6167,1634
9.6194,1638
9.6222,1648
9.6250,1648
9.6278,1642
9.6306,1643
9.6333,1648
9.6361,1648
9.6389,1643
9.6417,1635
9.6444,1619
9.6472,1617
9.6500,1632
9.6528,1639
9.6556,1656
9.6583,1666
9.6611,1657
9.6639,1654
9.6667,1650
9.6694,1646
9.6722,1647
9.6750,1663
9.6778,1671
9.6806,1669
9.6833,1657
9.6861,1647
9.6889,1640
9.6917,1635
9.6944,1646
9.6972,1669
9.7000,1669
9.7028,1670
9.7056,1661
9.7083,1654
9.7111,1652
9.7139,1645
9.7167,1645
9.7194,1658
9.7222,1659
9.7250,1661
9.7278,1649
9.7306,1641
9.7333,1650
9.7361,1667
9.7389,1672
9.7417,1671
9.7444,1659
9.7472,1652
9.7500,1651
9.7528,1650
9.7556,1655
9.7583,1668
9.7611,1667
9.7639,1676
9.7667,1680
9.7694,1682
9.7722,1672
9.7750,1683
9.7778,1689
9.7806,1691
9.7833,1678
9.7861,1678
9.7889,1673
9.7917,1676
9.7944,1672
9.7972,1683
9.8000,1693
9.8028,1691
9.8056,1705
9.8083,1701
9.8111,1688
9.8139,1690
9.8167,1693
9.8194,1706
9.8222,1713
9.8250,1722
9.8278,1711
9.8306,1706
9.8333,1702
9.8361,1699
9.8389,1699
9.8417,1706
9.8444,1707
9.8472,1712
9.8500,1702
9.8528,1685
9.8556,1687
9.8583,1695
9.8611,1713
9.8639,1727
9.8667,1732
9.8694,1731
9.8722,1733
9.8750,1722
9.8778,1705
9.8806,1688
9.8833,1697
9.8861,1721
9.8889,1734
9.8917,1748
9.8944,1746
9.8972,1744
9.9000,1734
9.9028,1735
9.9056,1741
9.9083,1743
9.9111,1751
9.9139,1742
9.9167,1735
9.9194,1729
9.9222,1725
9.9250,1726
9.9278,1718
9.9306,1717
9.9333,1732
9.9361,1737
9.9389,1742
9.9417,1735
9.9444,1740
9.9472,1742
9.9500,1750
9.9528,1743
9.9556,1735
9.9583,1729
9.9611,1732
9.9639,1748
9.9667,1747
9.9694,1740
9.9722,1725
9.9750,1719
9.9778,1724
9.9806,1741
9.9833,1769
9.9861,1775
9.9889,1781
9.9917,1789
9.9944,1790
9.9972,1790
10.0000,1789
10.0028,1786
10.0056,1793
10.0083,1797
10.0111,1794
10.0139,1797
10.0167,1815
10.0194,1822
10.0222,1850
10.0250,1849
10.0278,1838
10.0306,1831
10.0333,1820
10.0361,1813
10.0389,1807
10.0417,1789
10.0444,1770
10.0472,1762
10.0500,1745
10.0528,1732
10.0556,1720
10.0583,1725
10.0611,1737
10.0639,1734
10.0667,1733
10.0694,1741
10.0722,1748
10.0750,1743
10.0778,1742
10.0806,1738
10.0833,1726
10.0861,1716
10.0889,1679
10.0917,1612
10.0944,1527
10.0972,1445
10.1000,1424
10.1028,1460
10.1056,1567
10.1083,1733
10.1111,1980
10.1139,2314
10.1167,2664
10.1194,3005
10.1222,3319
10.1250,3361
10.1278,3374
10.1306,3374
10.1333,3382
10.1361,3291
10.1389,2793
10.1417,2159
10.1444,1691
10.1472,1458
10.1500,1421
10.1528,1474
10.1556,1563
10.1583,1637
10.1611,1693
10.1639,1724
10.1667,1730
10.1694,1698
10.1722,1676
10.1750,1651
10.1778,1647
10.1806,1657
10.1833,1684
10.1861,1676
10.1889,1668
10.1917,1638
10.1944,1623
10.1972,1613
10.2000,1634
10.2028,1664
10.2056,1694
10.2083,1691
10.2111,1674
10.2139,1648
10.2167,1658
10.2194,1659
10.2222,1679
10.2250,1685
10.2278,1698
10.2306,1700
10.2333,1689
10.2361,1672
10.2389,1679
10.2417,1688
10.2444,1695
10.2472,1689
10.2500,1691
10.2528,1687
10.2556,1686
10.2583,1694
10.2611,1717
10.2639,1739
10.2667,1727
10.2694,1714
10.2722,1707
10.2750,1707
10.2778,1706
10.2806,1718
10.2833,1726
10.2861,1735
10.2889,1736
10.2917,1725
10.2944,1715
10.2972,1704
10.3000,1708
10.3028,1721
10.3056,1731
10.3083,1748
10.3111,1745
10.3139,1732
10.3167,1724
10.3194,1722
10.3222,1743
10.3250,1762
10.3278,1766
10.3306,1761
10.3333,1744
10.3361,1735
10.3389,1949
10.3417,1949
10.3444,1958
10.3472,1949
10.3500,1930
10.3528,1911
10.3556,1882
10.3583,1850
10.3611,1850
10.3639,1838
10.3667,1816
10.3694,1800
10.3722,1766
10.3750,1743
10.3778,1717
10.3806,1695
10.3833,1692
10.3861,1687
10.3889,1678
10.3917,1655
10.3944,1630
10.3972,1613
10.4000,1603
10.4028,1596
10.4056,1602
10.4083,1606
10.4111,1593
10.4139,1579
10.4167,1559
10.4194,1550
10.4222,1559
10.4250,1573
10.4278,1576
10.4306,1569
10.4333,1572
10.4361,1573
10.4389,1570
10.4417,1572
10.4444,1573
10.4472,1587
10.4500,1580
10.4528,1573
10.4556,1563
10.4583,1570
10.4611,1576
10.4639,1589
10.4667,1588
10.4694,1587
10.4722,1574
10.4750,1570
10.4778,1566
10.4806,1572
10.4833,1588
10.4861,1612
10.4889,1624
10.4917,1614
10.4944,1596
10.4972,1593
10.5000,1605
10.5028,1618
10.5056,1610
10.5083,1602
10.5111,1590
10.5139,1578
10.5167,1573
10.5194,1574
10.5222,1592
10.5250,1607
10.5278,1634
10.5306,1635
10.5333,1636
10.5361,1628
10.5389,1615
10.5417,1628
10.5444,1625
10.5472,1634
10.5500,1635
10.5528,1641
10.5556,1643
10.5583,1639
10.5611,1640
10.5639,1646
10.5667,1654
10.5694,1648
10.5722,1646
10.5750,1659
10.5778,1647
10.5806,1647
10.5833,1653
10.5861,1666
10.5889,1671
10.5917,1658
10.5944,1635
10.5972,1623
10.6000,1626
10.6028,1632
10.6056,1652
10.6083,1672
10.6111,1680
10.6139,1670
10.6167,1659
10.6194,1647
10.6222,1650
10.6250,1632
10.6278,1627
10.6306,1639
10.6333,1643
10.6361,1637
10.6389,1638
10.6417,1637
10.6444,1644
10.6472,1624
10.6500,1625
10.6528,1633
10.6556,1645
10.6583,1662
10.6611,1668
10.6639,1662
10.6667,1659
10.6694,1659
10.6722,1654
10.6750,1646
10.6778,1647
10.6806,1642
10.6833,1653
10.6861,1665
10.6889,1675
10.6917,1670
10.6944,1657
10.6972,1665
10.7000,1661
10.7028,1666
10.7056,1659
10.7083,1663
10.7111,1651
10.7139,1650
10.7167,1634
10.7194,1633
10.7222,1639
10.7250,1655
10.7278,1672
10.7306,1674
10.7333,1665
10.7361,1672
10.7389,1667
10.7417,1667
10.7444,1666
10.7472,1667
10.7500,1654
10.7528,1648
10.7556,1658
10.7583,1678
10.7611,1683
10.7639,1677
10.7667,1670
10.7694,1675
10.7722,1680
10.7750,1682
10.7778,1683
10.7806,1683
10.7833,1682
10.7861,1686
10.7889,1683
10.7917,1670
10.7944,1663
10.7972,1661
10.8000,1670
10.8028,1679
10.8056,1683
10.8083,1684
10.8111,1683
10.8139,1686
10.8167,1682
10.8194,1668
10.8222,1674
10.8250,1668
10.8278,1680
10.8306,1672
10.8333,1662
10.8361,1673
10.8389,1694
10.8417,1696
10.8444,1688
10.8472,1701
10.8500,1688
10.8528,1687
10.8556,1691
10.8583,1693
10.8611,1696
10.8639,1687
10.8667,1687
10.8694,1689
10.8722,1686
10.8750,1677
10.8778,1657
10.8806,1670
10.8833,1672
10.8861,1684
10.8889,1686
10.8917,1708
10.8944,1715
10.8972,1700
10.9000,1681
10.9028,1665
10.9056,1661
10.9083,1664
10.9111,1675
10.9139,1668
10.9167,1671
10.9194,1664
10.9222,1674
10.9250,1668
10.9278,1663
10.9306,1675
10.9333,1685
10.9361,1688
10.9389,1687
10.9417,1674
10.9444,1662
10.9472,1662
10.9500,1670
10.9528,1691
10.9556,1683
10.9583,1693
10.9611,1682
10.9639,1680
10.9667,1669
10.9694,1674
10.9722,1687
10.9750,1703
10.9778,1699
10.9806,1698
10.9833,1695
10.9861,1704
10.9889,1704
10.9917,1714
10.9944,1718
10.9972,1719
11.0000,1705
11.0028,1686
11.0056,1673
11.0083,1676
11.0111,1678
11.0139,1689
11.0167,1710
11.0194,1729
11.0222,1740
11.0250,1742
11.0278,1740
11.0306,1723
11.0333,1726
11.0361,1727
11.0389,1724
11.0417,1731
11.0444,1755
11.0472,1772
11.0500,1804
11.0528,1815
11.0556,1809
11.0583,1803
11.0611,1792
11.0639,1781
11.0667,1793
11.0694,1797
11.0722,1796
11.0750,1788
11.0778,1777
11.0806,1734
11.0833,1695
11.0861,1672
11.0889,1671
11.0917,1674
11.0944,1689
11.0972,1703
11.1000,1720
11.1028,1713
11.1056,1706
11.1083,1699
11.1111,1690
11.1139,1687
11.1167,1685
11.1194,1654
11.1222,1609
11.1250,1530
11.1278,1470
11.1306,1429
11.1333,1469
11.1361,1558
11.1389,1709
11.1417,1958
11.1444,2265
11.1472,2579
11.1500,2897
11.1528,3231
11.1556,3357
11.1583,3368
11.1611,3366
11.1639,3368
11.1667,3305
11.1694,2822
11.1722,2208
11.1750,1700
11.1778,1415
11.1806,1350
11.1833,1394
11.1861,1498
11.1889,1607
11.1917,1685
11.1944,1732
11.1972,1737
11.2000,1716
11.2028,1684
11.2056,1654
11.2083,1651
11.2111,1659
11.2139,1669
11.2167,1671
11.2194,1676
11.2222,1677
11.2250,1660
11.2278,1660
11.2306,1671
11.2333,1691
11.2361,1709
11.2389,1701
11.2417,1694
11.2444,1674
11.2472,1648
11.2500,1640
11.2528,1642
11.2556,1669
11.2583,1687
11.2611,1682
11.2639,1677
11.2667,1677
11.2694,1677
11.2722,1692
11.2750,1710
11.2778,1715
11.2806,1706
11.2833,1694
11.2861,1694
11.2889,1707
11.2917,1708
11.2944,1730
11.2972,1728
11.3000,1731
11.3028,1718
11.3056,1703
11.3083,1690
11.3111,1699
11.3139,1712
11.3167,1729
11.3194,1736
11.3222,1733
11.3250,1728
11.3278,1717
11.3306,1717
11.3333,1734
11.3361,1745
11.3389,1745
11.3417,1744
11.3444,1741
11.3472,1724
11.3500,1728
11.3528,1737
11.3556,1761
11.3583,1790
11.3611,1804
11.3639,1800
11.3667,1794
11.3694,1957
11.3722,1965
11.3750,1988
11.3778,1986
11.3806,1955
11.3833,1920
11.3861,1897
11.3889,1881
11.3917,1882
11.3944,1871
11.3972,1841
11.4000,1822
11.4028,1799
11.4056,1773
11.4083,1745
11.4111,1712
11.4139,1698
11.4167,1686
11.4194,1681
11.4222,1672
11.4250,1647
11.4278,1626
11.4306,1610
11.4333,1607
11.4361,1600
11.4389,1617
11.4417,1601
11.4444,1591
11.4472,1586
11.4500,1569
11.4528,1573
11.4556,1595
11.4583,1613
11.4611,1620
11.4639,1610
11.4667,1598
11.4694,1585
11.4722,1577
11.4750,1585
11.4778,1588
11.4806,1585
11.4833,1580
11.4861,1578
11.4889,1572
11.4917,1585
11.4944,1588
11.4972,1584
11.5000,1581
11.5028,1572
11.5056,1570
11.5083,1580
11.5111,1591
11.5139,1609
11.5167,1627
11.5194,1614
11.5222,1596
11.5250,1580
11.5278,1574
11.5306,1599
11.5333,1619
11.5361,1632
11.5389,1640
11.5417,1637
11.5444,1642
11.5472,1645
11.5500,1644
11.5528,1643
11.5556,1645
11.5583,1656
11.5611,1647
11.5639,1648
11.5667,1635
11.5694,1619
11.5722,1620
11.5750,1632
11.5778,1656
11.5806,1662
11.5833,1658
11.5861,1657
11.5889,1659
11.5917,1667
11.5944,1664
11.5972,1651
11.6000,1640
11.6028,1640
11.6056,1642
11.6083,1661
11.6111,1656
11.6139,1659
11.6167,1673
11.6194,1682
11.6222,1680
11.6250,1678
11.6278,1663
11.6306,1666
11.6333,1661
11.6361,1673
11.6389,1673
11.6417,1675
11.6444,1682
11.6472,1690
11.6500,1685
11.6528,1680
11.6556,1675
11.6583,1668
11.6611,1660
11.6639,1663
11.6667,1660
11.6694,1662
11.6722,1667
11.6750,1664
11.6778,1667
11.6806,1655
11.6833,1646
11.6861,1652
11.6889,1657
11.6917,1667
11.6944,1677
11.6972,1670
11.7000,1659
11.7028,1655
11.7056,1658
11.7083,1663
11.7111,1671
11.7139,1656
11.7167,1639
11.7194,1635
11.7222,1639
11.7250,1666
11.7278,1674
11.7306,1688
11.7333,1681
11.7361,1672
11.7389,1648
11.7417,1642
11.7444,1642
11.7472,1654
11.7500,1656
11.7528,1682
11.7556,1696
11.7583,1691
11.7611,1694
11.7639,1674
11.7667,1666
11.7694,1667
11.7722,1664
11.7750,1673
11.7778,1664
11.7806,1653
11.7833,1660
11.7861,1664
11.7889,1661
11.7917,1682
11.7944,1694
11.7972,1712
11.8000,1695
11.8028,1678
11.8056,1669
11.8083,1679
11.8111,1690
11.8139,1684
11.8167,1678
11.8194,1676
11.8222,1693
11.8250,1697
11.8278,1698
11.8306,1707
11.8333,1693
11.8361,1702
11.8389,1703
11.8417,1706
11.8444,1700
11.8472,1694
11.8500,1687
11.8528,1687
11.8556,1696
11.8583,1698
11.8611,1712
11.8639,1713
11.8667,1715
11.8694,1705
11.8722,1692
11.8750,1692
11.8778,1701
11.8806,1707
11.8833,1702
11.8861,1696
11.8889,1683
11.8917,1684
11.8944,1693
11.8972,1712
11.9000,1713
11.9028,1693
11.9056,1693
11.9083,1696
11.9111,1705
11.9139,1722
11.9167,1722
11.9194,1713
11.9222,1711
11.9250,1712
11.9278,1704
11.9306,1700
11.9333,1700
11.9361,1699
11.9389,1689
11.9417,1687
11.9444,1693
11.9472,1696
11.9500,1700
11.9528,1695
11.9556,1694
11.9583,1698
11.9611,1701
11.9639,1710
11.9667,1696
11.9694,1690
11.9722,1695
11.9750,1713
11.9778,1724
11.9806,1723
11.9833,1732
11.9861,1723
11.9889,1699
11.9917,1686
11.9944,1693
11.9972,1703
12.0000,1724
12.0028,1724
12.0056,1725
12.0083,1712
12.0111,1708
12.0139,1713
12.0167,1702
12.0194,1710
12.0222,1709
12.0250,1719
12.0278,1718
12.0306,1715
12.0333,1714
12.0361,1719
12.0389,1732
12.0417,1758
12.0444,1766
12.0472,1752
12.0500,1740
12.0528,1743
12.0556,1738
12.0583,1751
12.0611,1754
12.0639,1755
12.0667,1775
12.0694,1786
12.0722,1797
12.0750,1793
12.0778,1788
12.0806,1774
12.0833,1752
12.0861,1738
12.0889,1733
12.0917,1728
12.0944,1725
12.0972,1727
12.1000,1713
12.1028,1675
12.1056,1646
12.1083,1644
12.1111,1658
12.1139,1670
12.1167,1686
12.1194,1691
12.1222,1690
12.1250,1681
12.1278,1689
12.1306,1689
12.1333,1662
12.1361,1635
12.1389,1582
12.1417,1491
12.1444,1422
12.1472,1404
12.1500,1447
12.1528,1541
12.1556,1702
12.1583,1939
12.1611,2247
12.1639,2585
12.1667,2909
12.1694,3241
12.1722,3357
12.1750,3366
12.1778,3372
12.1806,3364
12.1833,3279
12.1861,2773
12.1889,2156
12.1917,1676
12.1944,1432
12.1972,1381
12.2000,1434
12.2028,1537
12.2056,1611
12.2083,1676
12.2111,1705
12.2139,1712
12.2167,1689
12.2194,1657
12.2222,1636
12.2250,1635
12.2278,1644
12.2306,1664
12.2333,1680
12.2361,1663
12.2389,1651
12.2417,1621
12.2444,1613
12.2472,1622
12.2500,1641
12.2528,1643
12.2556,1657
12.2583,1648
12.2611,1644
12.2639,1645
12.2667,1648
12.2694,1665
12.2722,1674
12.2750,1687
12.2778,1678
12.2806,1659
12.2833,1638
12.2861,1632
12.2889,1637
12.2917,1666
12.2944,1686
12.2972,1695
12.3000,1684
12.3028,1673
12.3056,1674
12.3083,1675
12.3111,1683
12.3139,1683
12.3167,1679
12.3194,1671
12.3222,1671
12.3250,1679
12.3278,1696
12.3306,1700
12.3333,1703
12.3361,1706
12.3389,1690
12.3417,1689
12.3444,1687
12.3472,1704
12.3500,1721
12.3528,1731
12.3556,1727
12.3583,1734
12.3611,1715
12.3639,1703
12.3667,1716
12.3694,1727
12.3722,1737
12.3750,1742
12.3778,1742
12.3806,1744
12.3833,1756
12.3861,1909
12.3889,1907
12.3917,1933
12.3944,1941
12.3972,1939
12.4000,1921
12.4028,1895
12.4056,1870
12.4083,1854
12.4111,1836
12.4139,1829
12.4167,1807
12.4194,1763
12.4222,1732
12.4250,1691
12.4278,1681
12.4306,1669
12.4333,1671
12.4361,1668
12.4389,1659
12.4417,1631
12.4444,1613
12.4472,1610
12.4500,1608
12.4528,1598
12.4556,1587
12.4583,1566
12.4611,1556
12.4639,1559
12.4667,1563
12.4694,1559
12.4722,1570
12.4750,1574
12.4778,1566
12.4806,1557
12.4833,1560
12.4861,1563
12.4889,1566
12.4917,1576
12.4944,1576
12.4972,1572
12.5000,1558
12.5028,1541
12.5056,1567
12.5083,1581
12.5111,1603
12.5139,1604
12.5167,1585
12.5194,1560
12.5222,1532
12.5250,1527
12.5278,1548
12.5306,1588
12.5333,1605
12.5361,1610
12.5389,1592
12.5417,1576
12.5444,1571
12.5472,1589
12.5500,1600
12.5528,1607
12.5556,1620
12.5583,1619
12.5611,1615
12.5639,1601
12.5667,1591
12.5694,1593
12.5722,1604
12.5750,1618
12.5778,1620
12.5806,1623
12.5833,1627
12.5861,1634
12.5889,1642
12.5917,1645
12.5944,1638
12.5972,1625
12.6000,1610
12.6028,1604
12.6056,1613
12.6083,1630
12.6111,1641
12.6139,1647
12.6167,1659
12.6194,1647
12.6222,1639
12.6250,1631
12.6278,1627
12.6306,1633
12.6333,1637
12.6361,1636
12.6389,1636
12.6417,1620
12.6444,1614
12.6472,1628
12.6500,1631
12.6528,1633
12.6556,1630
12.6583,1620
12.6611,1608
12.6639,1613
12.6667,1623
12.6694,1620
12.6722,1621
12.6750,1620
12.6778,1613
12.6806,1626
12.6833,1638
12.6861,1654
12.6889,1663
12.6917,1664
12.6944,1651
12.6972,1641
12.7000,1625
12.7028,1627
12.7056,1623
12.7083,1634
12.7111,1638
12.7139,1643
12.7167,1638
12.7194,1622
12.7222,1612
12.7250,1617
12.7278,1620
12.7306,1633
12.7333,1642
12.7361,1647
12.7389,1650
12.7417,1661
12.7444,1654
12.7472,1648
12.7500,1640
12.7528,1648
12.7556,1662
12.7583,1665
12.7611,1666
12.7639,1662
12.7667,1668
12.7694,1665
12.7722,1670
12.7750,1665
12.7778,1678
12.7806,1671
12.7833,1655
12.7861,1654
12.7889,1653
12.7917,1657
12.7944,1654
12.7972,1657
12.8000,1659
12.8028,1671
12.8056,1672
12.8083,1669
12.8111,1661
12.8139,1649
12.8167,1650
12.8194,1652
12.8222,1657
12.8250,1661
12.8278,1672
12.8306,1685
12.8333,1680
12.8361,1676
12.8389,1674
12.8417,1669
12.8444,1666
12.8472,1666
12.8500,1665
12.8528,1675
12.8556,1690
12.8583,1684
12.8611,1679
12.8639,1690
12.8667,1706
12.8694,1704
12.8722,1698
12.8750,1675
12.8778,1655
12.8806,1655
12.8833,1650
12.8861,1661
12.8889,1646
12.8917,1655
12.8944,1664
12.8972,1670
12.9000,1654
12.9028,1650
12.9056,1651
12.9083,1649
12.9111,1644
12.9139,1650
12.9167,1665
12.9194,1668
12.9222,1673
12.9250,1671
12.9278,1680
12.9306,1685
12.9333,1693
12.9361,1692
12.9389,1687
12.9417,1689
12.9444,1685
12.9472,1673
12.9500,1691
12.9528,1695
12.9556,1700
12.9583,1701
12.9611,1692
12.9639,1685
12.9667,1690
12.9694,1692
12.9722,1693
12.9750,1688
12.9778,1695
12.9806,1696
12.9833,1696
12.9861,1690
12.9889,1690
12.9917,1687
12.9944,1695
12.9972,1697
13.0000,1710
13.0028,1710
13.0056,1704
13.0083,1703
13.0111,1690
13.0139,1695
13.0167,1708
13.0194,1721
13.0222,1733
13.0250,1729
13.0278,1710
13.0306,1711
13.0333,1716
13.0361,1720
13.0389,1733
13.0417,1744
13.0444,1748
13.0472,1737
13.0500,1728
13.0528,1732
13.0556,1746
13.0583,1747
13.0611,1746
13.0639,1738
13.0667,1737
13.0694,1742
13.0722,1740
13.0750,1746
13.0778,1743
13.0806,1746
13.0833,1742
13.0861,1742
13.0889,1738
13.0917,1734
13.0944,1737
13.0972,1727
13.1000,1723
13.1028,1719
13.1056,1723
13.1083,1733
13.1111,1751
13.1139,1758
13.1167,1759
13.1194,1753
13.1222,1749
13.1250,1746
13.1278,1738
13.1306,1728
13.1333,1719
13.1361,1715
13.1389,1727
13.1417,1754
13.1444,1775
13.1472,1787
13.1500,1803
13.1528,1796
13.1556,1798
13.1583,1787
13.1611,1785
13.1639,1791
13.1667,1787
13.1694,1815
13.1722,1838
13.1750,1852
13.1778,1861
13.1806,1846
13.1833,1838
13.1861,1825
13.1889,1806
13.1917,1794
13.1944,1773
13.1972,1769
13.2000,1767
13.2028,1758
13.2056,1743
13.2083,1730
13.2111,1735
13.2139,1736
13.2167,1731
13.2194,1737
13.2222,1742
13.2250,1740
13.2278,1742
13.2306,1737
13.2333,1735
13.2361,1736
13.2389,1727
13.2417,1691
13.2444,1619
13.2472,1534
13.2500,1466
13.2528,1458
13.2556,1501
13.2583,1623
13.2611,1794
13.2639,2052
13.2667,2380
13.2694,2724
13.2722,3066
13.2750,3346
13.2778,3359
13.2806,3373
13.2833,3382
13.2861,3380
13.2889,3291
13.2917,2784
13.2944,2163
13.2972,1701
13.3000,1477
13.3028,1450
13.3056,1503
13.3083,1591
13.3111,1658
13.3139,1694
13.3167,1704
13.3194,1701
13.3222,1695
13.3250,1679
13.3278,1668
13.3306,1662
13.3333,1667
13.3361,1667
13.3389,1672
13.3417,1666
13.3444,1655
13.3472,1636
13.3500,1641
13.3528,1652
13.3556,1668
13.3583,1663
13.3611,1664
13.3639,1652
13.3667,1632
13.3694,1635
13.3722,1639
13.3750,1667
13.3778,1682
13.3806,1685
13.3833,1672
13.3861,1660
13.3889,1652
13.3917,1660
13.3944,1684
13.3972,1697
13.4000,1698
13.4028,1685
13.4056,1675
13.4083,1671
13.4111,1683
13.4139,1705
13.4167,1717
13.4194,1727
13.4222,1722
13.4250,1704
13.4278,1692
13.4306,1680
13.4333,1688
13.4361,1701
13.4389,1726
13.4417,1734
13.4444,1722
13.4472,1711
13.4500,1712
13.4528,1720
13.4556,1733
13.4583,1748
13.4611,1753
13.4639,1740
13.4667,1737
13.4694,1721
13.4722,1738
13.4750,1758
13.4778,1773
13.4806,1777
13.4833,1782
13.4861,1782
13.4889,1780
13.4917,1938
13.4944,1937
13.4972,1926
13.5000,1918
13.5028,1908
13.5056,1898
13.5083,1880
13.5111,1868
13.5139,1846
13.5167,1832
13.5194,1804
13.5222,1776
13.5250,1757
13.5278,1732
13.5306,1725
13.5333,1713
13.5361,1707
13.5389,1698
13.5417,1679
13.5444,1657
13.5472,1626
13.5500,1613
13.5528,1601
13.5556,1597
13.5583,1602
13.5611,1605
13.5639,1604
13.5667,1587
13.5694,1589
13.5722,1593
13.5750,1586
13.5778,1586
13.5806,1583
13.5833,1593
13.5861,1598
13.5889,1606
13.5917,1594
13.5944,1603
13.5972,1600
13.6000,1608
13.6028,1608
13.6056,1593
13.6083,1585
13.6111,1579
13.6139,1582
13.6167,1592
13.6194,1600
13.6222,1605
13.6250,1602
13.6278,1597
13.6306,1586
13.6333,1591
13.6361,1598
13.6389,1609
13.6417,1618
13.6444,1607
13.6472,1605
13.6500,1607
13.6528,1605
13.6556,1609
13.6583,1605
13.6611,1605
13.6639,1606
13.6667,1608
13.6694,1620
13.6722,1636
13.6750,1655
13.6778,1666
13.6806,1673
13.6833,1678
13.6861,1677
13.6889,1665
13.6917,1655
13.6944,1655
13.6972,1664
13.7000,1676
13.7028,1688
13.7056,1676
13.7083,1670
13.7111,1659
13.7139,1664
13.7167,1655
13.7194,1647
13.7222,1654
13.7250,1662
13.7278,1654
13.7306,1658
13.7333,1666
13.7361,1680
13.7389,1682
13.7417,1684
13.7444,1677
13.7472,1673
13.7500,1665
13.7528,1655
13.7556,1650
13.7583,1644
13.7611,1645
13.7639,1650
13.7667,1670
13.7694,1670
13.7722,1666
13.7750,1689
13.7778,1685
13.7806,1693
13.7833,1697
13.7861,1699
13.7889,1688
13.7917,1687
13.7944,1691
13.7972,1699
13.8000,1703
13.8028,1696
13.8056,1686
13.8083,1668
13.8111,1654
13.8139,1646
13.8167,1656
13.8194,1684
13.8222,1685
13.8250,1681
13.8278,1673
13.8306,1656
13.8333,1667
13.8361,1682
13.8389,1697
13.8417,1705
13.8444,1701
13.8472,1700
13.8500,1697
13.8528,1703
13.8556,1698
13.8583,1686
13.8611,1685
13.8639,1679
13.8667,1676
13.8694,1679
13.8722,1695
13.8750,1696
13.8778,1700
13.8806,1693
13.8833,1680
13.8861,1671
13.8889,1673
13.8917,1680
13.8944,1685
13.8972,1697
13.9000,1708
13.9028,1701
13.9056,1691
13.9083,1685
13.9111,1685
13.9139,1693
13.9167,1688
13.9194,1683
13.9222,1685
13.9250,1685
13.9278,1680
13.9306,1691
13.9333,1706
13.9361,1714
13.9389,1727
13.9417,1724
13.9444,1709
13.9472,1706
13.9500,1705
13.9528,1703
13.9556,1710
13.9583,1695
13.9611,1675
13.9639,1685
13.9667,1687
13.9694,1702
13.9722,1687
13.9750,1680
13.9778,1680
13.9806,1686
13.9833,1703
13.9861,1713
13.9889,1716
13.9917,1713
13.9944,1710
13.9972,1716
14.0000,1700
14.0028,1676
14.0056,1650
14.0083,1649
14.0111,1671
14.0139,1700
14.0167,1722
14.0194,1733
14.0222,1729
14.0250,1716
14.0278,1699
14.0306,1691
14.0333,1706
14.0361,1709
14.0389,1708
14.0417,1707
14.0444,1712
14.0472,1716
14.0500,1718
14.0528,1724
14.0556,1728
14.0583,1712
14.0611,1702
14.0639,1702
14.0667,1698
14.0694,1706
14.0722,1734
14.0750,1753
14.0778,1764
14.0806,1762
14.0833,1744
14.0861,1724
14.0889,1725
14.0917,1726
14.0944,1727
14.0972,1735
14.1000,1729
14.1028,1724
14.1056,1724
14.1083,1715
14.1111,1712
14.1139,1716
14.1167,1729
14.1194,1738
14.1222,1749
14.1250,1743
14.1278,1732
14.1306,1712
14.1333,1714
14.1361,1705
14.1389,1728
14.1417,1745
14.1444,1742
14.1472,1745
14.1500,1750
14.1528,1760
14.1556,1770
14.1583,1757
14.1611,1750
14.1639,1744
14.1667,1742
14.1694,1745
14.1722,1748
14.1750,1754
14.1778,1746
14.1806,1747
14.1833,1753
14.1861,1754
14.1889,1762
14.1917,1768
14.1944,1778
14.1972,1778
14.2000,1781
14.2028,1765
14.2056,1757
14.2083,1739
14.2111,1751
14.2139,1754
14.2167,1757
14.2194,1764
14.2222,1762
14.2250,1751
14.2278,1744
14.2306,1746
14.2333,1751
14.2361,1740
14.2389,1742
14.2417,1751
14.2444,1742
14.2472,1741
14.2500,1747
14.2528,1747
14.2556,1753
14.2583,1751
14.2611,1764
14.2639,1767
14.2667,1758
14.2694,1748
14.2722,1740
14.2750,1755
14.2778,1768
14.2806,1779
14.2833,1787
14.2861,1794
14.2889,1803
14.2917,1795
14.2944,1794
14.2972,1798
14.3000,1809
14.3028,1832
14.3056,1852
14.3083,1856
14.3111,1845
14.3139,1821
14.3167,1804
14.3194,1777
14.3222,1771
14.3250,1768
14.3278,1779
14.3306,1767
14.3333,1754
14.3361,1727
14.3389,1706
14.3417,1697
14.3444,1703
14.3472,1699
14.3500,1695
14.3528,1683
14.3556,1682
14.3583,1699
14.3611,1711
14.3639,1724
14.3667,1719
14.3694,1695
14.3722,1658
14.3750,1561
14.3778,1452
14.3806,1388
14.3833,1405
14.3861,1488
14.3889,1621
14.3917,1801
14.3944,2044
14.3972,2336
14.4000,2644
14.4028,2978
14.4056,3298
14.4083,3356
14.4111,3362
14.4139,3369
14.4167,3368
14.4194,3109
14.4222,2518
14.4250,1932
14.4278,1539
14.4306,1399
14.4333,1415
14.4361,1480
14.4389,1547
14.4417,1600
14.4444,1633
14.4472,1670
14.4500,1688
14.4528,1673
14.4556,1637
14.4583,1605
14.4611,1597
14.4639,1605
14.4667,1631
14.4694,1634
14.4722,1626
14.4750,1625
14.4778,1605
14.4806,1596
14.4833,1598
14.4861,1612
14.4889,1624
14.4917,1657
14.4944,1656
14.4972,1644
14.5000,1642
14.5028,1630
14.5056,1640
14.5083,1646
14.5111,1631
14.5139,1631
14.5167,1637
14.5194,1654
14.5222,1670
14.5250,1655
14.5278,1654
14.5306,1638
14.5333,1639
14.5361,1632
14.5389,1647
14.5417,1663
14.5444,1690
14.5472,1698
14.5500,1703
14.5528,1687
14.5556,1674
14.5583,1665
14.5611,1676
14.5639,1685
14.5667,1691
14.5694,1691
14.5722,1690
14.5750,1684
14.5778,1670
14.5806,1673
14.5833,1703
14.5861,1716
14.5889,1717
14.5917,1706
14.5944,1715
14.5972,1712
14.6000,1729
14.6028,1733
14.6056,1738
14.6083,1733
14.6111,1719
14.6139,1729
14.6167,1750
14.6194,1927
14.6222,1945
14.6250,1971
14.6278,1974
14.6306,1955
14.6333,1934
14.6361,1903
14.6389,1881
14.6417,1864
14.6444,1869
14.6472,1868
14.6500,1843
14.6528,1804
14.6556,1776
14.6583,1764
14.6611,1743
14.6639,1726
14.6667,1709
14.6694,1688
14.6722,1659
14.6750,1637
14.6778,1616
14.6806,1602
14.6833,1615
14.6861,1622
14.6889,1621
14.6917,1600
14.6944,1570
14.6972,1546
14.7000,1540
14.7028,1561
14.7056,1578
14.7083,1589
14.7111,1582
14.7139,1562
14.7167,1561
14.7194,1564
14.7222,1565
14.7250,1558
14.7278,1553
14.7306,1560
14.7333,1550
14.7361,1555
14.7389,1578
14.7417,1584
14.7444,1578
14.7472,1583
14.7500,1575
14.7528,1570
14.7556,1557
14.7583,1541
14.7611,1568
14.7639,1582
14.7667,1575
14.7694,1577
14.7722,1545
14.7750,1501
14.7778,1508
14.7806,1537
14.7833,1560
14.7861,1592
14.7889,1609
14.7917,1601
14.7944,1591
14.7972,1553
14.8000,1543
14.8028,1560
14.8056,1588
14.8083,1608
14.8111,1615
14.8139,1598
14.8167,1576
14.8194,1587
14.8222,1612
14.8250,1636
14.8278,1631
14.8306,1605
14.8333,1572
14.8361,1562
14.8389,1555
14.8417,1555
14.8444,1595
14.8472,1605
14.8500,1599
14.8528,1643
14.8556,1688
14.8583,1709
14.8611,1709
14.8639,1705
14.8667,1708
14.8694,1705
14.8722,1697
14.8750,1687
14.8778,1684
14.8806,1666
14.8833,1647
14.8861,1647
14.8889,1656
14.8917,1670
14.8944,1679
14.8972,1672
14.9000,1667
14.9028,1648
14.9056,1647
14.9083,1658
14.9111,1660
14.9139,1657
14.9167,1644
14.9194,1648
14.9222,1655
14.9250,1648
14.9278,1641
14.9306,1651
14.9333,1664
14.9361,1653
14.9389,1646
14.9417,1633
14.9444,1632
14.9472,1647
14.9500,1669
14.9528,1662
14.9556,1652
14.9583,1652
14.9611,1665
14.9639,1658
14.9667,1646
14.9694,1643
14.9722,1650
14.9750,1659
14.9778,1645
14.9806,1648
14.9833,1657
14.9861,1690
14.9889,1704
14.9917,1683
14.9944,1671
14.9972,1664
15.0000,1666
15.0028,1674
15.0056,1677
15.0083,1673
15.0111,1679
15.0139,1707
15.0167,1714
15.0194,1682
15.0222,1668
15.0250,1672
15.0278,1706
15.0306,1716
15.0333,1677
15.0361,1632
15.0389,1621
15.0417,1633
15.0444,1656
15.0472,1669
15.0500,1681
15.0528,1685
15.0556,1687
15.0583,1675
15.0611,1657
15.0639,1649
15.0667,1651
15.0694,1655
15.0722,1665
15.0750,1674
15.0778,1665
15.0806,1663
15.0833,1658
15.0861,1663
15.0889,1655
15.0917,1635
15.0944,1639
15.0972,1643
15.1000,1652
15.1028,1630
15.1056,1609
15.1083,1618
15.1111,1660
15.1139,1682
15.1167,1685
15.1194,1685
15.1222,1684
15.1250,1706
15.1278,1716
15.1306,1717
15.1333,1696
15.1361,1683
15.1389,1664
15.1417,1660
15.1444,1662
15.1472,1650
15.1500,1650
15.1528,1677
15.1556,1704
15.1583,1709
15.1611,1696
15.1639,1691
15.1667,1708
15.1694,1697
15.1722,1693
15.1750,1685
15.1778,1691
15.1806,1690
15.1833,1701
15.1861,1705
15.1889,1690
15.1917,1683
15.1944,1687
15.1972,1701
15.2000,1719
15.2028,1723
15.2056,1698
15.2083,1682
15.2111,1702
15.2139,1704
15.2167,1705
15.2194,1702
15.2222,1715
15.2250,1729
15.2278,1730
15.2306,1702
15.2333,1680
15.2361,1679
15.2389,1692
15.2417,1694
15.2444,1668
15.2472,1678
15.2500,1697
15.2528,1725
15.2556,1727
15.2583,1730
15.2611,1739
15.2639,1744
15.2667,1749
15.2694,1750
15.2722,1749
15.2750,1745
15.2778,1760
15.2806,1781
15.2833,1817
15.2861,1824
15.2889,1836
15.2917,1838
15.2944,1835
15.2972,1823
15.3000,1803
15.3028,1800
15.3056,1788
15.3083,1783
15.3111,1779
15.3139,1776
15.3167,1768
15.3194,1747
15.3222,1721
15.3250,1714
15.3278,1706
15.3306,1699
15.3333,1697
15.3361,1701
15.3389,1716
15.3417,1728
15.3444,1705
15.3472,1684
15.3500,1688
15.3528,1705
15.3556,1695
15.3583,1660
15.3611,1579
15.3639,1470
15.3667,1396
15.3694,1397
15.3722,1486
15.3750,1625
15.3778,1812
15.3806,2062
15.3833,2374
15.3861,2715
15.3889,3086
15.3917,3350
15.3944,3356
15.3972,3376
15.4000,3372
15.4028,3374
15.4056,3264
15.4083,2744
15.4111,2170
15.4139,1751
15.4167,1534
15.4194,1471
15.4222,1504
15.4250,1587
15.4278,1658
15.4306,1697
15.4333,1723
15.4361,1739
15.4389,1710
15.4417,1662
15.4444,1637
15.4472,1656
15.4500,1657
15.4528,1675
15.4556,1681
15.4583,1659
15.4611,1629
15.4639,1615
15.4667,1630
15.4694,1656
15.4722,1674
15.4750,1692
15.4778,1693
15.4806,1685
15.4833,1663
15.4861,1645
15.4889,1638
15.4917,1645
15.4944,1670
15.4972,1683
15.5000,1658
15.5028,1633
15.5056,1638
15.5083,1683
15.5111,1705
15.5139,1702
15.5167,1676
15.5194,1677
15.5222,1656
15.5250,1650
15.5278,1662
15.5306,1672
15.5333,1679
15.5361,1684
15.5389,1691
15.5417,1690
15.5444,1692
15.5472,1688
15.5500,1686
15.5528,1687
15.5556,1681
15.5583,1686
15.5611,1694
15.5639,1709
15.5667,1698
15.5694,1683
15.5722,1692
15.5750,1726
15.5778,1748
15.5806,1739
15.5833,1726
15.5861,1728
15.5889,1758
15.5917,1765
15.5944,1743
15.5972,1719
15.6000,1721
15.6028,1746
15.6056,1775
15.6083,1947
15.6111,1950
15.6139,1958
15.6167,1953
15.6194,1941
15.6222,1933
15.6250,1909
15.6278,1865
15.6306,1837
15.6333,1796
15.6361,1786
15.6389,1781
15.6417,1763
15.6444,1729
15.6472,1685
15.6500,1667
15.6528,1670
15.6556,1677
15.6583,1676
15.6611,1641
15.6639,1589
15.6667,1572
15.6694,1582
15.6722,1593
15.6750,1602
15.6778,1596
15.6806,1587
15.6833,1595
15.6861,1594
15.6889,1593
15.6917,1589
15.6944,1592
15.6972,1594
15.7000,1576
15.7028,1573
15.7056,1570
15.7083,1581
15.7111,1592
15.7139,1582
15.7167,1589
15.7194,1589
15.7222,1579
15.7250,1571
15.7278,1572
15.7306,1561
15.7333,1559
15.7361,1545
15.7389,1546
15.7417,1547
15.7444,1573
15.7472,1605
15.7500,1615
15.7528,1618
15.7556,1603
15.7583,1593
15.7611,1585
15.7639,1567
15.7667,1562
15.7694,1580
15.7722,1594
15.7750,1609
15.7778,1613
15.7806,1604
15.7833,1594
15.7861,1585
15.7889,1582
15.7917,1581
15.7944,1596
15.7972,1609
15.8000,1613
15.8028,1615
15.8056,1615
15.8083,1609
15.8111,1613
15.8139,1629
15.8167,1658
15.8194,1662
15.8222,1652
15.8250,1657
15.8278,1646
15.8306,1645
15.8333,1653
15.8361,1647
15.8389,1649
15.8417,1657
15.8444,1655
15.8472,1653
15.8500,1656
15.8528,1665
15.8556,1675
15.8583,1665
15.8611,1662
15.8639,1661
15.8667,1671
15.8694,1670
15.8722,1663
15.8750,1649
15.8778,1657
15.8806,1657
15.8833,1662
15.8861,1665
15.8889,1658
15.8917,1657
15.8944,1653
15.8972,1651
15.9000,1636
15.9028,1635
15.9056,1640
15.9083,1643
15.9111,1653
15.9139,1661
15.9167,1664
15.9194,1661
15.9222,1661
15.9250,1655
15.9278,1663
15.9306,1660
15.9333,1660
15.9361,1669
15.9389,1673
15.9417,1667
15.9444,1662
15.9472,1667
15.9500,1656
15.9528,1641
15.9556,1634
15.9583,1637
15.9611,1650
15.9639,1644
15.9667,1634
15.9694,1638
15.9722,1642
15.9750,1653
15.9778,1656
15.9806,1650
15.9833,1650
15.9861,1648
15.9889,1668
15.9917,1684
15.9944,1702
15.9972,1697
16.0000,1661
16.0028,1643
16.0056,1642
16.0083,1652
16.0111,1658
16.0139,1680
16.0167,1690
16.0194,1687
16.0222,1684
16.0250,1696
16.0278,1699
16.0306,1685
16.0333,1677
16.0361,1681
16.0389,1679
16.0417,1677
16.0444,1679
16.0472,1683
16.0500,1670
16.0528,1661
16.0556,1656
16.0583,1651
16.0611,1656
16.0639,1674
16.0667,1686
16.0694,1693
16.0722,1686
16.0750,1673
16.0778,1678
16.0806,1675
16.0833,1674
16.0861,1669
16.0889,1676
16.0917,1682
16.0944,1686
16.0972,1701
16.1000,1690
16.1028,1694
16.1056,1696
16.1083,1684
16.1111,1695
16.1139,1702
16.1167,1708
16.1194,1703
16.1222,1688
16.1250,1687
16.1278,1689
16.1306,1701
16.1333,1688
16.1361,1692
16.1389,1694
16.1417,1702
16.1444,1719
16.1472,1727
16.1500,1728
16.1528,1705
16.1556,1708
16.1583,1703
16.1611,1720
16.1639,1724
16.1667,1707
16.1694,1698
16.1722,1688
16.1750,1709
16.1778,1716
16.1806,1722
16.1833,1716
16.1861,1709
16.1889,1704
16.1917,1719
16.1944,1743
16.1972,1732
16.2000,1726
16.2028,1717
16.2056,1707
16.2083,1699
16.2111,1703
16.2139,1720
16.2167,1721
16.2194,1718
16.2222,1717
16.2250,1715
16.2278,1722
16.2306,1712
16.2333,1707
16.2361,1715
16.2389,1722
16.2417,1717
16.2444,1713
16.2472,1709
16.2500,1703
16.2528,1715
16.2556,1717
16.2583,1717
16.2611,1708
16.2639,1704
16.2667,1728
16.2694,1733
16.2722,1729
16.2750,1727
16.2778,1721
16.2806,1722
16.2833,1726
16.2861,1717
16.2889,1711
16.2917,1718
16.2944,1716
16.2972,1723
16.3000,1733
16.3028,1739
16.3056,1746
16.3083,1740
16.3111,1730
16.3139,1741
16.3167,1761
16.3194,1763
16.3222,1766
16.3250,1756
16.3278,1752
16.3306,1764
16.3333,1764
16.3361,1769
16.3389,1788
16.3417,1809
16.3444,1807
16.3472,1822
16.3500,1832
16.3528,1819
16.3556,1803
16.3583,1790
16.3611,1780
16.3639,1760
16.3667,1756
16.3694,1761
16.3722,1769
16.3750,1783
16.3778,1771
16.3806,1749
16.3833,1723
16.3861,1715
16.3889,1714
16.3917,1713
16.3944,1721
16.3972,1726
16.4000,1726
16.4028,1709
16.4056,1684
16.4083,1687
16.4111,1696
16.4139,1691
16.4167,1644
16.4194,1560
16.4222,1465
16.4250,1411
16.4278,1427
16.4306,1515
16.4333,1679
16.4361,1899
16.4389,2225
16.4417,2586
16.4444,2930
16.4472,3275
16.4500,3352
16.4528,3363
16.4556,3375
16.4583,3377
16.4611,3358
16.4639,3062
16.4667,2474
16.4694,1919
16.4722,1586
16.4750,1467
16.4778,1480
16.4806,1553
16.4833,1619
16.4861,1668
16.4889,1712
16.4917,1730
16.4944,1700
16.4972,1666
16.5000,1631
16.5028,1601
16.5056,1598
16.5083,1623
16.5111,1652
16.5139,1658
16.5167,1640
16.5194,1621
16.5222,1607
16.5250,1606
16.5278,1635
16.5306,1652
16.5333,1663
16.5361,1660
16.5389,1643
16.5417,1634
16.5444,1623
16.5472,1624
16.5500,1615
16.5528,1612
16.5556,1611
16.5583,1608
16.5611,1616
16.5639,1616
16.5667,1638
16.5694,1663
16.5722,1683
16.5750,1657
16.5778,1636
16.5806,1634
16.5833,1632
16.5861,1640
16.5889,1660
16.5917,1687
16.5944,1685
16.5972,1681
16.6000,1669
16.6028,1659
16.6056,1660
16.6083,1659
16.6111,1676
16.6139,1679
16.6167,1679
16.6194,1682
16.6222,1684
16.6250,1688
16.6278,1708
16.6306,1736
16.6333,1754
16.6361,1756
16.6389,1740
16.6417,1731
16.6444,1728
16.6472,1737
16.6500,1742
16.6528,1744
16.6556,1754
16.6583,1763
16.6611,1767
16.6639,1940
16.6667,1941
16.6694,1948
16.6722,1961
16.6750,1972
16.6778,1954
16.6806,1941
16.6833,1910
16.6861,1880
16.6889,1875
16.6917,1853
16.6944,1834
16.6972,1805
16.7000,1770
16.7028,1736
16.7056,1707
16.7083,1684
16.7111,1674
16.7139,1662
16.7167,1653
16.7194,1637
16.7222,1612
16.7250,1613
16.7278,1598
16.7306,1580
16.7333,1566
16.7361,1564
16.7389,1556
16.7417,1554
16.7444,1572
16.7472,1585
16.7500,1586
16.7528,1571
16.7556,1563
16.7583,1545
16.7611,1532
16.7639,1528
16.7667,1548
16.7694,1563
16.7722,1574
16.7750,1564
16.7778,1549
16.7806,1528
16.7833,1520
16.7861,1518
16.7889,1530
16.7917,1563
16.7944,1580
16.7972,1586
16.8000,1570
16.8028,1563
16.8056,1563
16.8083,1567
16.8111,1574
16.8139,1575
16.8167,1582
16.8194,1572
16.8222,1574
16.8250,1583
16.8278,1599
16.8306,1613
16.8333,1634
16.8361,1632
16.8389,1613
16.8417,1605
16.8444,1617
16.8472,1640
16.8500,1666
16.8528,1678
16.8556,1677
16.8583,1659
16.8611,1640
16.8639,1635
16.8667,1633
16.8694,1643
16.8722,1647
16.8750,1634
16.8778,1625
16.8806,1620
16.8833,1621
16.8861,1609
16.8889,1613
16.8917,1619
16.8944,1622
16.8972,1629
16.9000,1620
16.9028,1611
16.9056,1611
16.9083,1604
16.9111,1599
16.9139,1609
16.9167,1622
16.9194,1615
16.9222,1603
16.9250,1604
16.9278,1612
16.9306,1609
16.9333,1606
16.9361,1602
16.9389,1608
16.9417,1608
16.9444,1620
16.9472,1623
16.9500,1636
16.9528,1646
16.9556,1643
16.9583,1629
16.9611,1611
16.9639,1597
16.9667,1602
16.9694,1603
16.9722,1606
16.9750,1614
16.9778,1617
16.9806,1620
16.9833,1618
16.9861,1628
16.9889,1627
16.9917,1637
16.9944,1641
16.9972,1642
17.0000,1635
17.0028,1626
17.0056,1625
17.0083,1623
17.0111,1638
17.0139,1649
17.0167,1648
17.0194,1659
17.0222,1670
17.0250,1680
17.0278,1688
17.0306,1687
17.0333,1686
17.0361,1670
17.0389,1666
17.0417,1663
17.0444,1670
17.0472,1675
17.0500,1686
17.0528,1697
17.0556,1704
17.0583,1690
17.0611,1673
17.0639,1660
17.0667,1655
17.0694,1663
17.0722,1678
17.0750,1682
17.0778,1679
17.0806,1666
17.0833,1658
17.0861,1663
17.0889,1669
17.0917,1685
17.0944,1683
17.0972,1674
17.1000,1667
17.1028,1656
17.1056,1652
17.1083,1653
17.1111,1657
17.1139,1661
17.1167,1655
17.1194,1658
17.1222,1650
17.1250,1646
17.1278,1656
17.1306,1661
17.1333,1666
17.1361,1670
17.1389,1653
17.1417,1638
17.1444,1633
17.1472,1642
17.1500,1654
17.1528,1667
17.1556,1676
17.1583,1681
17.1611,1686
17.1639,1678
17.1667,1681
17.1694,1680
17.1722,1660
17.1750,1656
17.1778,1657
17.1806,1664
17.1833,1659
17.1861,1666
17.1889,1676
17.1917,1685
17.1944,1684
17.1972,1684
17.2000,1680
17.2028,1676
17.2056,1672
17.2083,1670
17.2111,1674
17.2139,1678
17.2167,1671
17.2194,1679
17.2222,1687
17.2250,1698
17.2278,1693
17.2306,1687
17.2333,1689
17.2361,1692
17.2389,1690
17.2417,1680
17.2444,1685
17.2472,1681
17.2500,1675
17.2528,1671
17.2556,1674
17.2583,1667
17.2611,1658
17.2639,1657
17.2667,1658
17.2694,1664
17.2722,1666
17.2750,1669
17.2778,1684
17.2806,1685
17.2833,1691
17.2861,1692
17.2889,1685
17.2917,1674
17.2944,1673
17.2972,1671
17.3000,1673
17.3028,1675
17.3056,1674
17.3083,1686
17.3111,1687
17.3139,1691
17.3167,1714
17.3194,1706
17.3222,1712
17.3250,1698
17.3278,1691
17.3306,1676
17.3333,1681
17.3361,1674
17.3389,1669
17.3417,1679
17.3444,1678
17.3472,1691
17.3500,1710
17.3528,1706
17.3556,1695
17.3583,1689
17.3611,1675
17.3639,1677
17.3667,1689
17.3694,1713
17.3722,1713
17.3750,1707
17.3778,1708
17.3806,1709
17.3833,1716
17.3861,1713
17.3889,1703
17.3917,1687
17.3944,1684
17.3972,1695
17.4000,1719
17.4028,1725
17.4056,1732
17.4083,1744
17.4111,1747
17.4139,1756
17.4167,1765
17.4194,1775
17.4222,1783
17.4250,1780
17.4278,1767
17.4306,1757
17.4333,1758
17.4361,1783
17.4389,1784
17.4417,1809
17.4444,1815
17.4472,1819
17.4500,1814
17.4528,1787
17.4556,1781
17.4583,1779
17.4611,1779
17.4639,1768
17.4667,1763
17.4694,1763
17.4722,1740
17.4750,1727
17.4778,1717
17.4806,1709
17.4833,1705
17.4861,1711
17.4889,1706
17.4917,1711
17.4944,1711
17.4972,1700
17.5000,1691
17.5028,1701
17.5056,1712
17.5083,1715
17.5111,1698
17.5139,1639
17.5167,1548
17.5194,1456
17.5222,1414
17.5250,1442
17.5278,1519
17.5306,1658
17.5333,1859
17.5361,2169
17.5389,2521
17.5417,2889
17.5444,3242
17.5472,3354
17.5500,3363
17.5528,3368
17.5556,3374
17.5583,3370
17.5611,3147
17.5639,2546
17.5667,1967
17.5694,1615
17.5722,1482
17.5750,1481
17.5778,1560
17.5806,1637
17.5833,1714
17.5861,1775
17.5889,1796
17.5917,1780
17.5944,1742
17.5972,1687
17.6000,1662
17.6028,1660
17.6056,1689
17.6083,1709
17.6111,1724
17.6139,1725
17.6167,1715
17.6194,1707
17.6222,1698
17.6250,1702
17.6278,1718
17.6306,1734
17.6333,1741
17.6361,1735
17.6389,1723
17.6417,1716
17.6444,1725
17.6472,1746
17.6500,1752
17.6528,1741
17.6556,1734
17.6583,1717
17.6611,1713
17.6639,1719
17.6667,1728
17.6694,1747
17.6722,1747
17.6750,1741
17.6778,1716
17.6806,1712
17.6833,1721
17.6861,1730
17.6889,1736
17.6917,1734
17.6944,1720
17.6972,1716
17.7000,1707
17.7028,1708
17.7056,1715
17.7083,1717
17.7111,1721
17.7139,1722
17.7167,1711
17.7194,1703
17.7222,1698
17.7250,1717
17.7278,1728
17.7306,1716
17.7333,1713
17.7361,1704
17.7389,1704
17.7417,1710
17.7444,1732
17.7472,1747
17.7500,1758
17.7528,1763
17.7556,1756
17.7583,1756
17.7611,1881
17.7639,1879
17.7667,1898
17.7694,1912
17.7722,1913
17.7750,1897
17.7778,1865
17.7806,1833
17.7833,1805
17.7861,1798
17.7889,1793
17.7917,1781
17.7944,1746
17.7972,1690
17.8000,1650
17.8028,1634
17.8056,1637
17.8083,1627
17.8111,1621
17.8139,1606
17.8167,1585
17.8194,1554
17.8222,1534
17.8250,1528
17.8278,1523
17.8306,1514
17.8333,1501
17.8361,1494
17.8389,1495
17.8417,1507
17.8444,1513
17.8472,1523
17.8500,1521
17.8528,1513
17.8556,1494
17.8583,1492
17.8611,1498
17.8639,1507
17.8667,1503
17.8694,1501
17.8722,1490
17.8750,1482
17.8778,1488
17.8806,1487
17.8833,1494
17.8861,1504
17.8889,1519
17.8917,1513
17.8944,1500
17.8972,1492
17.9000,1487
17.9028,1492
17.9056,1501
17.9083,1495
17.9111,1498
17.9139,1516
17.9167,1522
17.9194,1520
17.9222,1524
17.9250,1539
17.9278,1554
17.9306,1555
17.9333,1550
17.9361,1536
17.9389,1534
17.9417,1528
17.9444,1540
17.9472,1539
17.9500,1538
17.9528,1542
17.9556,1556
17.9583,1559
17.9611,1556
17.9639,1555
17.9667,1562
17.9694,1575
17.9722,1573
17.9750,1563
17.9778,1540
17.9806,1546
17.9833,1556
17.9861,1567
17.9889,1584
17.9917,1588
17.9944,1582
17.9972,1577
18.0000,1565
18.0028,1562
18.0056,1563
18.0083,1571
18.0111,1579
18.0139,1569
18.0167,1565
18.0194,1566
18.0222,1563
18.0250,1577
18.0278,1571
18.0306,1580
18.0333,1580
18.0361,1574
18.0389,1563
18.0417,1552
18.0444,1541
18.0472,1538
18.0500,1546
18.0528,1565
18.0556,1571
18.0583,1563
18.0611,1571
18.0639,1580
18.0667,1571
18.0694,1567
18.0722,1572
18.0750,1565
18.0778,1552
18.0806,1552
18.0833,1546
18.0861,1559
18.0889,1574
18.0917,1578
18.0944,1575
18.0972,1569
18.1000,1564
18.1028,1555
18.1056,1562
18.1083,1564
18.1111,1565
18.1139,1572
18.1167,1568
18.1194,1556
18.1222,1554
18.1250,1552
18.1278,1558
18.1306,1560
18.1333,1567
18.1361,1585
18.1389,1592
18.1417,1587
18.1444,1577
18.1472,1568
18.1500,1567
18.1528,1570
18.1556,1583
18.1583,1580
18.1611,1564
18.1639,1541
18.1667,1544
18.1694,1548
18.1722,1551
18.1750,1567
18.1778,1581
18.1806,1596
18.1833,1596
18.1861,1581
18.1889,1571
18.1917,1556
18.1944,1566
18.1972,1568
18.2000,1574
18.2028,1584
18.2056,1577
18.2083,1584
18.2111,1582
18.2139,1580
18.2167,1585
18.2194,1587
18.2222,1586
18.2250,1592
18.2278,1596
18.2306,1595
18.2333,1578
18.2361,1572
18.2389,1573
18.2417,1572
18.2444,1577
18.2472,1600
18.2500,1601
18.2528,1599
18.2556,1598
18.2583,1600
18.2611,1592
18.2639,1586
18.2667,1581
18.2694,1585
18.2722,1597
18.2750,1603
18.2778,1604
18.2806,1609
18.2833,1611
18.2861,1615
18.2889,1612
18.2917,1611
18.2944,1611
18.2972,1614
18.3000,1603
18.3028,1614
18.3056,1618
18.3083,1625
18.3111,1619
18.3139,1611
18.3167,1597
18.3194,1594
18.3222,1601
18.3250,1609
18.3278,1628
18.3306,1627
18.3333,1629
18.3361,1617
18.3389,1613
18.3417,1611
18.3444,1626
18.3472,1616
18.3500,1606
18.3528,1614
18.3556,1631
18.3583,1631
18.3611,1631
18.3639,1638
18.3667,1637
18.3694,1643
18.3722,1644
18.3750,1651
18.3778,1650
18.3806,1648
18.3833,1656
18.3861,1646
18.3889,1640
18.3917,1638
18.3944,1643
18.3972,1649
18.4000,1661
18.4028,1656
18.4056,1651
18.4083,1639
18.4111,1642
18.4139,1644
18.4167,1660
18.4194,1671
18.4222,1672
18.4250,1675
18.4278,1677
18.4306,1674
18.4333,1662
18.4361,1651
18.4389,1651
18.4417,1664
18.4444,1673
18.4472,1683
18.4500,1690
18.4528,1712
18.4556,1698
18.4583,1687
18.4611,1693
18.4639,1686
18.4667,1677
18.4694,1680
18.4722,1697
18.4750,1684
18.4778,1688
18.4806,1685
18.4833,1687
18.4861,1687
18.4889,1694
18.4917,1691
18.4944,1714
18.4972,1728
18.5000,1744
18.5028,1761
18.5056,1771
18.5083,1775
18.5111,1775
18.5139,1770
18.5167,1763
18.5194,1759
18.5222,1780
18.5250,1809
18.5278,1816
18.5306,1803
18.5333,1793
18.5361,1782
18.5389,1766
18.5417,1770
18.5444,1771
18.5472,1779
18.5500,1767
18.5528,1757
18.5556,1746
18.5583,1716
18.5611,1694
18.5639,1687
18.5667,1685
18.5694,1690
18.5722,1686
18.5750,1697
18.5778,1698
18.5806,1693
18.5833,1702
18.5861,1703
18.5889,1702
18.5917,1706
18.5944,1686
18.5972,1636
18.6000,1554
18.6028,1451
18.6056,1412
18.6083,1423
18.6111,1498
18.6139,1643
18.6167,1854
18.6194,2134
18.6222,2463
18.6250,2797
18.6278,3138
18.6306,3353
18.6333,3354
18.6361,3371
18.6389,3377
18.6417,3367
18.6444,3152
18.6472,2558
18.6500,1951
18.6528,1579
18.6556,1416
18.6583,1423
18.6611,1502
18.6639,1586
18.6667,1675
18.6694,1719
18.6722,1742
18.6750,1715
18.6778,1667
18.6806,1629
18.6833,1606
18.6861,1611
18.6889,1626
18.6917,1650
18.6944,1645
18.6972,1630
18.7000,1605
18.7028,1602
18.7056,1612
18.7083,1623
18.7111,1647
18.7139,1664
18.7167,1655
18.7194,1634
18.7222,1615
18.7250,1599
18.7278,1604
18.7306,1627
18.7333,1650
18.7361,1646
18.7389,1619
18.7417,1597
18.7444,1596
18.7472,1607
18.7500,1619
18.7528,1640
18.7556,1647
18.7583,1639
18.7611,1625
18.7639,1605
18.7667,1610
18.7694,1621
18.7722,1628
18.7750,1631
18.7778,1627
18.7806,1610
18.7833,1613
18.7861,1633
18.7889,1640
18.7917,1651
18.7944,1647
18.7972,1639
18.8000,1618
18.8028,1606
18.8056,1617
18.8083,1633
18.8111,1653
18.8139,1656
18.8167,1658
18.8194,1636
18.8222,1619
18.8250,1622
18.8278,1627
18.8306,1652
18.8333,1671
18.8361,1681
18.8389,1661
18.8417,1647
18.8444,1890
18.8472,1883
18.8500,1901
18.8528,1914
18.8556,1913
18.8583,1900
18.8611,1867
18.8639,1833
18.8667,1798
18.8694,1807
18.8722,1818
18.8750,1801
18.8778,1774
18.8806,1740
18.8833,1711
18.8861,1694
18.8889,1685
18.8917,1674
18.8944,1657
18.8972,1639
18.9000,1621
18.9028,1596
18.9056,1579
18.9083,1574
18.9111,1575
18.9139,1576
18.9167,1571
18.9194,1546
18.9222,1539
18.9250,1520
18.9278,1514
18.9306,1530
18.9333,1538
18.9361,1539
18.9389,1545
18.9417,1543
18.9444,1530
18.9472,1534
18.9500,1530
18.9528,1535
18.9556,1526
18.9583,1528
18.9611,1528
18.9639,1530
18.9667,1512
18.9694,1520
18.9722,1522
18.9750,1530
18.9778,1534
18.9806,1533
18.9833,1526
18.9861,1522
18.9889,1529
18.9917,1550
18.9944,1569
18.9972,1578
19.0000,1583
19.0028,1568
19.0056,1552
19.0083,1555
19.0111,1574
19.0139,1596
19.0167,1601
19.0194,1604
19.0222,1585
19.0250,1571
19.0278,1568
19.0306,1570
19.0333,1579
19.0361,1578
19.0389,1585
19.0417,1605
19.0444,1630
19.0472,1631
19.0500,1630
19.0528,1612
19.0556,1611
19.0583,1602
19.0611,1606
19.0639,1608
19.0667,1627
19.0694,1632
19.0722,1642
19.0750,1640
19.0778,1629
19.0806,1607
19.0833,1596
19.0861,1587
19.0889,1610
19.0917,1620
19.0944,1622
19.0972,1610
19.1000,1589
19.1028,1585
19.1056,1590
19.1083,1612
19.1111,1633
19.1139,1643
19.1167,1646
19.1194,1652
19.1222,1644
19.1250,1636
19.1278,1626
19.1306,1624
19.1333,1632
19.1361,1650
19.1389,1656
19.1417,1644
19.1444,1644
19.1472,1640
19.1500,1635
19.1528,1645
19.1556,1649
19.1583,1652
19.1611,1645
19.1639,1637
19.1667,1627
19.1694,1610
19.1722,1623
19.1750,1621
19.1778,1640
19.1806,1655
19.1833,1665
19.1861,1669
19.1889,1668
19.1917,1659
19.1944,1653
19.1972,1652
19.2000,1662
19.2028,1665
19.2056,1668
19.2083,1660
19.2111,1661
19.2139,1657
19.2167,1649
19.2194,1654
19.2222,1669
19.2250,1680
19.2278,1684
19.2306,1685
19.2333,1695
19.2361,1695
19.2389,1693
19.2417,1682
19.2444,1668
19.2472,1657
19.2500,1661
19.2528,1681
19.2556,1692
19.2583,1696
19.2611,1683
19.2639,1676
19.2667,1667
19.2694,1675
19.2722,1679
19.2750,1695
19.2778,1692
19.2806,1682
19.2833,1667
19.2861,1668
19.2889,1681
19.2917,1691
19.2944,1709
19.2972,1722
19.3000,1718
19.3028,1700
19.3056,1687
19.3083,1676
19.3111,1682
19.3139,1676
19.3167,1685
19.3194,1691
19.3222,1703
19.3250,1699
19.3278,1694
19.3306,1696
19.3333,1709
19.3361,1707
19.3389,1710
19.3417,1709
19.3444,1713
19.3472,1713
19.3500,1716
19.3528,1718
19.3556,1719
19.3583,1713
19.3611,1708
19.3639,1706
19.3667,1688
19.3694,1695
19.3722,1703
19.3750,1733
19.3778,1721
19.3806,1729
19.3833,1734
19.3861,1734
19.3889,1738
19.3917,1733
19.3944,1735
19.3972,1739
19.4000,1741
19.4028,1754
19.4056,1749
19.4083,1743
19.4111,1743
19.4139,1740
19.4167,1732
19.4194,1729
19.4222,1725
19.4250,1733
19.4278,1744
19.4306,1766
19.4333,1777
19.4361,1778
19.4389,1767
19.4417,1753
19.4444,1739
19.4472,1734
19.4500,1747
19.4528,1746
19.4556,1745
19.4583,1745
19.4611,1743
19.4639,1721
19.4667,1720
19.4694,1717
19.4722,1735
19.4750,1752
19.4778,1751
19.4806,1759
19.4833,1755
19.4861,1760
19.4889,1751
19.4917,1752
19.4944,1758
19.4972,1765
19.5000,1773
19.5028,1787
19.5056,1790
19.5083,1786
19.5111,1770
19.5139,1776
19.5167,1760
19.5194,1758
19.5222,1754
19.5250,1763
19.5278,1763
19.5306,1771
19.5333,1762
19.5361,1766
19.5389,1766
19.5417,1770
19.5444,1768
19.5472,1777
19.5500,1785
19.5528,1788
19.5556,1795
19.5583,1796
19.5611,1806
19.5639,1810
19.5667,1813
19.5694,1817
19.5722,1809
19.5750,1811
19.5778,1821
19.5806,1845
19.5833,1861
19.5861,1874
19.5889,1873
19.5917,1857
19.5944,1836
19.5972,1833
19.6000,1817
19.6028,1816
19.6056,1827
19.6083,1833
19.6111,1831
19.6139,1804
19.6167,1773
19.6194,1751
19.6222,1733
19.6250,1733
19.6278,1742
19.6306,1750
19.6333,1747
19.6361,1734
19.6389,1734
19.6417,1746
19.6444,1751
19.6472,1746
19.6500,1737
19.6528,1723
19.6556,1668
19.6583,1569
19.6611,1465
19.6639,1426
19.6667,1448
19.6694,1529
19.6722,1673
19.6750,1873
19.6778,2140
19.6806,2465
19.6833,2783
19.6861,3120
19.6889,3351
19.6917,3361
19.6944,3378
19.6972,3378
19.7000,3362
19.7028,3140
19.7056,2545
19.7083,1954
19.7111,1545
19.7139,1402
19.7167,1423
19.7194,1506
19.7222,1597
19.7250,1665
19.7278,1705
19.7306,1734
19.7333,1741
19.7361,1723
19.7389,1687
19.7417,1659
19.7444,1650
19.7472,1651
19.7500,1664
19.7528,1678
19.7556,1689
19.7583,1678
19.7611,1673
19.7639,1676
19.7667,1682
19.7694,1689
19.7722,1711
19.7750,1697
19.7778,1681
19.7806,1673
19.7833,1671
19.7861,1678
19.7889,1694
19.7917,1708
19.7944,1696
19.7972,1677
19.8000,1647
19.8028,1644
19.8056,1656
19.8083,1660
19.8111,1676
19.8139,1699
19.8167,1699
19.8194,1693
19.8222,1695
19.8250,1690
19.8278,1696
19.8306,1705
19.8333,1713
19.8361,1704
19.8389,1698
19.8417,1706
19.8444,1717
19.8472,1725
19.8500,1739
19.8528,1740
19.8556,1738
19.8583,1735
19.8611,1718
19.8639,1710
19.8667,1733
19.8694,1749
19.8722,1756
19.8750,1763
19.8778,1767
19.8806,1757
19.8833,1764
19.8861,1776
19.8889,1780
19.8917,1789
19.8944,1790
19.8972,1784
19.9000,1779
19.9028,1988
19.9056,1981
19.9083,1991
19.9111,1998
19.9139,1987
19.9167,1977
19.9194,1964
19.9222,1933
19.9250,1922
19.9278,1900
19.9306,1891
19.9333,1869
19.9361,1834
19.9389,1793
19.9417,1766
19.9444,1751
19.9472,1743
19.9500,1748
19.9528,1735
19.9556,1709
19.9583,1685
19.9611,1655
19.9639,1640
19.9667,1622
19.9694,1608
19.9722,1616
19.9750,1627
19.9778,1624
19.9806,1619
19.9833,1610
19.9861,1616
19.9889,1618
19.9917,1601
19.9944,1588
19.9972,1589
20.0000,1583
20.0028,1575
20.0056,1566
20.0083,1581
20.0111,1596
20.0139,1608
20.0167,1599
20.0194,1604
20.0222,1585
20.0250,1578
20.0278,1586
20.0306,1594
20.0333,1594
20.0361,1606
20.0389,1602
20.0417,1599
20.0444,1586
20.0472,1564
20.0500,1574
20.0528,1601
20.0556,1613
20.0583,1611
20.0611,1599
20.0639,1593
20.0667,1598
20.0694,1606
20.0722,1610
20.0750,1592
20.0778,1587
20.0806,1576
20.0833,1588
20.0861,1602
20.0889,1619
20.0917,1629
20.0944,1628
20.0972,1624
20.1000,1606
20.1028,1595
20.1056,1588
20.1083,1616
20.1111,1625
20.1139,1629
20.1167,1627
20.1194,1619
20.1222,1622
20.1250,1611
20.1278,1619
20.1306,1632
20.1333,1639
20.1361,1640
20.1389,1628
20.1417,1619
20.1444,1613
20.1472,1619
20.1500,1623
20.1528,1628
20.1556,1627
20.1583,1637
20.1611,1637
20.1639,1641
20.1667,1640
20.1694,1633
20.1722,1630
20.1750,1614
20.1778,1604
20.1806,1588
20.1833,1601
20.1861,1609
20.1889,1629
20.1917,1623
20.1944,1628
20.1972,1635
20.2000,1636
20.2028,1629
20.2056,1618
20.2083,1612
20.2111,1616
20.2139,1620
20.2167,1633
20.2194,1652
20.2222,1661
20.2250,1675
20.2278,1683
20.2306,1675
20.2333,1664
20.2361,1645
20.2389,1646
20.2417,1650
20.2444,1645
20.2472,1658
20.2500,1664
20.2528,1675
20.2556,1664
20.2583,1658
20.2611,1651
20.2639,1652
20.2667,1657
20.2694,1658
20.2722,1641
20.2750,1636
20.2778,1626
20.2806,1625
20.2833,1646
20.2861,1652
20.2889,1655
20.2917,1656
20.2944,1666
20.2972,1661
20.3000,1670
20.3028,1671
20.3056,1678
20.3083,1678
20.3111,1681
20.3139,1684
20.3167,1674
20.3194,1668
20.3222,1667
20.3250,1660
20.3278,1674
20.3306,1684
20.3333,1683
20.3361,1681
20.3389,1680
20.3417,1677
20.3444,1663
20.3472,1674
20.3500,1694
20.3528,1703
20.3556,1699
20.3583,1697
20.3611,1687
20.3639,1687
20.3667,1681
20.3694,1672
20.3722,1688
20.3750,1682
20.3778,1692
20.3806,1695
20.3833,1695
20.3861,1700
20.3889,1697
20.3917,1690
20.3944,1684
20.3972,1675
20.4000,1668
20.4028,1678
20.4056,1682
20.4083,1684
20.4111,1690
20.4139,1705
20.4167,1705
20.4194,1702
20.4222,1699
20.4250,1698
20.4278,1699
20.4306,1703
20.4333,1702
20.4361,1697
20.4389,1689
20.4417,1688
20.4444,1683
20.4472,1687
20.4500,1701
20.4528,1708
20.4556,1706
20.4583,1712
20.4611,1702
20.4639,1694
20.4667,1693
20.4694,1701
20.4722,1691
20.4750,1688
20.4778,1682
20.4806,1674
20.4833,1667
20.4861,1675
20.4889,1705
20.4917,1728
20.4944,1742
20.4972,1740
20.5000,1741
20.5028,1729
20.5056,1734
20.5083,1719
20.5111,1719
20.5139,1724
20.5167,1724
20.5194,1727
20.5222,1739
20.5250,1734
20.5278,1740
20.5306,1745
20.5333,1742
20.5361,1734
20.5389,1730
20.5417,1727
20.5444,1714
20.5472,1720
20.5500,1720
20.5528,1720
20.5556,1726
20.5583,1726
20.5611,1726
20.5639,1720
20.5667,1707
20.5694,1715
20.5722,1715
20.5750,1717
20.5778,1711
20.5806,1708
20.5833,1710
20.5861,1697
20.5889,1696
20.5917,1700
20.5944,1712
20.5972,1732
20.6000,1739
20.6028,1746
20.6056,1763
20.6083,1781
20.6111,1791
20.6139,1799
20.6167,1773
20.6194,1775
20.6222,1769
20.6250,1774
20.6278,1773
20.6306,1787
20.6333,1811
20.6361,1830
20.6389,1837
20.6417,1833
20.6444,1810
20.6472,1793
20.6500,1779
20.6528,1776
20.6556,1769
20.6583,1762
20.6611,1745
20.6639,1735
20.6667,1719
20.6694,1702
20.6722,1701
20.6750,1701
20.6778,1691
20.6806,1701
20.6833,1706
20.6861,1702
20.6889,1699
20.6917,1696
20.6944,1690
20.6972,1677
20.7000,1674
20.7028,1664
20.7056,1643
20.7083,1597
20.7111,1527
20.7139,1444
20.7167,1412
20.7194,1445
20.7222,1538
20.7250,1681
20.7278,1911
20.7306,2226
20.7333,2570
20.7361,2916
20.7389,3252
20.7417,3343
20.7444,3362
20.7472,3370
20.7500,3376
20.7528,3356
20.7556,3003
20.7583,2370
20.7611,1830
20.7639,1519
20.7667,1433
20.7694,1454
20.7722,1551
20.7750,1620
20.7778,1672
20.7806,1712
20.7833,1719
20.7861,1715
20.7889,1682
20.7917,1636
20.7944,1600
20.7972,1601
20.8000,1620
20.8028,1636
20.8056,1659
20.8083,1673
20.8111,1647
20.8139,1651
20.8167,1644
20.8194,1650
20.8222,1663
20.8250,1678
20.8278,1665
20.8306,1655
20.8333,1638
20.8361,1629
20.8389,1639
20.8417,1661
20.8444,1664
20.8472,1657
20.8500,1635
20.8528,1622
20.8556,1623
20.8583,1638
20.8611,1660
20.8639,1672
20.8667,1667
20.8694,1652
20.8722,1646
20.8750,1637
20.8778,1641
20.8806,1651
20.8833,1668
20.8861,1677
20.8889,1666
20.8917,1661
20.8944,1645
20.8972,1663
20.9000,1685
20.9028,1701
20.9056,1712
20.9083,1699
20.9111,1685
20.9139,1682
20.9167,1687
20.9194,1706
20.9222,1722
20.9250,1730
20.9278,1724
20.9306,1708
20.9333,1706
20.9361,1713
20.9389,1741
20.9417,1760
20.9444,1747
20.9472,1745
20.9500,1745
20.9528,1754
20.9556,1934
20.9583,1946
20.9611,1959
20.9639,1954
20.9667,1944
20.9694,1927
20.9722,1898
20.9750,1883
20.9778,1877
20.9806,1866
20.9833,1850
20.9861,1834
20.9889,1801
20.9917,1759
20.9944,1726
20.9972,1709
21.0000,1713
21.0028,1705
21.0056,1695
21.0083,1670
21.0111,1633
21.0139,1618
21.0167,1604
21.0194,1589
21.0222,1586
21.0250,1588
21.0278,1589
21.0306,1585
21.0333,1579
21.0361,1583
21.0389,1584
21.0417,1567
21.0444,1565
21.0472,1567
21.0500,1570
21.0528,1560
21.0556,1546
21.0583,1551
21.0611,1574
21.0639,1591
21.0667,1599
21.0694,1584
21.0722,1574
21.0750,1562
21.0778,1569
21.0806,1577
21.0833,1586
21.0861,1589
21.0889,1581
21.0917,1567
21.0944,1569
21.0972,1575
21.1000,1574
21.1028,1584
21.1056,1585
21.1083,1576
21.1111,1573
21.1139,1575
21.1167,1578
21.1194,1591
21.1222,1602
21.1250,1602
21.1278,1607
21.1306,1601
21.1333,1599
21.1361,1600
21.1389,1619
21.1417,1629
21.1444,1643
21.1472,1632
21.1500,1632
21.1528,1639
21.1556,1643
21.1583,1634
21.1611,1625
21.1639,1633
21.1667,1646
21.1694,1652
21.1722,1661
21.1750,1663
21.1778,1660
21.1806,1652
21.1833,1661
21.1861,1655
21.1889,1658
21.1917,1642
21.1944,1637
21.1972,1654
21.2000,1668
21.2028,1673
21.2056,1683
21.2083,1670
21.2111,1657
21.2139,1654
21.2167,1665
21.2194,1674
21.2222,1675
21.2250,1672
21.2278,1673
21.2306,1669
21.2333,1657
21.2361,1660
21.2389,1668
21.2417,1687
21.2444,1685
21.2472,1691
21.2500,1686
21.2528,1681
21.2556,1672
21.2583,1671
21.2611,1670
21.2639,1663
21.2667,1665
21.2694,1667
21.2722,1663
21.2750,1671
21.2778,1669
21.2806,1675
21.2833,1675
21.2861,1678
21.2889,1675
21.2917,1674
21.2944,1668
21.2972,1665
21.3000,1667
21.3028,1661
21.3056,1663
21.3083,1657
21.3111,1658
21.3139,1667
21.3167,1664
21.3194,1684
21.3222,1691
21.3250,1692
21.3278,1682
21.3306,1665
21.3333,1677
21.3361,1663
21.3389,1658
21.3417,1671
21.3444,1678
21.3472,1686
21.3500,1688
21.3528,1691
21.3556,1695
21.3583,1699
21.3611,1693
21.3639,1682
21.3667,1682
21.3694,1688
21.3722,1698
21.3750,1697
21.3778,1702
21.3806,1695
21.3833,1702
21.3861,1695
21.3889,1695
21.3917,1689
21.3944,1690
21.3972,1706
21.4000,1715
21.4028,1712
21.4056,1711
21.4083,1720
21.4111,1726
21.4139,1724
21.4167,1714
21.4194,1707
21.4222,1706
21.4250,1714
21.4278,1725
21.4306,1710
21.4333,1704
21.4361,1714
21.4389,1724
21.4417,1736
21.4444,1734
21.4472,1730
21.4500,1729
21.4528,1718
21.4556,1714
21.4583,1721
21.4611,1726
21.4639,1734
21.4667,1743
21.4694,1743
21.4722,1745
21.4750,1737
21.4778,1744
21.4806,1738
21.4833,1742
21.4861,1743
21.4889,1735
21.4917,1729
21.4944,1709
21.4972,1713
21.5000,1721
21.5028,1742
21.5056,1744
21.5083,1758
21.5111,1759
21.5139,1739
21.5167,1727
21.5194,1729
21.5222,1740
21.5250,1731
21.5278,1732
21.5306,1728
21.5333,1730
21.5361,1733
21.5389,1725
21.5417,1723
21.5444,1724
21.5472,1723
21.5500,1730
21.5528,1751
21.5556,1766
21.5583,1760
21.5611,1754
21.5639,1740
21.5667,1736
21.5694,1747
21.5722,1757
21.5750,1775
21.5778,1775
21.5806,1772
21.5833,1751
21.5861,1740
21.5889,1734
21.5917,1729
21.5944,1746
21.5972,1754
21.6000,1753
21.6028,1759
21.6056,1755
21.6083,1748
21.6111,1742
21.6139,1740
21.6167,1751
21.6194,1748
21.6222,1741
21.6250,1726
21.6278,1720
21.6306,1717
21.6333,1714
21.6361,1712
21.6389,1720
21.6417,1743
21.6444,1751
21.6472,1746
21.6500,1736
21.6528,1729
21.6556,1723
21.6583,1726
21.6611,1733
21.6639,1736
21.6667,1734
21.6694,1719
21.6722,1712
21.6750,1710
21.6778,1720
21.6806,1724
21.6833,1742
21.6861,1740
21.6889,1731
21.6917,1725
21.6944,1721
21.6972,1724
21.7000,1725
21.7028,1729
21.7056,1728
21.7083,1736
21.7111,1752
21.7139,1745
21.7167,1740
21.7194,1766
21.7222,1781
21.7250,1796
21.7278,1803
21.7306,1781
21.7333,1783
21.7361,1774
21.7389,1779
21.7417,1790
21.7444,1812
21.7472,1820
21.7500,1812
21.7528,1805
21.7556,1792
21.7583,1784
21.7611,1769
21.7639,1760
21.7667,1749
21.7694,1739
21.7722,1726
21.7750,1714
21.7778,1699
21.7806,1698
21.7833,1697
21.7861,1700
21.7889,1709
21.7917,1700
21.7944,1699
21.7972,1692
21.8000,1690
21.8028,1690
21.8056,1683
21.8083,1697
21.8111,1680
21.8139,1644
21.8167,1575
21.8194,1475
21.8222,1413
21.8250,1412
21.8278,1474
21.8306,1577
21.8333,1742
21.8361,1995
21.8389,2332
21.8417,2688
21.8444,3040
21.8472,3340
21.8500,3361
21.8528,3375
21.8556,3380
21.8583,3362
21.8611,3274
21.8639,2780
21.8667,2136
21.8694,1663
21.8722,1437
21.8750,1399
21.8778,1464
21.8806,1546
21.8833,1611
21.8861,1662
21.8889,1693
21.8917,1700
21.8944,1675
21.8972,1641
21.9000,1607
21.9028,1587
21.9056,1589
21.9083,1612
21.9111,1647
21.9139,1645
21.9167,1632
21.9194,1611
21.9222,1579
21.9250,1579
21.9278,1602
21.9306,1616
21.9333,1623
21.9361,1615
21.9389,1606
21.9417,1603
21.9444,1602
21.9472,1633
21.9500,1654
21.9528,1652
21.9556,1628
21.9583,1608
21.9611,1589
21.9639,1592
21.9667,1604
21.9694,1628
21.9722,1638
21.9750,1648
21.9778,1634
21.9806,1614
21.9833,1615
21.9861,1624
21.9889,1647
21.9917,1648
21.9944,1641
21.9972,1631
22.0000,1625
22.0028,1617
22.0056,1627
22.0083,1648
22.0111,1649
22.0139,1644
22.0167,1638
22.0194,1629
22.0222,1617
22.0250,1626
22.0278,1654
22.0306,1675
22.0333,1693
22.0361,1686
22.0389,1687
22.0417,1678
22.0444,1678
22.0472,1690
22.0500,1694
22.0528,1700
22.0556,1678
22.0583,1664
22.0611,1654
22.0639,1837
22.0667,1858
22.0694,1862
22.0722,1876
22.0750,1864
22.0778,1834
22.0806,1808
22.0833,1788
22.0861,1772
22.0889,1771
22.0917,1771
22.0944,1765
22.0972,1739
22.1000,1699
22.1028,1663
22.1056,1642
22.1083,1633
22.1111,1617
22.1139,1612
22.1167,1585
22.1194,1563
22.1222,1543
22.1250,1542
22.1278,1532
22.1306,1528
22.1333,1518
22.1361,1507
22.1389,1490
22.1417,1483
22.1444,1480
22.1472,1496
22.1500,1493
22.1528,1489
22.1556,1471
22.1583,1469
22.1611,1478
22.1639,1487
22.1667,1499
22.1694,1516
22.1722,1523
22.1750,1515
22.1778,1490
22.1806,1475
22.1833,1467
22.1861,1483
22.1889,1494
22.1917,1514
22.1944,1526
22.1972,1529
22.2000,1507
22.2028,1496
22.2056,1493
22.2083,1495
22.2111,1498
22.2139,1505
22.2167,1506
22.2194,1512
22.2222,1514
22.2250,1515
22.2278,1519
22.2306,1515
22.2333,1514
22.2361,1507
22.2389,1492
22.2417,1486
22.2444,1497
22.2472,1519
22.2500,1528
22.2528,1542
22.2556,1532
22.2583,1535
22.2611,1523
22.2639,1520
22.2667,1517
22.2694,1526
22.2722,1539
22.2750,1524
22.2778,1530
22.2806,1515
22.2833,1512
22.2861,1509
22.2889,1513
22.2917,1516
22.2944,1516
22.2972,1517
22.3000,1515
22.3028,1512
22.3056,1516
22.3083,1509
22.3111,1525
22.3139,1523
22.3167,1520
22.3194,1515
22.3222,1515
22.3250,1524
22.3278,1525
22.3306,1528
22.3333,1534
22.3361,1524
22.3389,1523
22.3417,1516
22.3444,1522
22.3472,1524
22.3500,1529
22.3528,1545
22.3556,1535
22.3583,1524
22.3611,1518
22.3639,1515
22.3667,1511
22.3694,1510
22.3722,1519
22.3750,1520
22.3778,1525
22.3806,1531
22.3833,1538
22.3861,1537
22.3889,1532
22.3917,1528
22.3944,1535
22.3972,1538
22.4000,1549
22.4028,1552
22.4056,1548
22.4083,1543
22.4111,1532
22.4139,1523
22.4167,1538
22.4194,1545
22.4222,1543
22.4250,1547
22.4278,1544
22.4306,1538
22.4333,1534
22.4361,1545
22.4389,1548
22.4417,1552
22.4444,1544
22.4472,1568
22.4500,1574
22.4528,1566
22.4556,1566
22.4583,1557
22.4611,1544
22.4639,1549
22.4667,1550
22.4694,1559
22.4722,1569
22.4750,1577
22.4778,1580
22.4806,1589
22.4833,1584
22.4861,1593
22.4889,1579
22.4917,1582
22.4944,1585
22.4972,1588
22.5000,1580
22.5028,1575
22.5056,1566
22.5083,1554
22.5111,1560
22.5139,1572
22.5167,1580
22.5194,1583
22.5222,1586
22.5250,1594
22.5278,1593
22.5306,1579
22.5333,1560
22.5361,1548
22.5389,1550
22.5417,1552
22.5444,1565
22.5472,1566
22.5500,1574
22.5528,1582
22.5556,1580
22.5583,1587
22.5611,1593
22.5639,1595
22.5667,1609
22.5694,1611
22.5722,1597
22.5750,1577
22.5778,1550
22.5806,1552
22.5833,1552
22.5861,1576
22.5889,1584
22.5917,1596
22.5944,1600
22.5972,1597
22.6000,1589
22.6028,1584
22.6056,1589
22.6083,1592
22.6111,1598
22.6139,1604
22.6167,1601
22.6194,1606
22.6222,1591
22.6250,1586
22.6278,1592
22.6306,1592
22.6333,1609
22.6361,1612
22.6389,1608
22.6417,1604
22.6444,1602
22.6472,1606
22.6500,1606
22.6528,1612
22.6556,1616
22.6583,1618
22.6611,1622
22.6639,1613
22.6667,1611
22.6694,1616
22.6722,1625
22.6750,1626
22.6778,1627
22.6806,1623
22.6833,1619
22.6861,1623
22.6889,1618
22.6917,1610
22.6944,1611
22.6972,1618
22.7000,1618
22.7028,1631
22.7056,1645
22.7083,1648
22.7111,1651
22.7139,1648
22.7167,1650
22.7194,1656
22.7222,1668
22.7250,1666
22.7278,1679
22.7306,1668
22.7333,1668
22.7361,1673
22.7389,1685
22.7417,1682
22.7444,1674
22.7472,1670
22.7500,1670
22.7528,1669
22.7556,1678
22.7583,1685
22.7611,1687
22.7639,1694
22.7667,1691
22.7694,1699
22.7722,1725
22.7750,1745
22.7778,1744
22.7806,1724
22.7833,1704
22.7861,1706
22.7889,1715
22.7917,1731
22.7944,1744
22.7972,1748
22.8000,1754
22.8028,1768
22.8056,1765
22.8083,1761
22.8111,1746
22.8139,1731
22.8167,1717
22.8194,1715
22.8222,1714
22.8250,1701
22.8278,1674
22.8306,1655
22.8333,1654
22.8361,1640
22.8389,1637
22.8417,1625
22.8444,1631
22.8472,1624
22.8500,1623
22.8528,1628
22.8556,1633
22.8583,1631
22.8611,1629
22.8639,1600
22.8667,1556
22.8694,1481
22.8722,1394
22.8750,1342
22.8778,1340
22.8806,1400
22.8833,1527
22.8861,1711
22.8889,1967
22.8917,2305
22.8944,2660
22.8972,3003
22.9000,3326
22.9028,3348
22.9056,3359
22.9083,3378
22.9111,3372
22.9139,3190
22.9167,2611
22.9194,1989
22.9222,1544
22.9250,1366
22.9278,1354
22.9306,1434
22.9333,1537
22.9361,1612
22.9389,1671
22.9417,1700
22.9444,1691
22.9472,1663
22.9500,1615
22.9528,1594
22.9556,1581
22.9583,1580
22.9611,1599
22.9639,1618
22.9667,1615
22.9694,1613
22.9722,1573
22.9750,1581
22.9778,1586
22.9806,1611
22.9833,1628
22.9861,1632
22.9889,1628
22.9917,1611
22.9944,1610
22.9972,1620
23.0000,1635
23.0028,1635
23.0056,1637
23.0083,1608
23.0111,1590
23.0139,1589
23.0167,1601
23.0194,1623
23.0222,1651
23.0250,1659
23.0278,1642
23.0306,1627
23.0333,1609
23.0361,1613
23.0389,1625
23.0417,1622
23.0444,1627
23.0472,1629
23.0500,1626
23.0528,1629
23.0556,1639
23.0583,1646
23.0611,1657
23.0639,1662
23.0667,1663
23.0694,1655
23.0722,1646
23.0750,1646
23.0778,1653
23.0806,1672
23.0833,1689
23.0861,1690
23.0889,1700
23.0917,1692
23.0944,1703
23.0972,1722
23.1000,1738
23.1028,1749
23.1056,1755
23.1083,1749
23.1111,1740
23.1139,1935
23.1167,1935
23.1194,1941
23.1222,1964
23.1250,1964
23.1278,1948
23.1306,1930
23.1333,1911
23.1361,1886
23.1389,1863
23.1417,1856
23.1444,1848
23.1472,1843
23.1500,1811
23.1528,1794
23.1556,1766
23.1583,1750
23.1611,1735
23.1639,1724
23.1667,1702
23.1694,1687
23.1722,1678
23.1750,1662
23.1778,1648
23.1806,1638
23.1833,1637
23.1861,1634
23.1889,1612
23.1917,1600
23.1944,1595
23.1972,1595
23.2000,1616
23.2028,1626
23.2056,1634
23.2083,1637
23.2111,1626
23.2139,1619
23.2167,1614
23.2194,1620
23.2222,1629
23.2250,1638
23.2278,1633
23.2306,1631
23.2333,1628
23.2361,1631
23.2389,1634
23.2417,1647
23.2444,1661
23.2472,1655
23.2500,1650
23.2528,1639
23.2556,1630
23.2583,1629
23.2611,1629
23.2639,1650
23.2667,1670
23.2694,1672
23.2722,1678
23.2750,1678
23.2778,1666
23.2806,1655
23.2833,1655
23.2861,1650
23.2889,1657
23.2917,1653
23.2944,1651
23.2972,1645
23.3000,1660
23.3028,1663
23.3056,1668
23.3083,1656
23.3111,1656
23.3139,1651
23.3167,1661
23.3194,1661
23.3222,1667
23.3250,1666
23.3278,1668
23.3306,1661
23.3333,1661
23.3361,1660
23.3389,1663
23.3417,1664
23.3444,1669
23.3472,1671
23.3500,1664
23.3528,1659
23.3556,1664
23.3583,1665
23.3611,1669
23.3639,1669
23.3667,1663
23.3694,1661
23.3722,1657
23.3750,1661
23.3778,1674
23.3806,1685
23.3833,1683
23.3861,1684
23.3889,1666
23.3917,1657
23.3944,1655
23.3972,1668
23.4000,1669
23.4028,1667
23.4056,1657
23.4083,1647
23.4111,1650
23.4139,1664
23.4167,1677
23.4194,1679
23.4222,1688
23.4250,1686
23.4278,1668
23.4306,1660
23.4333,1651
23.4361,1660
23.4389,1660
23.4417,1668
23.4444,1675
23.4472,1683
23.4500,1682
23.4528,1671
23.4556,1673
23.4583,1662
23.4611,1662
23.4639,1672
23.4667,1677
23.4694,1671
23.4722,1669
23.4750,1674
23.4778,1681
23.4806,1678
23.4833,1664
23.4861,1654
23.4889,1655
23.4917,1661
23.4944,1667
23.4972,1671
23.5000,1672
23.5028,1686
23.5056,1686
23.5083,1691
23.5111,1684
23.5139,1661
23.5167,1655
23.5194,1672
23.5222,1687
23.5250,1691
23.5278,1703
23.5306,1687
23.5333,1690
23.5361,1689
23.5389,1690
23.5417,1686
23.5444,1682
23.5472,1671
23.5500,1672
23.5528,1684
23.5556,1692
23.5583,1691
23.5611,1693
23.5639,1692
23.5667,1702
23.5694,1712
23.5722,1709
23.5750,1709
23.5778,1706
23.5806,1713
23.5833,1712
23.5861,1714
23.5889,1710
23.5917,1707
23.5944,1702
23.5972,1701
23.6000,1688
23.6028,1683
23.6056,1700
23.6083,1722
23.6111,1733
23.6139,1729
23.6167,1723
23.6194,1693
23.6222,1686
23.6250,1698
23.6278,1700
23.6306,1703
23.6333,1726
23.6361,1738
23.6389,1746
23.6417,1745
23.6444,1744
23.6472,1732
23.6500,1723
23.6528,1714
23.6556,1707
23.6583,1698
23.6611,1702
23.6639,1708
23.6667,1709
23.6694,1713
23.6722,1716
23.6750,1716
23.6778,1721
23.6806,1716
23.6833,1714
23.6861,1704
23.6889,1713
23.6917,1726
23.6944,1722
23.6972,1709
23.7000,1709
23.7028,1725
23.7056,1736
23.7083,1738
23.7111,1732
23.7139,1737
23.7167,1724
23.7194,1725
23.7222,1726
23.7250,1735
23.7278,1729
23.7306,1729
23.7333,1731
23.7361,1728
23.7389,1746
23.7417,1755
23.7444,1753
23.7472,1751
23.7500,1747
23.7528,1740
23.7556,1735
23.7583,1737
23.7611,1740
23.7639,1744
23.7667,1732
23.7694,1732
23.7722,1713
23.7750,1699
23.7778,1684
23.7806,1691
23.7833,1714
23.7861,1747
23.7889,1784
23.7917,1797
23.7944,1783
23.7972,1768
23.8000,1758
23.8028,1755
23.8056,1747
23.8083,1759
23.8111,1772
23.8139,1778
23.8167,1768
23.8194,1761
23.8222,1748
23.8250,1746
23.8278,1748
23.8306,1751
23.8333,1762
23.8361,1770
23.8389,1778
23.8417,1788
23.8444,1794
23.8472,1796
23.8500,1803
23.8528,1814
23.8556,1827
23.8583,1836
23.8611,1838
23.8639,1839
23.8667,1853
23.8694,1865
23.8722,1867
23.8750,1865
23.8778,1839
23.8806,1828
23.8833,1815
23.8861,1813
23.8889,1829
23.8917,1831
23.8944,1836
23.8972,1824
23.9000,1801
23.9028,1773
23.9056,1756
23.9083,1740
23.9111,1733
23.9139,1729
23.9167,1727
23.9194,1716
23.9222,1725
23.9250,1736
23.9278,1741
23.9306,1737
23.9333,1733
23.9361,1719
23.9389,1709
23.9417,1647
23.9444,1568
23.9472,1490
23.9500,1445
23.9528,1456
23.9556,1519
23.9583,1644
23.9611,1842
23.9639,2126
23.9667,2451
23.9694,2788
23.9722,3137
23.9750,3342
23.9778,3366
23.9806,3380
23.9833,3384
23.9861,3375
23.9889,3230
23.9917,2666
23.9944,2052
23.9972,1622
24.0000,1453
24.0028,1439
24.0056,1512
24.0083,1590
24.0111,1657
24.0139,1717
24.0167,1750
24.0194,1758
24.0222,1738
24.0250,1705
24.0278,1673
24.0306,1651
24.0333,1660
24.0361,1677
24.0389,1690
24.0417,1703
24.0444,1710
24.0472,1692
24.0500,1677
24.0528,1681
24.0556,1700
24.0583,1715
24.0611,1728
24.0639,1725
24.0667,1703
24.0694,1695
24.0722,1703
24.0750,1725
24.0778,1735
24.0806,1734
24.0833,1723
24.0861,1699
24.0889,1695
24.0917,1701
24.0944,1710
24.0972,1711
24.1000,1719
24.1028,1713
24.1056,1718
24.1083,1720
24.1111,1739
24.1139,1755
24.1167,1769
24.1194,1757
24.1222,1737
24.1250,1720
24.1278,1713
24.1306,1716
24.1333,1733
24.1361,1749
24.1389,1758
24.1417,1756
24.1444,1748
24.1472,1757
24.1500,1744
24.1528,1746
24.1556,1757
24.1583,1769
24.1611,1766
24.1639,1772
24.1667,1754
24.1694,1759
24.1722,1762
24.1750,1786
24.1778,1815
24.1806,1824
24.1833,1825
24.1861,1806
24.1889,1794
24.1917,1950
24.1944,1959
24.1972,1978
24.2000,1994
24.2028,1989
24.2056,1978
24.2083,1957
24.2111,1945
24.2139,1927
24.2167,1922
24.2194,1895
24.2222,1870
24.2250,1839
24.2278,1792
24.2306,1763
24.2333,1753
24.2361,1748
24.2389,1740
24.2417,1717
24.2444,1696
24.2472,1682
24.2500,1670
24.2528,1672
24.2556,1665
24.2583,1662
24.2611,1660
24.2639,1644
24.2667,1603
24.2694,1586
24.2722,1579
24.2750,1584
24.2778,1594
24.2806,1614
24.2833,1609
24.2861,1605
24.2889,1596
24.2917,1590
24.2944,1597
24.2972,1599
24.3000,1600
24.3028,1597
24.3056,1597
24.3083,1593
24.3111,1605
24.3139,1607
24.3167,1609
24.3194,1605
24.3222,1601
24.3250,1600
24.3278,1591
24.3306,1595
24.3333,1605
24.3361,1617
24.3389,1610
24.3417,1592
24.3444,1595
24.3472,1600
24.3500,1608
24.3528,1607
24.3556,1614
24.3583,1611
24.3611,1611
24.3639,1619
24.3667,1624
24.3694,1627
24.3722,1629
24.3750,1640
24.3778,1659
24.3806,1676
24.3833,1677
24.3861,1658
24.3889,1639
24.3917,1630
24.3944,1644
24.3972,1660
24.4000,1664
24.4028,1662
24.4056,1663
24.4083,1652
24.4111,1644
24.4139,1652
24.4167,1670
24.4194,1680
24.4222,1678
24.4250,1658
24.4278,1637
24.4306,1625
24.4333,1639
24.4361,1646
24.4389,1653
24.4417,1656
24.4444,1648
24.4472,1643
24.4500,1651
24.4528,1666
24.4556,1671
24.4583,1671
24.4611,1664
24.4639,1661
24.4667,1652
24.4694,1642
24.4722,1659
24.4750,1657
24.4778,1661
24.4806,1676
24.4833,1689
24.4861,1664
24.4889,1646
24.4917,1646
24.4944,1669
24.4972,1684
24.5000,1696
24.5028,1696
24.5056,1676
24.5083,1670
24.5111,1663
24.5139,1664
24.5167,1657
24.5194,1672
24.5222,1674
24.5250,1663
24.5278,1661
24.5306,1649
24.5333,1656
24.5361,1672
24.5389,1670
24.5417,1660
24.5444,1659
24.5472,1676
24.5500,1677
24.5528,1691
24.5556,1709
24.5583,1695
24.5611,1673
24.5639,1660
24.5667,1652
24.5694,1657
24.5722,1670
24.5750,1663
24.5778,1674
24.5806,1686
24.5833,1684
24.5861,1676
24.5889,1652
24.5917,1637
24.5944,1649
24.5972,1663
24.6000,1666
24.6028,1665
24.6056,1660
24.6083,1661
24.6111,1672
24.6139,1674
24.6167,1678
24.6194,1675
24.6222,1665
24.6250,1661
24.6278,1663
24.6306,1664
24.6333,1656
24.6361,1654
24.6389,1661
24.6417,1655
24.6444,1644
24.6472,1648
24.6500,1645
24.6528,1653
24.6556,1653
24.6583,1649
24.6611,1667
24.6639,1679
24.6667,1700
24.6694,1697
24.6722,1685
24.6750,1666
24.6778,1655
24.6806,1669
24.6833,1679
24.6861,1682
24.6889,1673
24.6917,1665
24.6944,1646
24.6972,1645
24.7000,1650
24.7028,1667
24.7056,1687
24.7083,1693
24.7111,1680
24.7139,1676
24.7167,1676
24.7194,1685
24.7222,1691
24.7250,1687
24.7278,1677
24.7306,1681
24.7333,1698
24.7361,1700
24.7389,1707
24.7417,1697
24.7444,1699
24.7472,1687
24.7500,1702
24.7528,1692
24.7556,1684
24.7583,1696
24.7611,1704
24.7639,1714
24.7667,1709
24.7694,1712
24.7722,1706
24.7750,1699
24.7778,1698
24.7806,1684
24.7833,1681
24.7861,1698
24.7889,1707
24.7917,1711
24.7944,1716
24.7972,1708
24.8000,1707
24.8028,1701
24.8056,1699
24.8083,1691
24.8111,1676
24.8139,1697
24.8167,1721
24.8194,1741
24.8222,1750
24.8250,1757
24.8278,1748
24.8306,1752
24.8333,1752
24.8361,1759
24.8389,1758
24.8417,1743
24.8444,1740
24.8472,1755
24.8500,1785
24.8528,1837
24.8556,1851
24.8583,1834
24.8611,1797
24.8639,1781
24.8667,1782
24.8694,1786
24.8722,1784
24.8750,1765
24.8778,1748
24.8806,1735
24.8833,1721
24.8861,1710
24.8889,1685
24.8917,1685
24.8944,1681
24.8972,1677
24.9000,1679
24.9028,1689
24.9056,1694
24.9083,1707
24.9111,1712
24.9139,1718
24.9167,1726
24.9194,1719
24.9222,1680
24.9250,1593
24.9278,1497
24.9306,1439
24.9333,1448
24.9361,1506
24.9389,1629
24.9417,1808
24.9444,2046
24.9472,2344
24.9500,2657
24.9528,2979
24.9556,3309
24.9583,3358
24.9611,3366
24.9639,3380
24.9667,3371
24.9694,3212
24.9722,2638
24.9750,2036
24.9778,1602
24.9806,1402
24.9833,1386
24.9861,1455
24.9889,1526
24.9917,1604
24.9944,1660
24.9972,1682
25.0000,1679
25.0028,1666
25.0056,1646
25.0083,1632
25.0111,1619
25.0139,1614
25.0167,1625
25.0194,1637
25.0222,1630
25.0250,1608
25.0278,1588
25.0306,1591
25.0333,1605
25.0361,1650
25.0389,1688
25.0417,1689
25.0444,1660
25.0472,1627
25.0500,1622
25.0528,1634
25.0556,1634
25.0583,1655
25.0611,1659
25.0639,1673
25.0667,1657
25.0694,1656
25.0722,1658
25.0750,1656
25.0778,1669
25.0806,1678
25.0833,1681
25.0861,1680
25.0889,1683
25.0917,1681
25.0944,1705
25.0972,1711
25.1000,1707
25.1028,1694
25.1056,1672
25.1083,1662
25.1111,1666
25.1139,1690
25.1167,1720
25.1194,1739
25.1222,1725
25.1250,1708
25.1278,1700
25.1306,1713
25.1333,1725
25.1361,1737
25.1389,1732
25.1417,1731
25.1444,1736
25.1472,1728
25.1500,1725
25.1528,1725
25.1556,1745
25.1583,1764
25.1611,1776
25.1639,1756
25.1667,1766
25.1694,1768
25.1722,1927
25.1750,1935
25.1778,1929
25.1806,1909
25.1833,1916
25.1861,1915
25.1889,1897
25.1917,1896
25.1944,1885
25.1972,1881
25.2000,1866
25.2028,1834
25.2056,1800
25.2083,1766
25.2111,1726
25.2139,1705
25.2167,1692
25.2194,1680
25.2222,1666
25.2250,1647
25.2278,1626
25.2306,1622
25.2333,1613
25.2361,1602
25.2389,1591
25.2417,1591
25.2444,1587
25.2472,1600
25.2500,1608
25.2528,1595
25.2556,1573
25.2583,1571
25.2611,1564
25.2639,1573
25.2667,1572
25.2694,1569
25.2722,1559
25.2750,1557
25.2778,1553
25.2806,1556
25.2833,1568
25.2861,1560
25.2889,1553
25.2917,1557
25.2944,1555
25.2972,1563
25.3000,1581
25.3028,1578
25.3056,1566
25.3083,1560
25.3111,1572
25.3139,1589
25.3167,1606
25.3194,1603
25.3222,1588
25.3250,1582
25.3278,1588
25.3306,1583
25.3333,1597
25.3361,1593
25.3389,1599
25.3417,1597
25.3444,1601
25.3472,1591
25.3500,1584
25.3528,1591
25.3556,1607
25.3583,1602
25.3611,1616
25.3639,1603
25.3667,1590
25.3694,1593
25.3722,1600
25.3750,1615
25.3778,1627
25.3806,1626
25.3833,1616
25.3861,1619
25.3889,1610
25.3917,1604
25.3944,1599
25.3972,1592
25.4000,1592
25.4028,1607
25.4056,1640
25.4083,1650
25.4111,1626
25.4139,1617
25.4167,1613
25.4194,1609
25.4222,1609
25.4250,1609
25.4278,1607
25.4306,1632
25.4333,1637
25.4361,1641
25.4389,1651
25.4417,1635
25.4444,1634
25.4472,1634
25.4500,1638
25.4528,1640
25.4556,1626
25.4583,1628
25.4611,1627
25.4639,1626
25.4667,1621
25.4694,1620
25.4722,1620
25.4750,1625
25.4778,1629
25.4806,1639
25.4833,1643
25.4861,1635
25.4889,1625
25.4917,1623
25.4944,1623
25.4972,1629
25.5000,1638
25.5028,1633
25.5056,1634
25.5083,1631
25.5111,1627
25.5139,1630
25.5167,1636
25.5194,1644
25.5222,1643
25.5250,1634
25.5278,1637
25.5306,1634
25.5333,1641
25.5361,1642
25.5389,1633
25.5417,1640
25.5444,1654
25.5472,1665
25.5500,1662
25.5528,1654
25.5556,1646
25.5583,1649
25.5611,1658
25.5639,1665
25.5667,1681
25.5694,1687
25.5722,1675
25.5750,1667
25.5778,1660
25.5806,1661
25.5833,1662
25.5861,1663
25.5889,1654
25.5917,1645
25.5944,1650
25.5972,1658
25.6000,1653
25.6028,1673
25.6056,1664
25.6083,1654
25.6111,1650
25.6139,1662
25.6167,1666
25.6194,1677
25.6222,1685
25.6250,1680
25.6278,1679
25.6306,1678
25.6333,1682
25.6361,1683
25.6389,1688
25.6417,1689
25.6444,1684
25.6472,1679
25.6500,1681
25.6528,1684
25.6556,1686
25.6583,1700
25.6611,1696
25.6639,1693
25.6667,1694
25.6694,1693
25.6722,1688
25.6750,1681
25.6778,1679
25.6806,1689
25.6833,1696
25.6861,1689
25.6889,1676
25.6917,1662
25.6944,1667
25.6972,1687
25.7000,1699
25.7028,1724
25.7056,1722
25.7083,1704
25.7111,1707
25.7139,1703
25.7167,1705
25.7194,1707
25.7222,1702
25.7250,1713
25.7278,1712
25.7306,1719
25.7333,1728
25.7361,1735
25.7389,1731
25.7417,1734
25.7444,1721
25.7472,1713
25.7500,1708
25.7528,1687
25.7556,1678
25.7583,1700
25.7611,1713
25.7639,1731
25.7667,1738
25.7694,1738
25.7722,1733
25.7750,1717
25.7778,1712
25.7806,1711
25.7833,1716
25.7861,1711
25.7889,1707
25.7917,1713
25.7944,1719
25.7972,1714
25.8000,1698
25.8028,1702
25.8056,1704
25.8083,1715
25.8111,1735
25.8139,1737
25.8167,1746
25.8194,1759
25.8222,1774
25.8250,1780
25.8278,1782
25.8306,1779
25.8333,1775
25.8361,1773
25.8389,1770
25.8417,1781
25.8444,1793
25.8472,1795
25.8500,1801
25.8528,1805
25.8556,1798
25.8583,1797
25.8611,1799
25.8639,1791
25.8667,1776
25.8694,1764
25.8722,1738
25.8750,1747
25.8778,1752
25.8806,1750
25.8833,1729
25.8861,1715
25.8889,1708
25.8917,1699
25.8944,1709
25.8972,1697
25.9000,1694
25.9028,1695
25.9056,1707
25.9083,1701
25.9111,1697
25.9139,1685
25.9167,1662
25.9194,1605
25.9222,1497
25.9250,1422
25.9278,1386
25.9306,1420
25.9333,1504
25.9361,1668
25.9389,1899
25.9417,2214
25.9444,2553
25.9472,2896
25.9500,3243
25.9528,3357
25.9556,3369
25.9583,3381
25.9611,3375
25.9639,3360
25.9667,2994
25.9694,2371
25.9722,1823
25.9750,1513
25.9778,1410
25.9806,1438
25.9833,1510
25.9861,1587
25.9889,1651
25.9917,1700
25.9944,1723
25.9972,1702
26.0000,1664
26.0028,1633
26.0056,1611
26.0083,1607
26.0111,1605
26.0139,1613
26.0167,1613
26.0194,1599
26.0222,1602
26.0250,1611
26.0278,1628
26.0306,1657
26.0333,1682
26.0361,1689
26.0389,1660
26.0417,1632
26.0444,1606
26.0472,1606
26.0500,1630
26.0528,1659
26.0556,1674
26.0583,1675
26.0611,1660
26.0639,1639
26.0667,1639
26.0694,1649
26.0722,1667
26.0750,1679
26.0778,1673
26.0806,1655
26.0833,1640
26.0861,1631
26.0889,1635
26.0917,1665
26.0944,1689
26.0972,1686
26.1000,1685
26.1028,1671
26.1056,1671
26.1083,1677
26.1111,1692
26.1139,1712
26.1167,1723
26.1194,1713
26.1222,1688
26.1250,1686
26.1278,1689
26.1306,1708
26.1333,1717
26.1361,1715
26.1389,1724
26.1417,1715
26.1444,1715
26.1472,1729
26.1500,1739
26.1528,1746
26.1556,1751
26.1583,1736
26.1611,1730
26.1639,1716
26.1667,1895
26.1694,1895
26.1722,1908
26.1750,1916
26.1778,1918
26.1806,1897
26.1833,1873
26.1861,1846
26.1889,1846
26.1917,1840
26.1944,1825
26.1972,1813
26.2000,1789
26.2028,1764
26.2056,1741
26.2083,1725
26.2111,1704
26.2139,1692
26.2167,1691
26.2194,1670
26.2222,1647
26.2250,1626
26.2278,1616
26.2306,1615
26.2333,1609
26.2361,1607
26.2389,1601
26.2417,1597
26.2444,1573
26.2472,1568
26.2500,1588
26.2528,1612
26.2556,1621
26.2583,1613
26.2611,1614
26.2639,1599
26.2667,1608
26.2694,1613
26.2722,1629
26.2750,1631
26.2778,1636
26.2806,1628
26.2833,1605
26.2861,1594
26.2889,1607
26.2917,1613
26.2944,1620
26.2972,1619
26.3000,1615
26.3028,1601
26.3056,1591
26.3083,1581
26.3111,1584
26.3139,1592
26.3167,1603
26.3194,1607
26.3222,1608
26.3250,1603
26.3278,1604
26.3306,1613
26.3333,1604
26.3361,1613
26.3389,1619
26.3417,1618
26.3444,1629
26.3472,1632
26.3500,1634
26.3528,1644
26.3556,1635
26.3583,1632
26.3611,1625
26.3639,1619
26.3667,1617
26.3694,1617
26.3722,1628
26.3750,1640
26.3778,1646
26.3806,1650
26.3833,1633
26.3861,1637
26.3889,1642
26.3917,1658
26.3944,1655
26.3972,1662
26.4000,1652
26.4028,1646
26.4056,1645
