Tiempo(s),Valor_ADC
0.0028,1728
0.0056,1729
0.0083,1736
0.0111,1750
0.0139,1743
0.0167,1744
0.0194,1737
0.0222,1715
0.0250,1708
0.0278,1697
0.0306,1693
0.0333,1689
0.0361,1683
0.0389,1681
0.0417,1676
0.0444,1662
0.0472,1660
0.0500,1646
0.0528,1649
0.0556,1656
0.0583,1663
0.0611,1661
0.0639,1658
0.0667,1665
0.0694,1683
0.0722,1699
0.0750,1703
0.0778,1686
0.0806,1669
0.0833,1667
0.0861,1654
0.0889,1654
0.0917,1652
0.0944,1655
0.0972,1676
0.1000,1692
0.1028,1685
0.1056,1656
0.1083,1627
0.1111,1646
0.1139,1746
0.1167,1915
0.1194,2119
0.1222,2202
0.1250,2077
0.1278,1846
0.1306,1610
0.1333,1441
0.1361,1315
0.1389,1290
0.1417,1370
0.1444,1532
0.1472,1707
0.1500,1821
0.1528,1881
0.1556,1890
0.1583,1862
0.1611,1822
0.1639,1780
0.1667,1757
0.1694,1749
0.1722,1739
0.1750,1724
0.1778,1711
0.1806,1690
0.1833,1681
0.1861,1686
0.1889,1684
0.1917,1689
0.1944,1692
0.1972,1678
0.2000,1674
0.2028,1669
0.2056,1668
0.2083,1685
0.2111,1707
0.2139,1707
0.2167,1679
0.2194,1666
0.2222,1657
0.2250,1667
0.2278,1673
0.2306,1674
0.2333,1674
0.2361,1665
0.2389,1665
0.2417,1662
0.2444,1661
0.2472,1671
0.2500,1687
0.2528,1693
0.2556,1699
0.2583,1689
0.2611,1680
0.2639,1679
0.2667,1677
0.2694,1674
0.2722,1689
0.2750,1697
0.2778,1687
0.2806,1684
0.2833,1679
0.2861,1685
0.2889,1694
0.2917,1704
0.2944,1706
0.2972,1701
0.3000,1702
0.3028,1691
0.3056,1692
0.3083,1706
0.3111,1709
0.3139,1714
0.3167,1717
0.3194,1712
0.3222,1710
0.3250,1707
0.3278,1756
0.3306,1760
0.3333,1760
0.3361,1758
0.3389,1761
0.3417,1759
0.3444,1767
0.3472,1768
0.3500,1780
0.3528,1786
0.3556,1779
0.3583,1753
0.3611,1740
0.3639,1736
0.3667,1740
0.3694,1753
0.3722,1762
0.3750,1763
0.3778,1758
0.3806,1751
0.3833,1746
0.3861,1746
0.3889,1754
0.3917,1764
0.3944,1783
0.3972,1777
0.4000,1767
0.4028,1758
0.4056,1755
0.4083,1763
0.4111,1770
0.4139,1774
0.4167,1776
0.4194,1784
0.4222,1787
0.4250,1780
0.4278,1795
0.4306,1808
0.4333,1823
0.4361,1833
0.4389,1836
0.4417,1828
0.4444,1811
0.4472,1820
0.4500,1814
0.4528,1810
0.4556,1823
0.4583,1828
0.4611,1833
0.4639,1845
0.4667,1854
0.4694,1866
0.4722,1881
0.4750,1888
0.4778,1886
0.4806,1888
0.4833,1874
0.4861,1878
0.4889,1851
0.4917,1839
0.4944,1829
0.4972,1841
0.5000,1848
0.5028,1851
0.5056,1869
0.5083,1866
0.5111,1873
0.5139,1871
0.5167,1877
0.5194,1858
0.5222,1860
0.5250,1857
0.5278,1855
0.5306,1858
0.5333,1854
0.5361,1852
0.5389,1852
0.5417,1854
0.5444,1857
0.5472,1855
0.5500,1849
0.5528,1856
0.5556,1853
0.5583,1840
0.5611,1841
0.5639,1830
0.5667,1831
0.5694,1830
0.5722,1841
0.5750,1849
0.5778,1845
0.5806,1837
0.5833,1833
0.5861,1841
0.5889,1856
0.5917,1865
0.5944,1847
0.5972,1811
0.6000,1790
0.6028,1795
0.6056,1800
0.6083,1821
0.6111,1826
0.6139,1841
0.6167,1844
0.6194,1846
0.6222,1844
0.6250,1836
0.6278,1826
0.6306,1805
0.6333,1807
0.6361,1808
0.6389,1827
0.6417,1835
0.6444,1843
0.6472,1839
0.6500,1837
0.6528,1837
0.6556,1837
0.6583,1843
0.6611,1835
0.6639,1838
0.6667,1844
0.6694,1826
0.6722,1823
0.6750,1818
0.6778,1824
0.6806,1827
0.6833,1840
0.6861,1841
0.6889,1851
0.6917,1838
0.6944,1828
0.6972,1813
0.7000,1819
0.7028,1828
0.7056,1827
0.7083,1822
0.7111,1814
0.7139,1813
0.7167,1816
0.7194,1819
0.7222,1814
0.7250,1806
0.7278,1807
0.7306,1813
0.7333,1828
0.7361,1820
0.7389,1830
0.7417,1827
0.7444,1831
0.7472,1834
0.7500,1839
0.7528,1862
0.7556,1884
0.7583,1894
0.7611,1890
0.7639,1889
0.7667,1897
0.7694,1899
0.7722,1908
0.7750,1920
0.7778,1930
0.7806,1925
0.7833,1916
0.7861,1910
0.7889,1898
0.7917,1872
0.7944,1862
0.7972,1855
0.8000,1834
0.8028,1825
0.8056,1822
0.8083,1815
0.8111,1801
0.8139,1777
0.8167,1775
0.8194,1766
0.8222,1760
0.8250,1759
0.8278,1749
0.8306,1748
0.8333,1740
0.8361,1742
0.8389,1744
0.8417,1728
0.8444,1723
0.8472,1730
0.8500,1748
0.8528,1757
0.8556,1756
0.8583,1753
0.8611,1728
0.8639,1718
0.8667,1699
0.8694,1701
0.8722,1715
0.8750,1716
0.8778,1700
0.8806,1675
0.8833,1658
0.8861,1722
0.8889,1838
0.8917,2007
0.8944,2143
0.8972,2069
0.9000,1837
0.9028,1590
0.9056,1420
0.9083,1336
0.9111,1300
0.9139,1292
0.9167,1392
0.9194,1562
0.9222,1727
0.9250,1837
0.9278,1889
0.9306,1869
0.9333,1829
0.9361,1798
0.9389,1766
0.9417,1753
0.9444,1739
0.9472,1733
0.9500,1713
0.9528,1696
0.9556,1683
0.9583,1687
0.9611,1693
0.9639,1705
0.9667,1701
0.9694,1691
0.9722,1682
0.9750,1682
0.9778,1680
0.9806,1676
0.9833,1695
0.9861,1705
0.9889,1710
0.9917,1705
0.9944,1703
0.9972,1696
1.0000,1696
1.0028,1711
1.0056,1711
1.0083,1701
1.0111,1692
1.0139,1687
1.0167,1701
1.0194,1711
1.0222,1743
1.0250,1750
1.0278,1741
1.0306,1717
1.0333,1706
1.0361,1708
1.0389,1722
1.0417,1732
1.0444,1736
1.0472,1722
1.0500,1726
1.0528,1744
1.0556,1761
1.0583,1770
1.0611,1799
1.0639,1802
1.0667,1818
1.0694,1808
1.0722,1802
1.0750,1807
1.0778,1818
1.0806,1831
1.0833,1840
1.0861,1851
1.0889,1847
1.0917,1840
1.0944,1833
1.0972,1820
1.1000,1841
1.1028,1836
1.1056,1827
1.1083,1799
1.1111,1775
1.1139,1761
1.1167,1766
1.1194,1776
1.1222,1779
1.1250,1777
1.1278,1760
1.1306,1763
1.1333,1759
1.1361,1750
1.1389,1742
1.1417,1750
1.1444,1754
1.1472,1741
1.1500,1725
1.1528,1708
1.1556,1711
1.1583,1718
1.1611,1740
1.1639,1745
1.1667,1748
1.1694,1749
1.1722,1740
1.1750,1743
1.1778,1723
1.1806,1702
1.1833,1686
1.1861,1672
1.1889,1676
1.1917,1693
1.1944,1708
1.1972,1715
1.2000,1719
1.2028,1721
1.2056,1736
1.2083,1733
1.2111,1729
1.2139,1717
1.2167,1700
1.2194,1697
1.2222,1700
1.2250,1708
1.2278,1727
1.2306,1742
1.2333,1737
1.2361,1727
1.2389,1716
1.2417,1708
1.2444,1724
1.2472,1730
1.2500,1743
1.2528,1736
1.2556,1731
1.2583,1747
1.2611,1730
1.2639,1737
1.2667,1729
1.2694,1721
1.2722,1724
1.2750,1729
1.2778,1748
1.2806,1745
1.2833,1727
1.2861,1718
1.2889,1731
1.2917,1741
1.2944,1748
1.2972,1745
1.3000,1743
1.3028,1734
1.3056,1728
1.3083,1727
1.3111,1717
1.3139,1711
1.3167,1707
1.3194,1720
1.3222,1735
1.3250,1753
1.3278,1752
1.3306,1736
1.3333,1709
1.3361,1700
1.3389,1711
1.3417,1713
1.3444,1721
1.3472,1723
1.3500,1721
1.3528,1721
1.3556,1721
1.3583,1727
1.3611,1728
1.3639,1745
1.3667,1740
1.3694,1709
1.3722,1686
1.3750,1679
1.3778,1686
1.3806,1705
1.3833,1720
1.3861,1732
1.3889,1733
1.3917,1741
1.3944,1752
1.3972,1753
1.4000,1762
1.4028,1759
1.4056,1765
1.4083,1763
1.4111,1770
1.4139,1772
1.4167,1788
1.4194,1801
1.4222,1806
1.4250,1803
1.4278,1809
1.4306,1832
1.4333,1850
1.4361,1876
1.4389,1872
1.4417,1868
1.4444,1837
1.4472,1798
1.4500,1779
1.4528,1777
1.4556,1757
1.4583,1745
1.4611,1736
1.4639,1709
1.4667,1684
1.4694,1653
1.4722,1632
1.4750,1628
1.4778,1647
1.4806,1668
1.4833,1672
1.4861,1706
1.4889,1727
1.4917,1751
1.4944,1762
1.4972,1765
1.5000,1758
1.5028,1751
1.5056,1749
1.5083,1763
1.5111,1770
1.5139,1772
1.5167,1767
1.5194,1756
1.5222,1756
1.5250,1760
1.5278,1773
1.5306,1782
1.5333,1810
1.5361,1816
1.5389,1777
1.5417,1741
1.5444,1747
1.5472,1826
1.5500,1967
1.5528,2122
1.5556,2143
1.5583,1946
1.5611,1664
1.5639,1449
1.5667,1341
1.5694,1309
1.5722,1326
1.5750,1390
1.5778,1525
1.5806,1695
1.5833,1834
1.5861,1904
1.5889,1902
1.5917,1869
1.5944,1842
1.5972,1839
1.6000,1808
1.6028,1791
1.6056,1776
1.6083,1763
1.6111,1752
1.6139,1735
1.6167,1723
1.6194,1728
1.6222,1748
1.6250,1760
1.6278,1766
1.6306,1752
1.6333,1747
1.6361,1747
1.6389,1750
1.6417,1746
1.6444,1745
1.6472,1735
1.6500,1721
1.6528,1711
1.6556,1705
1.6583,1710
1.6611,1733
1.6639,1744
1.6667,1764
1.6694,1770
1.6722,1758
1.6750,1745
1.6778,1734
1.6806,1736
1.6833,1743
1.6861,1741
1.6889,1748
1.6917,1746
1.6944,1739
1.6972,1752
1.7000,1769
1.7028,1782
1.7056,1777
1.7083,1766
1.7111,1740
1.7139,1735
1.7167,1741
1.7194,1767
1.7222,1788
1.7250,1798
1.7278,1792
1.7306,1788
1.7333,1779
1.7361,1780
1.7389,1783
1.7417,1794
1.7444,1811
1.7472,1806
1.7500,1785
1.7528,1771
1.7556,1782
1.7583,1739
1.7611,1747
1.7639,1744
1.7667,1768
1.7694,1777
1.7722,1784
1.7750,1768
1.7778,1754
1.7806,1743
1.7833,1731
1.7861,1737
1.7889,1727
1.7917,1727
1.7944,1737
1.7972,1745
1.8000,1756
1.8028,1745
1.8056,1724
1.8083,1697
1.8111,1661
1.8139,1649
1.8167,1665
1.8194,1686
1.8222,1726
1.8250,1740
1.8278,1735
1.8306,1720
1.8333,1700
1.8361,1692
1.8389,1687
1.8417,1678
1.8444,1675
1.8472,1690
1.8500,1687
1.8528,1676
1.8556,1657
1.8583,1652
1.8611,1661
1.8639,1681
1.8667,1698
1.8694,1703
1.8722,1699
1.8750,1693
1.8778,1696
1.8806,1700
1.8833,1710
1.8861,1709
1.8889,1707
1.8917,1700
1.8944,1716
1.8972,1718
1.9000,1740
1.9028,1742
1.9056,1746
1.9083,1729
1.9111,1718
1.9139,1705
1.9167,1702
1.9194,1705
1.9222,1701
1.9250,1711
1.9278,1726
1.9306,1731
1.9333,1744
1.9361,1742
1.9389,1739
1.9417,1723
1.9444,1703
1.9472,1701
1.9500,1701
1.9528,1720
1.9556,1725
1.9583,1740
1.9611,1744
1.9639,1741
1.9667,1728
1.9694,1714
1.9722,1709
1.9750,1709
1.9778,1711
1.9806,1727
1.9833,1739
1.9861,1742
1.9889,1745
1.9917,1750
1.9944,1741
1.9972,1725
2.0000,1738
2.0028,1746
2.0056,1755
2.0083,1757
2.0111,1752
2.0139,1748
2.0167,1760
2.0194,1777
2.0222,1790
2.0250,1837
2.0278,1842
2.0306,1850
2.0333,1843
2.0361,1822
2.0389,1825
2.0417,1832
2.0444,1854
2.0472,1864
2.0500,1856
2.0528,1849
2.0556,1855
2.0583,1837
2.0611,1822
2.0639,1803
2.0667,1789
2.0694,1772
2.0722,1766
2.0750,1750
2.0778,1736
2.0806,1732
2.0833,1730
2.0861,1722
2.0889,1734
2.0917,1733
2.0944,1719
2.0972,1719
2.1000,1717
2.1028,1717
2.1056,1718
2.1083,1718
2.1111,1717
2.1139,1718
2.1167,1722
2.1194,1721
2.1222,1723
2.1250,1727
2.1278,1721
2.1306,1733
2.1333,1729
2.1361,1714
2.1389,1714
2.1417,1735
2.1444,1762
2.1472,1778
2.1500,1775
2.1528,1749
2.1556,1740
2.1583,1808
2.1611,1951
2.1639,2134
2.1667,2215
2.1694,2054
2.1722,1789
2.1750,1524
2.1778,1366
2.1806,1290
2.1833,1276
2.1861,1334
2.1889,1474
2.1917,1635
2.1944,1769
2.1972,1853
2.2000,1872
2.2028,1855
2.2056,1826
2.2083,1801
2.2111,1790
2.2139,1775
2.2167,1777
2.2194,1762
2.2222,1748
2.2250,1732
2.2278,1720
2.2306,1712
2.2333,1728
2.2361,1724
2.2389,1716
2.2417,1709
2.2444,1700
2.2472,1686
2.2500,1689
2.2528,1712
2.2556,1726
2.2583,1731
2.2611,1733
2.2639,1722
2.2667,1710
2.2694,1709
2.2722,1727
2.2750,1733
2.2778,1728
2.2806,1729
2.2833,1728
2.2861,1723
2.2889,1722
2.2917,1724
2.2944,1732
2.2972,1741
2.3000,1754
2.3028,1761
2.3056,1759
2.3083,1750
2.3111,1741
2.3139,1730
2.3167,1734
2.3194,1731
2.3222,1745
2.3250,1763
2.3278,1768
2.3306,1766
2.3333,1758
2.3361,1749
2.3389,1743
2.3417,1737
2.3444,1732
2.3472,1738
2.3500,1749
2.3528,1755
2.3556,1784
2.3583,1802
2.3611,1796
2.3639,1788
2.3667,1772
2.3694,1821
2.3722,1826
2.3750,1823
2.3778,1807
2.3806,1786
2.3833,1761
2.3861,1737
2.3889,1723
2.3917,1722
2.3944,1736
2.3972,1758
2.4000,1757
2.4028,1761
2.4056,1736
2.4083,1716
2.4111,1717
2.4139,1709
2.4167,1704
2.4194,1710
2.4222,1699
2.4250,1700
2.4278,1695
2.4306,1700
2.4333,1702
2.4361,1707
2.4389,1705
2.4417,1706
2.4444,1710
2.4472,1713
2.4500,1703
2.4528,1694
2.4556,1687
2.4583,1682
2.4611,1686
2.4639,1686
2.4667,1685
2.4694,1689
2.4722,1687
2.4750,1692
2.4778,1703
2.4806,1709
2.4833,1718
2.4861,1719
2.4889,1727
2.4917,1733
2.4944,1736
2.4972,1748
2.5000,1752
2.5028,1762
2.5056,1757
2.5083,1743
2.5111,1737
2.5139,1745
2.5167,1743
2.5194,1736
2.5222,1738
2.5250,1739
2.5278,1747
2.5306,1754
2.5333,1768
2.5361,1780
2.5389,1792
2.5417,1796
2.5444,1777
2.5472,1753
2.5500,1750
2.5528,1747
2.5556,1752
2.5583,1756
2.5611,1757
2.5639,1766
2.5667,1760
2.5694,1773
2.5722,1784
2.5750,1778
2.5778,1768
2.5806,1758
2.5833,1751
2.5861,1747
2.5889,1754
2.5917,1768
2.5944,1771
2.5972,1780
2.6000,1784
2.6028,1781
2.6056,1781
2.6083,1774
2.6111,1789
2.6139,1784
2.6167,1778
2.6194,1765
2.6222,1764
2.6250,1762
2.6278,1776
2.6306,1785
2.6333,1803
2.6361,1801
2.6389,1790
2.6417,1776
2.6444,1781
2.6472,1791
2.6500,1804
2.6528,1830
2.6556,1858
2.6583,1871
2.6611,1860
2.6639,1863
2.6667,1853
2.6694,1868
2.6722,1874
2.6750,1893
2.6778,1904
2.6806,1899
2.6833,1886
2.6861,1867
2.6889,1869
2.6917,1849
2.6944,1839
2.6972,1833
2.7000,1818
2.7028,1794
2.7056,1773
2.7083,1756
2.7111,1749
2.7139,1750
2.7167,1763
2.7194,1772
2.7222,1779
2.7250,1751
2.7278,1725
2.7306,1710
2.7333,1709
2.7361,1710
2.7389,1722
2.7417,1741
2.7444,1748
2.7472,1745
2.7500,1738
2.7528,1742
2.7556,1739
2.7583,1747
2.7611,1750
2.7639,1739
2.7667,1732
2.7694,1735
2.7722,1751
2.7750,1772
2.7778,1774
2.7806,1761
2.7833,1751
2.7861,1765
2.7889,1853
2.7917,2028
2.7944,2245
2.7972,2411
2.8000,2339
2.8028,2104
2.8056,1830
2.8083,1588
2.8111,1420
2.8139,1352
2.8167,1379
2.8194,1491
2.8222,1643
2.8250,1768
2.8278,1849
2.8306,1879
2.8333,1896
2.8361,1887
2.8389,1869
2.8417,1827
2.8444,1790
2.8472,1766
2.8500,1750
2.8528,1734
2.8556,1728
2.8583,1726
2.8611,1728
2.8639,1742
2.8667,1746
2.8694,1756
2.8722,1761
2.8750,1747
2.8778,1742
2.8806,1736
2.8833,1736
2.8861,1741
2.8889,1743
2.8917,1744
2.8944,1733
2.8972,1726
2.9000,1730
2.9028,1745
2.9056,1771
2.9083,1782
2.9111,1775
2.9139,1767
2.9167,1745
2.9194,1740
2.9222,1756
2.9250,1769
2.9278,1777
2.9306,1794
2.9333,1788
2.9361,1763
2.9389,1747
2.9417,1737
2.9444,1746
2.9472,1771
2.9500,1779
2.9528,1780
2.9556,1770
2.9583,1761
2.9611,1761
2.9639,1771
2.9667,1790
2.9694,1791
2.9722,1782
2.9750,1772
2.9778,1768
2.9806,1764
2.9833,1769
2.9861,1780
2.9889,1798
2.9917,1799
2.9944,1796
2.9972,1793
3.0000,1789
3.0028,1786
3.0056,1796
3.0083,1788
3.0111,1784
3.0139,1784
3.0167,1778
3.0194,1778
3.0222,1772
3.0250,1770
3.0278,1774
3.0306,1772
3.0333,1766
3.0361,1754
3.0389,1755
3.0417,1755
3.0444,1766
3.0472,1767
3.0500,1766
3.0528,1748
3.0556,1740
3.0583,1731
3.0611,1736
3.0639,1751
3.0667,1754
3.0694,1768
3.0722,1748
3.0750,1735
3.0778,1733
3.0806,1731
3.0833,1731
3.0861,1741
3.0889,1745
3.0917,1739
3.0944,1730
3.0972,1733
3.1000,1741
3.1028,1751
3.1056,1754
3.1083,1741
3.1111,1740
3.1139,1745
3.1167,1738
3.1194,1745
3.1222,1748
3.1250,1760
3.1278,1766
3.1306,1771
3.1333,1764
3.1361,1764
3.1389,1764
3.1417,1780
3.1444,1788
3.1472,1775
3.1500,1779
3.1528,1780
3.1556,1773
3.1583,1761
3.1611,1765
3.1639,1766
3.1667,1762
3.1694,1777
3.1722,1775
3.1750,1778
3.1778,1790
3.1806,1793
3.1833,1797
3.1861,1801
3.1889,1800
3.1917,1806
3.1944,1801
3.1972,1790
3.2000,1792
3.2028,1793
3.2056,1788
3.2083,1786
3.2111,1784
3.2139,1783
3.2167,1781
3.2194,1777
3.2222,1781
3.2250,1793
3.2278,1791
3.2306,1807
3.2333,1810
3.2361,1800
3.2389,1774
3.2417,1766
3.2444,1762
3.2472,1772
3.2500,1780
3.2528,1780
3.2556,1793
3.2583,1793
3.2611,1793
3.2639,1793
3.2667,1790
3.2694,1779
3.2722,1776
3.2750,1784
3.2778,1784
3.2806,1790
3.2833,1788
3.2861,1782
3.2889,1774
3.2917,1772
3.2944,1769
3.2972,1768
3.3000,1774
3.3028,1778
3.3056,1793
3.3083,1793
3.3111,1801
3.3139,1790
3.3167,1790
3.3194,1790
3.3222,1785
3.3250,1782
3.3278,1792
3.3306,1792
3.3333,1785
3.3361,1779
3.3389,1791
3.3417,1781
3.3444,1785
3.3472,1787
3.3500,1795
3.3528,1804
3.3556,1808
3.3583,1817
3.3611,1824
3.3639,1823
3.3667,1809
3.3694,1796
3.3722,1780
3.3750,1770
3.3778,1775
3.3806,1787
3.3833,1789
3.3861,1790
3.3889,1790
3.3917,1799
3.3944,1800
3.3972,1808
3.4000,1813
3.4028,1815
3.4056,1812
3.4083,1818
3.4111,1817
3.4139,1818
3.4167,1808
3.4194,1814
3.4222,1823
3.4250,1820
3.4278,1825
3.4306,1833
3.4333,1834
3.4361,1838
3.4389,1835
3.4417,1824
3.4444,1825
3.4472,1830
3.4500,1833
3.4528,1832
3.4556,1830
3.4583,1836
3.4611,1841
3.4639,1849
3.4667,1854
3.4694,1853
3.4722,1857
3.4750,1868
3.4778,1872
3.4806,1855
3.4833,1840
3.4861,1834
3.4889,1838
3.4917,1845
3.4944,1840
3.4972,1839
3.5000,1838
3.5028,1826
3.5056,1834
3.5083,1834
3.5111,1831
3.5139,1838
3.5167,1846
3.5194,1849
3.5222,1853
3.5250,1848
3.5278,1838
3.5306,1825
3.5333,1827
3.5361,1818
3.5389,1817
3.5417,1826
3.5444,1838
3.5472,1848
3.5500,1854
3.5528,1839
3.5556,1837
3.5583,1822
3.5611,1815
3.5639,1809
3.5667,1808
3.5694,1811
3.5722,1807
3.5750,1815
3.5778,1810
3.5806,1807
3.5833,1807
3.5861,1809
3.5889,1807
3.5917,1795
3.5944,1795
3.5972,1788
3.6000,1777
3.6028,1781
3.6056,1792
3.6083,1779
3.6111,1786
3.6139,1783
3.6167,1773
3.6194,1776
3.6222,1782
3.6250,1799
3.6278,1806
3.6306,1796
3.6333,1764
3.6361,1752
3.6389,1741
3.6417,1742
3.6444,1755
3.6472,1768
3.6500,1766
3.6528,1769
3.6556,1771
3.6583,1763
3.6611,1764
3.6639,1758
3.6667,1756
3.6694,1755
3.6722,1754
3.6750,1749
3.6778,1752
3.6806,1755
3.6833,1750
3.6861,1748
3.6889,1749
3.6917,1752
3.6944,1746
3.6972,1751
3.7000,1751
3.7028,1742
3.7056,1740
3.7083,1737
3.7111,1749
3.7139,1744
3.7167,1749
3.7194,1748
3.7222,1747
3.7250,1749
3.7278,1735
3.7306,1737
3.7333,1720
3.7361,1731
3.7389,1723
3.7417,1714
3.7444,1727
3.7472,1745
3.7500,1749
3.7528,1739
3.7556,1729
3.7583,1730
3.7611,1738
3.7639,1749
3.7667,1746
3.7694,1746
3.7722,1735
3.7750,1728
3.7778,1736
3.7806,1728
3.7833,1724
3.7861,1717
3.7889,1705
3.7917,1708
3.7944,1705
3.7972,1706
3.8000,1702
3.8028,1710
3.8056,1715
3.8083,1720
3.8111,1713
3.8139,1713
3.8167,1707
3.8194,1710
3.8222,1704
3.8250,1705
3.8278,1696
3.8306,1690
3.8333,1690
3.8361,1700
3.8389,1729
3.8417,1723
3.8444,1712
3.8472,1687
3.8500,1706
3.8528,1798
3.8556,1974
3.8583,2217
3.8611,2409
3.8639,2393
3.8667,2210
3.8694,1980
3.8722,1746
3.8750,1548
3.8778,1469
3.8806,1486
3.8833,1561
3.8861,1670
3.8889,1743
3.8917,1784
3.8944,1814
3.8972,1814
3.9000,1792
3.9028,1765
3.9056,1748
3.9083,1735
3.9111,1719
3.9139,1704
3.9167,1693
3.9194,1675
3.9222,1678
3.9250,1692
3.9278,1705
3.9306,1714
3.9333,1714
3.9361,1682
3.9389,1656
3.9417,1645
3.9444,1650
3.9472,1661
3.9500,1685
3.9528,1693
3.9556,1690
3.9583,1685
3.9611,1678
3.9639,1671
3.9667,1675
3.9694,1689
3.9722,1705
3.9750,1711
3.9778,1701
3.9806,1689
3.9833,1677
3.9861,1681
3.9889,1696
3.9917,1710
3.9944,1720
3.9972,1718
4.0000,1714
4.0028,1709
4.0056,1707
4.0083,1707
4.0111,1719
4.0139,1725
4.0167,1731
4.0194,1722
4.0222,1702
4.0250,1691
4.0278,1692
4.0306,1701
4.0333,1715
4.0361,1718
4.0389,1716
4.0417,1709
4.0444,1711
4.0472,1717
4.0500,1721
4.0528,1786
4.0556,1768
4.0583,1767
4.0611,1762
4.0639,1757
4.0667,1768
4.0694,1765
4.0722,1779
4.0750,1787
4.0778,1782
4.0806,1774
4.0833,1768
4.0861,1760
4.0889,1769
4.0917,1790
4.0944,1796
4.0972,1778
4.1000,1758
4.1028,1739
4.1056,1734
4.1083,1742
4.1111,1764
4.1139,1762
4.1167,1761
4.1194,1745
4.1222,1733
4.1250,1736
4.1278,1739
4.1306,1756
4.1333,1749
4.1361,1748
4.1389,1736
4.1417,1730
4.1444,1729
4.1472,1741
4.1500,1745
4.1528,1747
4.1556,1732
4.1583,1733
4.1611,1718
4.1639,1718
4.1667,1712
4.1694,1721
4.1722,1724
4.1750,1728
4.1778,1748
4.1806,1753
4.1833,1748
4.1861,1750
4.1889,1738
4.1917,1737
4.1944,1752
4.1972,1756
4.2000,1743
4.2028,1727
4.2056,1726
4.2083,1737
4.2111,1748
4.2139,1751
4.2167,1744
4.2194,1748
4.2222,1749
4.2250,1750
4.2278,1750
4.2306,1751
4.2333,1748
4.2361,1749
4.2389,1759
4.2417,1769
4.2444,1773
4.2472,1781
4.2500,1772
4.2528,1766
4.2556,1754
4.2583,1746
4.2611,1749
4.2639,1745
4.2667,1752
4.2694,1755
4.2722,1754
4.2750,1759
4.2778,1761
4.2806,1747
4.2833,1752
4.2861,1759
4.2889,1769
4.2917,1771
4.2944,1774
4.2972,1759
4.3000,1747
4.3028,1749
4.3056,1760
4.3083,1775
4.3111,1776
4.3139,1755
4.3167,1742
4.3194,1735
4.3222,1734
4.3250,1739
4.3278,1740
4.3306,1736
4.3333,1735
4.3361,1731
4.3389,1726
4.3417,1729
4.3444,1735
4.3472,1736
4.3500,1738
4.3528,1743
4.3556,1749
4.3583,1753
4.3611,1750
4.3639,1740
4.3667,1739
4.3694,1740
4.3722,1741
4.3750,1735
4.3778,1740
4.3806,1750
4.3833,1761
4.3861,1763
4.3889,1760
4.3917,1746
4.3944,1730
4.3972,1734
4.4000,1728
4.4028,1722
4.4056,1732
4.4083,1731
4.4111,1750
4.4139,1753
4.4167,1751
4.4194,1738
4.4222,1732
4.4250,1734
4.4278,1740
4.4306,1737
4.4333,1741
4.4361,1735
4.4389,1737
4.4417,1750
4.4444,1751
4.4472,1759
4.4500,1757
4.4528,1749
4.4556,1754
4.4583,1749
4.4611,1750
4.4639,1750
4.4667,1752
4.4694,1751
4.4722,1753
4.4750,1759
4.4778,1759
4.4806,1756
4.4833,1762
4.4861,1754
4.4889,1764
4.4917,1762
4.4944,1764
4.4972,1763
4.5000,1771
4.5028,1780
4.5056,1768
4.5083,1772
4.5111,1768
4.5139,1771
4.5167,1755
4.5194,1761
4.5222,1781
4.5250,1784
4.5278,1761
4.5306,1739
4.5333,1737
4.5361,1729
4.5389,1744
4.5417,1755
4.5444,1760
4.5472,1781
4.5500,1774
4.5528,1786
4.5556,1784
4.5583,1781
4.5611,1762
4.5639,1757
4.5667,1746
4.5694,1750
4.5722,1750
4.5750,1752
4.5778,1762
4.5806,1768
4.5833,1770
4.5861,1773
4.5889,1777
4.5917,1780
4.5944,1780
4.5972,1783
4.6000,1791
4.6028,1805
4.6056,1799
4.6083,1800
4.6111,1801
4.6139,1801
4.6167,1800
4.6194,1785
4.6222,1781
4.6250,1763
4.6278,1764
4.6306,1755
4.6333,1755
4.6361,1756
4.6389,1768
4.6417,1773
4.6444,1759
4.6472,1749
4.6500,1740
4.6528,1736
4.6556,1742
4.6583,1758
4.6611,1778
4.6639,1787
4.6667,1773
4.6694,1777
4.6722,1773
4.6750,1766
4.6778,1767
4.6806,1765
4.6833,1764
4.6861,1753
4.6889,1754
4.6917,1760
4.6944,1755
4.6972,1761
4.7000,1758
4.7028,1752
4.7056,1749
4.7083,1740
4.7111,1739
4.7139,1749
4.7167,1759
4.7194,1773
4.7222,1782
4.7250,1762
4.7278,1736
4.7306,1725
4.7333,1710
4.7361,1722
4.7389,1733
4.7417,1738
4.7444,1722
4.7472,1708
4.7500,1699
4.7528,1751
4.7556,1885
4.7583,2045
4.7611,2172
4.7639,2097
4.7667,1875
4.7694,1632
4.7722,1477
4.7750,1392
4.7778,1358
4.7806,1394
4.7833,1510
4.7861,1679
4.7889,1846
4.7917,1944
4.7944,1965
4.7972,1936
4.8000,1895
4.8028,1853
4.8056,1827
4.8083,1817
4.8111,1816
4.8139,1824
4.8167,1826
4.8194,1812
4.8222,1800
4.8250,1783
4.8278,1779
4.8306,1774
4.8333,1752
4.8361,1716
4.8389,1696
4.8417,1689
4.8444,1684
4.8472,1697
4.8500,1716
4.8528,1730
4.8556,1724
4.8583,1709
4.8611,1694
4.8639,1700
4.8667,1713
4.8694,1724
4.8722,1746
4.8750,1757
4.8778,1753
4.8806,1733
4.8833,1726
4.8861,1733
4.8889,1757
4.8917,1768
4.8944,1764
4.8972,1739
4.9000,1732
4.9028,1727
4.9056,1733
4.9083,1725
4.9111,1713
4.9139,1711
4.9167,1718
4.9194,1704
4.9222,1694
4.9250,1717
4.9278,1741
4.9306,1742
4.9333,1748
4.9361,1741
4.9389,1733
4.9417,1745
4.9444,1750
4.9472,1760
4.9500,1773
4.9528,1755
4.9556,1737
4.9583,1733
4.9611,1721
4.9639,1723
4.9667,1740
4.9694,1746
4.9722,1746
4.9750,1753
4.9778,1766
4.9806,1764
4.9833,1743
4.9861,1750
4.9889,1744
4.9917,1746
4.9944,1749
4.9972,1725
5.0000,1709
5.0028,1709
5.0056,1714
5.0083,1720
5.0111,1730
5.0139,1742
5.0167,1726
5.0194,1713
5.0222,1704
5.0250,1691
5.0278,1684
5.0306,1690
5.0333,1696
5.0361,1720
5.0389,1719
5.0417,1714
5.0444,1718
5.0472,1727
5.0500,1725
5.0528,1725
5.0556,1697
5.0583,1681
5.0611,1663
5.0639,1671
5.0667,1699
5.0694,1712
5.0722,1727
5.0750,1723
5.0778,1719
5.0806,1715
5.0833,1717
5.0861,1731
5.0889,1732
5.0917,1723
5.0944,1734
5.0972,1734
5.1000,1743
5.1028,1749
5.1056,1745
5.1083,1735
5.1111,1716
5.1139,1725
5.1167,1734
5.1194,1743
5.1222,1734
5.1250,1739
5.1278,1749
5.1306,1776
5.1333,1784
5.1361,1776
5.1389,1759
5.1417,1744
5.1444,1731
5.1472,1727
5.1500,1734
5.1528,1754
5.1556,1777
5.1583,1790
5.1611,1804
5.1639,1808
5.1667,1825
5.1694,1841
5.1722,1837
5.1750,1848
5.1778,1847
5.1806,1828
5.1833,1813
5.1861,1803
5.1889,1813
5.1917,1820
5.1944,1825
5.1972,1822
5.2000,1835
5.2028,1838
5.2056,1833
5.2083,1824
5.2111,1800
5.2139,1795
5.2167,1797
5.2194,1807
5.2222,1814
5.2250,1822
5.2278,1831
5.2306,1818
5.2333,1805
5.2361,1818
5.2389,1824
5.2417,1829
5.2444,1829
5.2472,1820
5.2500,1806
5.2528,1798
5.2556,1784
5.2583,1800
5.2611,1808
5.2639,1805
5.2667,1809
5.2694,1822
5.2722,1830
5.2750,1828
5.2778,1825
5.2806,1825
5.2833,1825
5.2861,1835
5.2889,1844
5.2917,1828
5.2944,1821
5.2972,1804
5.3000,1798
5.3028,1791
5.3056,1798
5.3083,1806
5.3111,1804
5.3139,1808
5.3167,1793
5.3194,1795
5.3222,1787
5.3250,1780
5.3278,1766
5.3306,1740
5.3333,1724
5.3361,1714
5.3389,1713
5.3417,1726
5.3444,1737
5.3472,1753
5.3500,1767
5.3528,1780
5.3556,1777
5.3583,1770
5.3611,1763
5.3639,1751
5.3667,1726
5.3694,1721
5.3722,1728
5.3750,1736
5.3778,1738
5.3806,1745
5.3833,1771
5.3861,1773
5.3889,1777
5.3917,1768
5.3944,1762
5.3972,1764
5.4000,1769
5.4028,1753
5.4056,1729
5.4083,1725
5.4111,1745
5.4139,1784
5.4167,1793
5.4194,1779
5.4222,1776
5.4250,1750
5.4278,1741
5.4306,1734
5.4333,1739
5.4361,1741
5.4389,1751
5.4417,1751
5.4444,1752
5.4472,1749
5.4500,1748
5.4528,1744
5.4556,1741
5.4583,1720
5.4611,1699
5.4639,1662
5.4667,1660
5.4694,1675
5.4722,1693
5.4750,1703
5.4778,1706
5.4806,1714
5.4833,1702
5.4861,1709
5.4889,1710
5.4917,1696
5.4944,1683
5.4972,1662
5.5000,1661
5.5028,1673
5.5056,1710
5.5083,1728
5.5111,1738
5.5139,1720
5.5167,1697
5.5194,1695
5.5222,1749
5.5250,1863
5.5278,2020
5.5306,2099
5.5333,1946
5.5361,1684
5.5389,1449
5.5417,1331
5.5444,1293
5.5472,1286
5.5500,1325
5.5528,1444
5.5556,1614
5.5583,1749
5.5611,1822
5.5639,1830
5.5667,1815
5.5694,1787
5.5722,1762
5.5750,1732
5.5778,1702
5.5806,1697
5.5833,1703
5.5861,1710
5.5889,1722
5.5917,1707
5.5944,1703
5.5972,1695
5.6000,1688
5.6028,1702
5.6056,1704
5.6083,1702
5.6111,1703
5.6139,1686
5.6167,1692
5.6194,1697
5.6222,1721
5.6250,1722
5.6278,1724
5.6306,1722
5.6333,1716
5.6361,1717
5.6389,1722
5.6417,1736
5.6444,1723
5.6472,1722
5.6500,1722
5.6528,1735
5.6556,1756
5.6583,1783
5.6611,1791
5.6639,1805
5.6667,1808
5.6694,1795
5.6722,1789
5.6750,1788
5.6778,1804
5.6806,1796
5.6833,1781
5.6861,1767
5.6889,1756
5.6917,1758
5.6944,1778
5.6972,1815
5.7000,1824
5.7028,1825
5.7056,1805
5.7083,1796
5.7111,1787
5.7139,1793
5.7167,1814
5.7194,1828
5.7222,1827
5.7250,1806
5.7278,1792
5.7306,1807
5.7333,1787
5.7361,1791
5.7389,1781
5.7417,1769
5.7444,1769
5.7472,1782
5.7500,1798
5.7528,1802
5.7556,1799
5.7583,1791
5.7611,1775
5.7639,1756
5.7667,1746
5.7694,1734
5.7722,1721
5.7750,1732
5.7778,1726
5.7806,1720
5.7833,1707
5.7861,1702
5.7889,1696
5.7917,1703
5.7944,1716
5.7972,1717
5.8000,1706
5.8028,1684
5.8056,1677
5.8083,1685
5.8111,1691
5.8139,1689
5.8167,1675
5.8194,1662
5.8222,1641
5.8250,1637
5.8278,1630
5.8306,1638
5.8333,1648
5.8361,1661
5.8389,1659
5.8417,1667
5.8444,1662
5.8472,1656
5.8500,1663
5.8528,1664
5.8556,1671
5.8583,1675
5.8611,1678
5.8639,1672
5.8667,1673
5.8694,1671
5.8722,1672
5.8750,1691
5.8778,1702
5.8806,1701
5.8833,1692
5.8861,1687
5.8889,1678
5.8917,1688
5.8944,1695
5.8972,1724
5.9000,1735
5.9028,1735
5.9056,1724
5.9083,1714
5.9111,1693
5.9139,1688
5.9167,1687
5.9194,1700
5.9222,1714
5.9250,1712
5.9278,1691
5.9306,1683
5.9333,1670
5.9361,1680
5.9389,1688
5.9417,1707
5.9444,1707
5.9472,1712
5.9500,1703
5.9528,1686
5.9556,1690
5.9583,1697
5.9611,1707
5.9639,1710
5.9667,1701
5.9694,1702
5.9722,1707
5.9750,1710
5.9778,1721
5.9806,1721
5.9833,1719
5.9861,1711
5.9889,1706
5.9917,1711
5.9944,1719
5.9972,1729
6.0000,1729
6.0028,1723
6.0056,1712
6.0083,1706
6.0111,1706
6.0139,1698
6.0167,1697
6.0194,1697
6.0222,1705
6.0250,1714
6.0278,1718
6.0306,1713
6.0333,1712
6.0361,1719
6.0389,1728
6.0417,1739
6.0444,1762
6.0472,1780
6.0500,1772
6.0528,1766
6.0556,1770
6.0583,1778
6.0611,1796
6.0639,1812
6.0667,1835
6.0694,1841
6.0722,1852
6.0750,1862
6.0778,1860
6.0806,1847
6.0833,1837
6.0861,1820
6.0889,1814
6.0917,1814
6.0944,1808
6.0972,1788
6.1000,1771
6.1028,1756
6.1056,1742
6.1083,1734
6.1111,1728
6.1139,1725
6.1167,1717
6.1194,1706
6.1222,1702
6.1250,1687
6.1278,1689
6.1306,1694
6.1333,1704
6.1361,1697
6.1389,1689
6.1417,1682
6.1444,1675
6.1472,1670
6.1500,1674
6.1528,1677
6.1556,1691
6.1583,1692
6.1611,1690
6.1639,1687
6.1667,1688
6.1694,1691
6.1722,1709
6.1750,1736
6.1778,1746
6.1806,1747
6.1833,1736
6.1861,1761
6.1889,1842
6.1917,1987
6.1944,2166
6.1972,2234
6.2000,2069
6.2028,1784
6.2056,1521
6.2083,1375
6.2111,1304
6.2139,1307
6.2167,1372
6.2194,1505
6.2222,1663
6.2250,1777
6.2278,1837
6.2306,1844
6.2333,1824
6.2361,1804
6.2389,1803
6.2417,1797
6.2444,1792
6.2472,1757
6.2500,1724
6.2528,1699
6.2556,1674
6.2583,1651
6.2611,1662
6.2639,1685
6.2667,1712
6.2694,1725
6.2722,1735
6.2750,1733
6.2778,1719
6.2806,1715
6.2833,1727
6.2861,1737
6.2889,1740
6.2917,1736
6.2944,1738
6.2972,1727
6.3000,1736
6.3028,1744
6.3056,1735
6.3083,1737
6.3111,1735
6.3139,1730
6.3167,1728
6.3194,1728
6.3222,1732
6.3250,1744
6.3278,1747
6.3306,1753
6.3333,1747
6.3361,1752
6.3389,1747
6.3417,1754
6.3444,1748
6.3472,1751
6.3500,1754
6.3528,1749
6.3556,1752
6.3583,1762
6.3611,1763
6.3639,1763
6.3667,1771
6.3694,1773
6.3722,1775
6.3750,1769
6.3778,1777
6.3806,1779
6.3833,1791
6.3861,1814
6.3889,1817
6.3917,1812
6.3944,1816
6.3972,1807
6.4000,1834
6.4028,1838
6.4056,1843
6.4083,1845
6.4111,1840
6.4139,1841
6.4167,1829
6.4194,1832
6.4222,1836
6.4250,1833
6.4278,1838
6.4306,1825
6.4333,1810
6.4361,1794
6.4389,1802
6.4417,1791
6.4444,1811
6.4472,1817
6.4500,1810
6.4528,1797
6.4556,1788
6.4583,1797
6.4611,1799
6.4639,1809
6.4667,1816
6.4694,1823
6.4722,1829
6.4750,1824
6.4778,1822
6.4806,1818
6.4833,1806
6.4861,1785
6.4889,1781
6.4917,1773
6.4944,1775
6.4972,1771
6.5000,1786
6.5028,1801
6.5056,1809
6.5083,1816
6.5111,1812
6.5139,1817
6.5167,1807
6.5194,1808
6.5222,1810
6.5250,1819
6.5278,1826
6.5306,1825
6.5333,1817
6.5361,1813
6.5389,1816
6.5417,1815
6.5444,1828
6.5472,1833
6.5500,1841
6.5528,1847
6.5556,1847
6.5583,1847
6.5611,1857
6.5639,1850
6.5667,1851
6.5694,1853
6.5722,1858
6.5750,1861
6.5778,1874
6.5806,1896
6.5833,1897
6.5861,1891
6.5889,1868
6.5917,1851
6.5944,1836
6.5972,1843
6.6000,1852
6.6028,1858
6.6056,1868
6.6083,1861
6.6111,1869
6.6139,1862
6.6167,1856
6.6194,1864
6.6222,1859
6.6250,1862
6.6278,1863
6.6306,1861
6.6333,1852
6.6361,1847
6.6389,1854
6.6417,1853
6.6444,1853
6.6472,1854
6.6500,1851
6.6528,1855
6.6556,1848
6.6583,1837
6.6611,1836
6.6639,1826
6.6667,1839
6.6694,1834
6.6722,1842
6.6750,1841
6.6778,1849
6.6806,1860
6.6833,1876
6.6861,1872
6.6889,1858
6.6917,1819
6.6944,1798
6.6972,1797
6.7000,1804
6.7028,1824
6.7056,1838
6.7083,1858
6.7111,1857
6.7139,1852
6.7167,1851
6.7194,1845
6.7222,1836
6.7250,1832
6.7278,1834
6.7306,1834
6.7333,1841
6.7361,1831
6.7389,1841
6.7417,1840
6.7444,1850
6.7472,1855
6.7500,1845
6.7528,1862
6.7556,1859
6.7583,1863
6.7611,1872
6.7639,1884
6.7667,1903
6.7694,1928
6.7722,1929
6.7750,1914
6.7778,1903
6.7806,1913
6.7833,1911
6.7861,1938
6.7889,1943
6.7917,1944
6.7944,1929
6.7972,1921
6.8000,1916
6.8028,1904
6.8056,1897
6.8083,1880
6.8111,1862
6.8139,1852
6.8167,1841
6.8194,1823
6.8222,1810
6.8250,1797
6.8278,1784
6.8306,1782
6.8333,1785
6.8361,1776
6.8389,1775
6.8417,1773
6.8444,1774
6.8472,1782
6.8500,1777
6.8528,1778
6.8556,1775
6.8583,1764
6.8611,1773
6.8639,1770
6.8667,1783
6.8694,1766
6.8722,1738
6.8750,1719
6.8778,1701
6.8806,1702
6.8833,1730
6.8861,1772
6.8889,1789
6.8917,1798
6.8944,1776
6.8972,1795
6.9000,1884
6.9028,2041
6.9056,2217
6.9083,2347
6.9111,2239
6.9139,2000
6.9167,1733
6.9194,1513
6.9222,1368
6.9250,1320
6.9278,1379
6.9306,1507
6.9333,1659
6.9361,1774
6.9389,1827
6.9417,1851
6.9444,1841
6.9472,1823
6.9500,1813
6.9528,1801
6.9556,1799
6.9583,1782
6.9611,1769
6.9639,1740
6.9667,1694
6.9694,1677
6.9722,1682
6.9750,1704
6.9778,1728
6.9806,1734
6.9833,1736
6.9861,1730
6.9889,1713
6.9917,1716
6.9944,1722
6.9972,1740
7.0000,1741
7.0028,1740
7.0056,1720
7.0083,1721
7.0111,1728
7.0139,1738
7.0167,1739
7.0194,1740
7.0222,1738
7.0250,1731
7.0278,1728
7.0306,1718
7.0333,1740
7.0361,1763
7.0389,1760
7.0417,1762
7.0444,1744
7.0472,1733
7.0500,1725
7.0528,1727
7.0556,1754
7.0583,1771
7.0611,1775
7.0639,1748
7.0667,1727
7.0694,1713
7.0722,1725
7.0750,1745
7.0778,1755
7.0806,1766
7.0833,1768
7.0861,1761
7.0889,1762
7.0917,1769
7.0944,1767
7.0972,1769
7.1000,1776
7.1028,1776
7.1056,1780
7.1083,1778
7.1111,1788
7.1139,1819
7.1167,1820
7.1194,1820
7.1222,1838
7.1250,1818
7.1278,1779
7.1306,1745
7.1333,1733
7.1361,1744
7.1389,1755
7.1417,1756
7.1444,1759
7.1472,1763
7.1500,1758
7.1528,1755
7.1556,1762
7.1583,1759
7.1611,1753
7.1639,1736
7.1667,1723
7.1694,1721
7.1722,1730
7.1750,1731
7.1778,1739
7.1806,1741
7.1833,1726
7.1861,1720
7.1889,1723
7.1917,1724
7.1944,1721
7.1972,1722
7.2000,1718
7.2028,1712
7.2056,1709
7.2083,1716
7.2111,1723
7.2139,1728
7.2167,1720
7.2194,1724
7.2222,1718
7.2250,1717
7.2278,1712
7.2306,1713
7.2333,1716
7.2361,1733
7.2389,1737
7.2417,1735
7.2444,1732
7.2472,1721
7.2500,1716
7.2528,1712
7.2556,1719
7.2583,1735
7.2611,1741
7.2639,1751
7.2667,1756
7.2694,1767
7.2722,1766
7.2750,1766
7.2778,1775
7.2806,1769
7.2833,1756
7.2861,1755
7.2889,1742
7.2917,1748
7.2944,1747
7.2972,1756
7.3000,1755
7.3028,1757
7.3056,1751
7.3083,1750
7.3111,1746
7.3139,1747
7.3167,1760
7.3194,1760
7.3222,1762
7.3250,1763
7.3278,1757
7.3306,1753
7.3333,1753
7.3361,1754
7.3389,1753
7.3417,1760
7.3444,1757
7.3472,1763
7.3500,1747
7.3528,1724
7.3556,1716
7.3583,1725
7.3611,1731
7.3639,1729
7.3667,1735
7.3694,1740
7.3722,1738
7.3750,1734
7.3778,1735
7.3806,1730
7.3833,1741
7.3861,1745
7.3889,1742
7.3917,1746
7.3944,1745
7.3972,1737
7.4000,1719
7.4028,1714
7.4056,1718
7.4083,1730
7.4111,1746
7.4139,1740
7.4167,1747
7.4194,1736
7.4222,1733
7.4250,1729
7.4278,1725
7.4306,1727
7.4333,1728
7.4361,1742
7.4389,1753
7.4417,1750
7.4444,1742
7.4472,1734
7.4500,1745
7.4528,1754
7.4556,1758
7.4583,1744
7.4611,1734
7.4639,1727
7.4667,1734
7.4694,1742
7.4722,1748
7.4750,1735
7.4778,1735
7.4806,1734
7.4833,1743
7.4861,1754
7.4889,1753
7.4917,1749
7.4944,1752
7.4972,1743
7.5000,1749
7.5028,1743
7.5056,1732
7.5083,1727
7.5111,1739
7.5139,1750
7.5167,1758
7.5194,1767
7.5222,1758
7.5250,1761
7.5278,1761
7.5306,1750
7.5333,1756
7.5361,1762
7.5389,1769
7.5417,1765
7.5444,1760
7.5472,1756
7.5500,1756
7.5528,1768
7.5556,1773
7.5583,1769
7.5611,1774
7.5639,1761
7.5667,1755
7.5694,1764
7.5722,1758
7.5750,1766
7.5778,1771
7.5806,1787
7.5833,1783
7.5861,1766
7.5889,1751
7.5917,1747
7.5944,1743
7.5972,1758
7.6000,1759
7.6028,1756
7.6056,1763
7.6083,1772
7.6111,1778
7.6139,1777
7.6167,1769
7.6194,1766
7.6222,1764
7.6250,1768
7.6278,1786
7.6306,1797
7.6333,1813
7.6361,1829
7.6389,1841
7.6417,1839
7.6444,1833
7.6472,1824
7.6500,1815
7.6528,1811
7.6556,1814
7.6583,1824
7.6611,1826
7.6639,1836
7.6667,1853
7.6694,1848
7.6722,1842
7.6750,1821
7.6778,1800
7.6806,1788
7.6833,1781
7.6861,1767
7.6889,1765
7.6917,1770
7.6944,1774
7.6972,1771
7.7000,1754
7.7028,1745
7.7056,1748
7.7083,1742
7.7111,1731
7.7139,1719
7.7167,1729
7.7194,1740
7.7222,1742
7.7250,1756
7.7278,1770
7.7306,1782
7.7333,1759
7.7361,1739
7.7389,1724
7.7417,1720
7.7444,1724
7.7472,1728
7.7500,1723
7.7528,1731
7.7556,1767
7.7583,1763
7.7611,1757
7.7639,1743
7.7667,1759
7.7694,1826
7.7722,1982
7.7750,2195
7.7778,2377
7.7806,2364
7.7833,2178
7.7861,1935
7.7889,1700
7.7917,1517
7.7944,1416
7.7972,1437
7.8000,1529
7.8028,1650
7.8056,1741
7.8083,1808
7.8111,1852
7.8139,1861
7.8167,1849
7.8194,1826
7.8222,1797
7.8250,1775
7.8278,1750
7.8306,1731
7.8333,1718
7.8361,1698
7.8389,1708
7.8417,1721
7.8444,1730
7.8472,1728
7.8500,1740
7.8528,1733
7.8556,1734
7.8583,1735
7.8611,1726
7.8639,1703
7.8667,1689
7.8694,1676
7.8722,1679
7.8750,1678
7.8778,1683
7.8806,1686
7.8833,1700
7.8861,1721
7.8889,1730
7.8917,1733
7.8944,1718
7.8972,1705
7.9000,1691
7.9028,1693
7.9056,1707
7.9083,1730
7.9111,1742
7.9139,1741
7.9167,1725
7.9194,1712
7.9222,1716
7.9250,1715
7.9278,1720
7.9306,1720
7.9333,1706
7.9361,1697
7.9389,1690
7.9417,1702
7.9444,1713
7.9472,1722
7.9500,1729
7.9528,1727
7.9556,1720
7.9583,1715
7.9611,1715
7.9639,1722
7.9667,1730
7.9694,1733
7.9722,1724
7.9750,1725
7.9778,1724
7.9806,1724
7.9833,1741
7.9861,1759
7.9889,1765
7.9917,1756
7.9944,1758
7.9972,1750
8.0000,1743
8.0028,1751
8.0056,1756
8.0083,1790
8.0111,1796
8.0139,1775
8.0167,1742
8.0194,1713
8.0222,1705
8.0250,1717
8.0278,1727
8.0306,1730
8.0333,1725
8.0361,1708
8.0389,1700
8.0417,1697
8.0444,1697
8.0472,1696
8.0500,1699
8.0528,1700
8.0556,1698
8.0583,1698
8.0611,1703
8.0639,1690
8.0667,1691
8.0694,1688
8.0722,1682
8.0750,1688
8.0778,1691
8.0806,1698
8.0833,1714
8.0861,1726
8.0889,1731
8.0917,1727
8.0944,1721
8.0972,1719
8.1000,1712
8.1028,1712
8.1056,1719
8.1083,1728
8.1111,1747
8.1139,1740
8.1167,1733
8.1194,1707
8.1222,1712
8.1250,1718
8.1278,1717
8.1306,1725
8.1333,1734
8.1361,1742
8.1389,1741
8.1417,1752
8.1444,1756
8.1472,1757
8.1500,1766
8.1528,1768
8.1556,1771
8.1583,1759
8.1611,1760
8.1639,1764
8.1667,1772
8.1694,1767
8.1722,1772
8.1750,1763
8.1778,1768
8.1806,1766
8.1833,1767
8.1861,1777
8.1889,1768
8.1917,1769
8.1944,1782
8.1972,1775
8.2000,1756
8.2028,1742
8.2056,1736
8.2083,1728
8.2111,1742
8.2139,1749
8.2167,1748
8.2194,1753
8.2222,1756
8.2250,1768
8.2278,1763
8.2306,1766
8.2333,1746
8.2361,1751
8.2389,1752
8.2417,1748
8.2444,1752
8.2472,1763
8.2500,1762
8.2528,1761
8.2556,1756
8.2583,1754
8.2611,1751
8.2639,1757
8.2667,1761
8.2694,1762
8.2722,1754
8.2750,1745
8.2778,1742
8.2806,1744
8.2833,1744
8.2861,1746
8.2889,1750
8.2917,1757
8.2944,1763
8.2972,1758
8.3000,1747
8.3028,1741
8.3056,1744
8.3083,1739
8.3111,1732
8.3139,1743
8.3167,1739
8.3194,1737
8.3222,1737
8.3250,1756
8.3278,1760
8.3306,1756
8.3333,1751
8.3361,1742
8.3389,1734
8.3417,1738
8.3444,1762
8.3472,1765
8.3500,1759
8.3528,1763
8.3556,1755
8.3583,1743
8.3611,1740
8.3639,1741
8.3667,1751
8.3694,1752
8.3722,1759
8.3750,1746
8.3778,1742
8.3806,1727
8.3833,1734
8.3861,1742
8.3889,1758
8.3917,1768
8.3944,1775
8.3972,1762
8.4000,1761
8.4028,1765
8.4056,1769
8.4083,1761
8.4111,1747
8.4139,1740
8.4167,1748
8.4194,1763
8.4222,1762
8.4250,1754
8.4278,1756
8.4306,1757
8.4333,1753
8.4361,1742
8.4389,1741
8.4417,1736
8.4444,1750
8.4472,1759
8.4500,1753
8.4528,1747
8.4556,1749
8.4583,1754
8.4611,1758
8.4639,1757
8.4667,1764
8.4694,1759
8.4722,1766
8.4750,1777
8.4778,1784
8.4806,1805
8.4833,1805
8.4861,1799
8.4889,1777
8.4917,1786
8.4944,1807
8.4972,1801
8.5000,1784
8.5028,1760
8.5056,1756
8.5083,1750
8.5111,1783
8.5139,1800
8.5167,1824
8.5194,1836
8.5222,1825
8.5250,1805
8.5278,1789
8.5306,1773
8.5333,1741
8.5361,1737
8.5389,1736
8.5417,1741
8.5444,1742
8.5472,1723
8.5500,1715
8.5528,1699
8.5556,1683
8.5583,1673
8.5611,1677
8.5639,1692
8.5667,1701
8.5694,1712
8.5722,1712
8.5750,1706
8.5778,1692
8.5806,1686
8.5833,1679
8.5861,1686
8.5889,1691
8.5917,1703
8.5944,1696
8.5972,1691
8.6000,1679
8.6028,1663
8.6056,1669
8.6083,1682
8.6111,1698
8.6139,1677
8.6167,1641
8.6194,1626
8.6222,1664
8.6250,1781
8.6278,1944
8.6306,2088
8.6333,2036
8.6361,1818
8.6389,1580
8.6417,1423
8.6444,1339
8.6472,1310
8.6500,1332
8.6528,1437
8.6556,1580
8.6583,1727
8.6611,1832
8.6639,1870
8.6667,1865
8.6694,1844
8.6722,1807
8.6750,1778
8.6778,1759
8.6806,1754
8.6833,1746
8.6861,1718
8.6889,1700
8.6917,1693
8.6944,1698
8.6972,1712
8.7000,1709
8.7028,1716
8.7056,1715
8.7083,1699
8.7111,1698
8.7139,1707
8.7167,1733
8.7194,1753
8.7222,1767
8.7250,1752
8.7278,1715
8.7306,1690
8.7333,1687
8.7361,1708
8.7389,1729
8.7417,1745
8.7444,1750
8.7472,1738
8.7500,1722
8.7528,1723
8.7556,1734
8.7583,1752
8.7611,1752
8.7639,1754
8.7667,1767
8.7694,1757
8.7722,1759
8.7750,1749
8.7778,1754
8.7806,1754
8.7833,1762
8.7861,1760
8.7889,1760
8.7917,1773
8.7944,1780
8.7972,1804
8.8000,1798
8.8028,1804
8.8056,1788
8.8083,1786
8.8111,1770
8.8139,1781
8.8167,1795
8.8194,1811
8.8222,1817
8.8250,1820
8.8278,1825
8.8306,1825
8.8333,1818
8.8361,1824
8.8389,1821
8.8417,1829
8.8444,1834
8.8472,1831
8.8500,1818
8.8528,1806
8.8556,1800
8.8583,1795
8.8611,1780
8.8639,1775
8.8667,1787
8.8694,1796
8.8722,1791
8.8750,1783
8.8778,1761
8.8806,1735
8.8833,1704
8.8861,1699
8.8889,1697
8.8917,1707
8.8944,1726
8.8972,1735
8.9000,1735
8.9028,1735
8.9056,1735
8.9083,1720
8.9111,1705
8.9139,1690
8.9167,1692
8.9194,1694
8.9222,1715
8.9250,1713
8.9278,1710
8.9306,1702
8.9333,1691
8.9361,1693
8.9389,1698
8.9417,1717
8.9444,1714
8.9472,1705
8.9500,1704
8.9528,1704
8.9556,1709
8.9583,1720
8.9611,1718
8.9639,1714
8.9667,1705
8.9694,1709
8.9722,1721
8.9750,1715
8.9778,1717
8.9806,1719
8.9833,1724
8.9861,1719
8.9889,1723
8.9917,1728
8.9944,1736
8.9972,1739
9.0000,1747
9.0028,1747
9.0056,1742
9.0083,1742
9.0111,1737
9.0139,1728
9.0167,1732
9.0194,1741
9.0222,1738
9.0250,1731
9.0278,1731
9.0306,1732
9.0333,1734
9.0361,1744
9.0389,1750
9.0417,1752
9.0444,1744
9.0472,1722
9.0500,1704
9.0528,1707
9.0556,1703
9.0583,1707
9.0611,1715
9.0639,1718
9.0667,1710
9.0694,1699
9.0722,1683
9.0750,1691
9.0778,1695
9.0806,1704
9.0833,1710
9.0861,1710
9.0889,1714
9.0917,1704
9.0944,1706
9.0972,1709
9.1000,1704
9.1028,1697
9.1056,1695
9.1083,1693
9.1111,1697
9.1139,1709
9.1167,1714
9.1194,1709
9.1222,1703
9.1250,1697
9.1278,1697
9.1306,1706
9.1333,1707
9.1361,1718
9.1389,1728
9.1417,1744
9.1444,1758
9.1472,1752
9.1500,1721
9.1528,1705
9.1556,1708
9.1583,1716
9.1611,1721
9.1639,1729
9.1667,1733
9.1694,1739
9.1722,1742
9.1750,1738
9.1778,1741
9.1806,1739
9.1833,1750
9.1861,1757
9.1889,1762
9.1917,1772
9.1944,1777
9.1972,1796
9.2000,1801
9.2028,1825
9.2056,1829
9.2083,1840
9.2111,1852
9.2139,1851
9.2167,1870
9.2194,1859
9.2222,1833
9.2250,1806
9.2278,1792
9.2306,1779
9.2333,1768
9.2361,1756
9.2389,1747
9.2417,1733
9.2444,1726
9.2472,1721
9.2500,1719
9.2528,1708
9.2556,1702
9.2583,1693
9.2611,1686
9.2639,1688
9.2667,1696
9.2694,1702
9.2722,1706
9.2750,1703
9.2778,1712
9.2806,1705
9.2833,1702
9.2861,1700
9.2889,1699
9.2917,1701
9.2944,1697
9.2972,1702
9.3000,1692
9.3028,1693
9.3056,1712
9.3083,1727
9.3111,1739
9.3139,1734
9.3167,1708
9.3194,1716
9.3222,1780
9.3250,1915
9.3278,2084
9.3306,2168
9.3333,2018
9.3361,1746
9.3389,1506
9.3417,1354
9.3444,1276
9.3472,1254
9.3500,1314
9.3528,1455
9.3556,1640
9.3583,1787
9.3611,1869
9.3639,1886
9.3667,1864
9.3694,1823
9.3722,1774
9.3750,1749
9.3778,1737
9.3806,1742
9.3833,1735
9.3861,1725
9.3889,1710
9.3917,1705
9.3944,1713
9.3972,1723
9.4000,1729
9.4028,1727
9.4056,1714
9.4083,1707
9.4111,1702
9.4139,1705
9.4167,1720
9.4194,1732
9.4222,1720
9.4250,1701
9.4278,1695
9.4306,1700
9.4333,1703
9.4361,1716
9.4389,1722
9.4417,1740
9.4444,1734
9.4472,1722
9.4500,1715
9.4528,1715
9.4556,1736
9.4583,1750
9.4611,1754
9.4639,1752
9.4667,1745
9.4694,1741
9.4722,1736
9.4750,1736
9.4778,1737
9.4806,1737
9.4833,1753
9.4861,1746
9.4889,1753
9.4917,1766
9.4944,1767
9.4972,1766
9.5000,1780
9.5028,1796
9.5056,1802
9.5083,1794
9.5111,1782
9.5139,1788
9.5167,1802
9.5194,1820
9.5222,1814
9.5250,1794
9.5278,1789
9.5306,1788
9.5333,1852
9.5361,1858
9.5389,1847
9.5417,1839
9.5444,1833
9.5472,1834
9.5500,1832
9.5528,1810
9.5556,1793
9.5583,1786
9.5611,1772
9.5639,1786
9.5667,1781
9.5694,1772
9.5722,1762
9.5750,1760
9.5778,1765
9.5806,1772
9.5833,1766
9.5861,1757
9.5889,1758
9.5917,1756
9.5944,1756
9.5972,1756
9.6000,1756
9.6028,1756
9.6056,1750
9.6083,1747
9.6111,1738
9.6139,1733
9.6167,1734
9.6194,1729
9.6222,1731
9.6250,1740
9.6278,1744
9.6306,1749
9.6333,1737
9.6361,1749
9.6389,1759
9.6417,1763
9.6444,1756
9.6472,1750
9.6500,1746
9.6528,1747
9.6556,1764
9.6583,1781
9.6611,1774
9.6639,1772
9.6667,1756
9.6694,1750
9.6722,1766
9.6750,1766
9.6778,1768
9.6806,1758
9.6833,1755
9.6861,1754
9.6889,1753
9.6917,1751
9.6944,1770
9.6972,1773
9.7000,1776
9.7028,1771
9.7056,1767
9.7083,1758
9.7111,1760
9.7139,1759
9.7167,1768
9.7194,1782
9.7222,1796
9.7250,1794
9.7278,1781
9.7306,1772
9.7333,1780
9.7361,1777
9.7389,1782
9.7417,1796
9.7444,1778
9.7472,1769
9.7500,1769
9.7528,1781
9.7556,1774
9.7583,1766
9.7611,1771
9.7639,1770
9.7667,1777
9.7694,1773
9.7722,1753
9.7750,1752
9.7778,1756
9.7806,1758
9.7833,1770
9.7861,1771
9.7889,1787
9.7917,1779
9.7944,1773
9.7972,1783
9.8000,1768
9.8028,1771
9.8056,1767
9.8083,1766
9.8111,1763
9.8139,1759
9.8167,1770
9.8194,1770
9.8222,1773
9.8250,1767
9.8278,1770
9.8306,1770
9.8333,1775
9.8361,1779
9.8389,1796
9.8417,1799
9.8444,1798
9.8472,1789
9.8500,1779
9.8528,1778
9.8556,1774
9.8583,1774
9.8611,1787
9.8639,1809
9.8667,1818
9.8694,1822
9.8722,1812
9.8750,1819
9.8778,1829
9.8806,1841
9.8833,1856
9.8861,1858
9.8889,1859
9.8917,1866
9.8944,1865
9.8972,1874
9.9000,1883
9.9028,1879
9.9056,1882
9.9083,1876
9.9111,1872
9.9139,1869
9.9167,1868
9.9194,1861
9.9222,1856
9.9250,1840
9.9278,1837
9.9306,1827
9.9333,1829
9.9361,1811
9.9389,1795
9.9417,1777
9.9444,1767
9.9472,1764
9.9500,1756
9.9528,1750
9.9556,1758
9.9583,1763
9.9611,1749
9.9639,1737
9.9667,1727
9.9694,1737
9.9722,1744
9.9750,1746
9.9778,1752
9.9806,1759
9.9833,1761
9.9861,1765
9.9889,1764
9.9917,1757
9.9944,1755
9.9972,1746
10.0000,1749
10.0028,1778
10.0056,1795
10.0083,1783
10.0111,1757
10.0139,1778
10.0167,1886
10.0194,2058
10.0222,2283
10.0250,2429
10.0278,2352
10.0306,2113
10.0333,1837
10.0361,1588
10.0389,1399
10.0417,1329
10.0444,1361
10.0472,1488
10.0500,1643
10.0528,1773
10.0556,1833
10.0583,1841
10.0611,1832
10.0639,1810
10.0667,1801
10.0694,1797
10.0722,1786
10.0750,1774
10.0778,1766
10.0806,1743
10.0833,1733
10.0861,1731
10.0889,1720
10.0917,1728
10.0944,1746
10.0972,1748
10.1000,1747
10.1028,1739
10.1056,1724
10.1083,1730
10.1111,1735
10.1139,1747
10.1167,1752
10.1194,1756
10.1222,1756
10.1250,1752
10.1278,1744
10.1306,1737
10.1333,1736
10.1361,1737
10.1389,1738
10.1417,1739
10.1444,1741
10.1472,1724
10.1500,1735
10.1528,1754
10.1556,1758
10.1583,1755
10.1611,1747
10.1639,1743
10.1667,1743
10.1694,1744
10.1722,1749
10.1750,1766
10.1778,1768
10.1806,1757
10.1833,1758
10.1861,1754
10.1889,1747
10.1917,1759
10.1944,1776
10.1972,1782
10.2000,1782
10.2028,1773
10.2056,1760
10.2083,1761
10.2111,1764
10.2139,1779
10.2167,1785
10.2194,1781
10.2222,1760
10.2250,1750
10.2278,1759
10.2306,1808
10.2333,1816
10.2361,1814
10.2389,1824
10.2417,1812
10.2444,1809
10.2472,1804
10.2500,1797
10.2528,1788
10.2556,1794
10.2583,1782
10.2611,1763
10.2639,1751
10.2667,1765
10.2694,1772
10.2722,1781
10.2750,1798
10.2778,1810
10.2806,1813
10.2833,1801
10.2861,1795
10.2889,1771
10.2917,1776
10.2944,1780
10.2972,1774
10.3000,1774
10.3028,1769
10.3056,1759
10.3083,1762
10.3111,1766
10.3139,1771
10.3167,1779
10.3194,1790
10.3222,1793
10.3250,1790
10.3278,1773
10.3306,1774
10.3333,1765
10.3361,1768
10.3389,1785
10.3417,1789
10.3444,1793
10.3472,1778
10.3500,1771
10.3528,1780
10.3556,1787
10.3583,1800
10.3611,1798
10.3639,1798
10.3667,1805
10.3694,1815
10.3722,1823
10.3750,1834
10.3778,1823
10.3806,1811
10.3833,1807
10.3861,1803
10.3889,1808
10.3917,1816
10.3944,1834
10.3972,1840
10.4000,1840
10.4028,1840
10.4056,1835
10.4083,1825
10.4111,1830
10.4139,1831
10.4167,1833
10.4194,1832
10.4222,1824
10.4250,1821
10.4278,1830
10.4306,1833
10.4333,1828
10.4361,1831
10.4389,1829
10.4417,1823
10.4444,1827
10.4472,1834
10.4500,1819
10.4528,1812
10.4556,1805
10.4583,1802
10.4611,1803
10.4639,1802
10.4667,1795
10.4694,1789
10.4722,1785
10.4750,1782
10.4778,1790
10.4806,1792
10.4833,1789
10.4861,1780
10.4889,1784
10.4917,1775
10.4944,1784
10.4972,1792
10.5000,1783
10.5028,1779
10.5056,1781
10.5083,1778
10.5111,1785
10.5139,1796
10.5167,1792
10.5194,1789
10.5222,1798
10.5250,1796
10.5278,1794
10.5306,1777
10.5333,1762
10.5361,1760
10.5389,1760
10.5417,1774
10.5444,1773
10.5472,1782
10.5500,1786
10.5528,1787
10.5556,1790
10.5583,1788
10.5611,1788
10.5639,1788
10.5667,1784
10.5694,1777
10.5722,1779
10.5750,1779
10.5778,1793
10.5806,1782
10.5833,1780
10.5861,1777
10.5889,1786
10.5917,1796
10.5944,1805
10.5972,1815
10.6000,1818
10.6028,1830
10.6056,1835
10.6083,1840
10.6111,1858
10.6139,1867
10.6167,1868
10.6194,1870
10.6222,1866
10.6250,1862
10.6278,1869
10.6306,1880
10.6333,1887
10.6361,1894
10.6389,1890
10.6417,1887
10.6444,1881
10.6472,1864
10.6500,1857
10.6528,1843
10.6556,1834
10.6583,1814
10.6611,1798
10.6639,1790
10.6667,1781
10.6694,1771
10.6722,1777
10.6750,1773
10.6778,1762
10.6806,1752
10.6833,1748
10.6861,1745
10.6889,1744
10.6917,1741
10.6944,1741
10.6972,1742
10.7000,1737
10.7028,1743
10.7056,1740
10.7083,1731
10.7111,1735
10.7139,1746
10.7167,1738
10.7194,1734
10.7222,1733
10.7250,1722
10.7278,1734
10.7306,1757
10.7333,1758
10.7361,1746
10.7389,1718
10.7417,1725
10.7444,1803
10.7472,1975
10.7500,2198
10.7528,2365
10.7556,2322
10.7583,2115
10.7611,1865
10.7639,1645
10.7667,1463
10.7694,1374
10.7722,1387
10.7750,1485
10.7778,1629
10.7806,1737
10.7833,1818
10.7861,1859
10.7889,1851
10.7917,1826
10.7944,1799
10.7972,1779
10.8000,1770
10.8028,1748
10.8056,1722
10.8083,1706
10.8111,1694
10.8139,1689
10.8167,1692
10.8194,1715
10.8222,1729
10.8250,1736
10.8278,1730
10.8306,1719
10.8333,1706
10.8361,1698
10.8389,1706
10.8417,1712
10.8444,1715
10.8472,1709
10.8500,1707
10.8528,1697
10.8556,1697
10.8583,1715
10.8611,1726
10.8639,1726
10.8667,1731
10.8694,1730
10.8722,1729
10.8750,1697
10.8778,1696
10.8806,1714
10.8833,1716
10.8861,1723
10.8889,1715
10.8917,1721
10.8944,1725
10.8972,1728
10.9000,1732
10.9028,1740
10.9056,1747
10.9083,1727
10.9111,1710
10.9139,1706
10.9167,1705
10.9194,1722
10.9222,1743
10.9250,1751
10.9278,1753
10.9306,1748
10.9333,1746
10.9361,1739
10.9389,1738
10.9417,1747
10.9444,1759
10.9472,1756
10.9500,1747
10.9528,1740
10.9556,1746
10.9583,1767
10.9611,1781
10.9639,1785
10.9667,1787
10.9694,1786
10.9722,1772
10.9750,1752
10.9778,1744
10.9806,1743
10.9833,1746
10.9861,1750
10.9889,1754
10.9917,1754
10.9944,1740
10.9972,1736
11.0000,1731
11.0028,1727
11.0056,1727
11.0083,1734
11.0111,1732
11.0139,1739
11.0167,1717
11.0194,1715
11.0222,1708
11.0250,1711
11.0278,1704
11.0306,1700
11.0333,1703
11.0361,1706
11.0389,1705
11.0417,1718
11.0444,1714
11.0472,1719
11.0500,1724
11.0528,1724
11.0556,1723
11.0583,1724
11.0611,1723
11.0639,1739
11.0667,1736
11.0694,1736
11.0722,1740
11.0750,1745
11.0778,1753
11.0806,1755
11.0833,1760
11.0861,1758
11.0889,1749
11.0917,1756
11.0944,1755
11.0972,1770
11.1000,1764
11.1028,1779
11.1056,1772
11.1083,1783
11.1111,1781
11.1139,1767
11.1167,1764
11.1194,1766
11.1222,1772
11.1250,1772
11.1278,1767
11.1306,1758
11.1333,1753
11.1361,1757
11.1389,1761
11.1417,1784
11.1444,1799
11.1472,1796
11.1500,1774
11.1528,1784
11.1556,1770
11.1583,1765
11.1611,1752
11.1639,1753
11.1667,1755
11.1694,1758
11.1722,1759
11.1750,1755
11.1778,1751
11.1806,1756
11.1833,1760
11.1861,1759
11.1889,1756
11.1917,1751
11.1944,1743
11.1972,1742
11.2000,1754
11.2028,1754
11.2056,1752
11.2083,1747
11.2111,1749
11.2139,1750
11.2167,1758
11.2194,1765
11.2222,1756
11.2250,1743
11.2278,1733
11.2306,1722
11.2333,1731
11.2361,1730
11.2389,1739
11.2417,1740
11.2444,1740
11.2472,1733
11.2500,1730
11.2528,1743
11.2556,1748
11.2583,1752
11.2611,1748
11.2639,1729
11.2667,1731
11.2694,1730
11.2722,1731
11.2750,1744
11.2778,1748
11.2806,1745
11.2833,1753
11.2861,1748
11.2889,1745
11.2917,1742
11.2944,1731
11.2972,1728
11.3000,1722
11.3028,1723
11.3056,1736
11.3083,1734
11.3111,1733
11.3139,1737
11.3167,1742
11.3194,1756
11.3222,1761
11.3250,1755
11.3278,1753
11.3306,1746
11.3333,1735
11.3361,1727
11.3389,1727
11.3417,1738
11.3444,1743
11.3472,1731
11.3500,1729
11.3528,1720
11.3556,1730
11.3583,1733
11.3611,1742
11.3639,1750
11.3667,1739
11.3694,1728
11.3722,1719
11.3750,1716
11.3778,1726
11.3806,1732
11.3833,1733
11.3861,1736
11.3889,1740
11.3917,1730
11.3944,1730
11.3972,1723
11.4000,1729
11.4028,1733
11.4056,1744
11.4083,1749
11.4111,1749
11.4139,1750
11.4167,1738
11.4194,1733
11.4222,1735
11.4250,1741
11.4278,1754
11.4306,1762
11.4333,1773
11.4361,1778
11.4389,1781
11.4417,1780
11.4444,1790
11.4472,1802
11.4500,1808
11.4528,1811
11.4556,1796
11.4583,1792
11.4611,1797
11.4639,1793
11.4667,1789
11.4694,1785
11.4722,1785
11.4750,1788
11.4778,1791
11.4806,1785
11.4833,1778
11.4861,1761
11.4889,1747
11.4917,1726
11.4944,1715
11.4972,1711
11.5000,1706
11.5028,1701
11.5056,1689
11.5083,1685
11.5111,1683
11.5139,1681
11.5167,1685
11.5194,1685
11.5222,1700
11.5250,1701
11.5278,1701
11.5306,1720
11.5333,1712
11.5361,1707
11.5389,1699
11.5417,1696
11.5444,1677
11.5472,1664
11.5500,1646
11.5528,1651
11.5556,1679
11.5583,1688
11.5611,1694
11.5639,1667
11.5667,1644
11.5694,1658
11.5722,1753
11.5750,1931
11.5778,2126
11.5806,2236
11.5833,2118
11.5861,1879
11.5889,1631
11.5917,1445
11.5944,1321
11.5972,1278
11.6000,1341
11.6028,1491
11.6056,1654
11.6083,1773
11.6111,1835
11.6139,1855
11.6167,1838
11.6194,1804
11.6222,1771
11.6250,1753
11.6278,1761
11.6306,1768
11.6333,1750
11.6361,1711
11.6389,1685
11.6417,1663
11.6444,1674
11.6472,1693
11.6500,1703
11.6528,1706
11.6556,1689
11.6583,1684
11.6611,1679
11.6639,1689
11.6667,1700
11.6694,1716
11.6722,1731
11.6750,1726
11.6778,1723
11.6806,1704
11.6833,1692
11.6861,1696
11.6889,1706
11.6917,1700
11.6944,1695
11.6972,1700
11.7000,1693
11.7028,1691
11.7056,1705
11.7083,1708
11.7111,1710
11.7139,1718
11.7167,1722
11.7194,1724
11.7222,1718
11.7250,1700
11.7278,1709
11.7306,1713
11.7333,1713
11.7361,1706
11.7389,1691
11.7417,1688
11.7444,1687
11.7472,1700
11.7500,1721
11.7528,1730
11.7556,1730
11.7583,1729
11.7611,1720
11.7639,1733
11.7667,1739
11.7694,1747
11.7722,1748
11.7750,1764
11.7778,1755
11.7806,1759
11.7833,1754
11.7861,1805
11.7889,1808
11.7917,1810
11.7944,1792
11.7972,1785
11.8000,1769
11.8028,1772
11.8056,1778
11.8083,1791
11.8111,1791
11.8139,1781
11.8167,1767
11.8194,1759
11.8222,1753
11.8250,1756
11.8278,1764
11.8306,1756
11.8333,1756
11.8361,1752
11.8389,1747
11.8417,1731
11.8444,1718
11.8472,1710
11.8500,1711
11.8528,1711
11.8556,1716
11.8583,1717
11.8611,1715
11.8639,1714
11.8667,1720
11.8694,1729
11.8722,1724
11.8750,1714
11.8778,1707
11.8806,1715
11.8833,1717
11.8861,1728
11.8889,1750
11.8917,1756
11.8944,1751
11.8972,1738
11.9000,1731
11.9028,1749
11.9056,1755
11.9083,1767
11.9111,1759
11.9139,1756
11.9167,1760
11.9194,1782
11.9222,1786
11.9250,1791
11.9278,1774
11.9306,1769
11.9333,1755
11.9361,1749
11.9389,1740
11.9417,1743
11.9444,1756
11.9472,1768
11.9500,1779
11.9528,1794
11.9556,1808
11.9583,1794
11.9611,1768
11.9639,1750
11.9667,1744
11.9694,1753
11.9722,1748
11.9750,1742
11.9778,1747
11.9806,1750
11.9833,1761
11.9861,1761
11.9889,1769
11.9917,1769
11.9944,1757
11.9972,1761
12.0000,1755
12.0028,1762
12.0056,1760
12.0083,1761
12.0111,1749
12.0139,1744
12.0167,1733
12.0194,1735
12.0222,1743
12.0250,1759
12.0278,1769
12.0306,1764
12.0333,1752
12.0361,1750
12.0389,1747
12.0417,1756
12.0444,1749
12.0472,1754
12.0500,1739
12.0528,1742
12.0556,1747
12.0583,1744
12.0611,1737
12.0639,1741
12.0667,1737
12.0694,1744
12.0722,1741
12.0750,1744
12.0778,1745
12.0806,1735
12.0833,1737
12.0861,1745
12.0889,1759
12.0917,1756
12.0944,1761
12.0972,1756
12.1000,1750
12.1028,1747
12.1056,1729
12.1083,1732
12.1111,1734
12.1139,1743
12.1167,1744
12.1194,1743
12.1222,1737
12.1250,1739
12.1278,1737
12.1306,1741
12.1333,1746
12.1361,1748
12.1389,1753
12.1417,1747
12.1444,1741
12.1472,1745
12.1500,1755
12.1528,1765
12.1556,1767
12.1583,1765
12.1611,1752
12.1639,1729
12.1667,1730
12.1694,1734
12.1722,1747
12.1750,1751
12.1778,1759
12.1806,1764
12.1833,1774
12.1861,1771
12.1889,1777
12.1917,1786
12.1944,1801
12.1972,1807
12.2000,1808
12.2028,1819
12.2056,1822
12.2083,1815
12.2111,1807
12.2139,1802
12.2167,1810
12.2194,1827
12.2222,1853
12.2250,1870
12.2278,1882
12.2306,1886
12.2333,1872
12.2361,1858
12.2389,1831
12.2417,1815
12.2444,1818
12.2472,1812
12.2500,1795
12.2528,1772
12.2556,1755
12.2583,1731
12.2611,1723
12.2639,1727
12.2667,1729
12.2694,1731
12.2722,1726
12.2750,1720
12.2778,1707
12.2806,1714
12.2833,1724
12.2861,1731
12.2889,1728
12.2917,1723
12.2944,1720
12.2972,1715
12.3000,1707
12.3028,1699
12.3056,1706
12.3083,1705
12.3111,1690
12.3139,1697
12.3167,1702
12.3194,1720
12.3222,1713
12.3250,1706
12.3278,1677
12.3306,1656
12.3333,1681
12.3361,1795
12.3389,1965
12.3417,2117
12.3444,2069
12.3472,1861
12.3500,1613
12.3528,1408
12.3556,1286
12.3583,1251
12.3611,1288
12.3639,1398
12.3667,1569
12.3694,1736
12.3722,1852
12.3750,1908
12.3778,1881
12.3806,1844
12.3833,1806
12.3861,1774
12.3889,1758
12.3917,1764
12.3944,1757
12.3972,1748
12.4000,1722
12.4028,1709
12.4056,1705
12.4083,1717
12.4111,1738
12.4139,1740
12.4167,1744
12.4194,1730
12.4222,1719
12.4250,1711
12.4278,1710
12.4306,1722
12.4333,1730
12.4361,1729
12.4389,1736
12.4417,1736
12.4444,1739
12.4472,1736
12.4500,1747
12.4528,1738
12.4556,1720
12.4583,1681
12.4611,1683
12.4639,1687
12.4667,1709
12.4694,1736
12.4722,1764
12.4750,1769
12.4778,1762
12.4806,1740
12.4833,1736
12.4861,1730
12.4889,1736
12.4917,1738
12.4944,1731
12.4972,1728
12.5000,1718
12.5028,1719
12.5056,1732
12.5083,1752
12.5111,1766
12.5139,1774
12.5167,1772
12.5194,1754
12.5222,1752
12.5250,1750
12.5278,1763
12.5306,1771
12.5333,1786
12.5361,1778
12.5389,1765
12.5417,1753
12.5444,1758
12.5472,1794
12.5500,1804
12.5528,1805
12.5556,1795
12.5583,1786
12.5611,1776
12.5639,1771
12.5667,1780
12.5694,1784
12.5722,1790
12.5750,1788
12.5778,1769
12.5806,1746
12.5833,1730
12.5861,1725
12.5889,1715
12.5917,1708
12.5944,1702
12.5972,1696
12.6000,1699
12.6028,1710
12.6056,1723
12.6083,1727
12.6111,1729
12.6139,1725
12.6167,1714
12.6194,1703
12.6222,1700
12.6250,1695
12.6278,1699
12.6306,1706
12.6333,1719
12.6361,1723
12.6389,1714
12.6417,1693
12.6444,1697
12.6472,1706
12.6500,1726
12.6528,1731
12.6556,1729
12.6583,1728
12.6611,1727
12.6639,1729
12.6667,1729
12.6694,1739
12.6722,1749
12.6750,1748
12.6778,1743
12.6806,1756
12.6833,1748
12.6861,1740
12.6889,1732
12.6917,1717
12.6944,1714
12.6972,1699
12.7000,1700
12.7028,1698
12.7056,1706
12.7083,1707
12.7111,1723
12.7139,1728
12.7167,1738
12.7194,1716
12.7222,1706
12.7250,1700
12.7278,1693
12.7306,1696
12.7333,1707
12.7361,1731
12.7389,1744
12.7417,1748
12.7444,1729
12.7472,1700
12.7500,1697
12.7528,1692
12.7556,1690
12.7583,1697
12.7611,1701
12.7639,1708
12.7667,1715
12.7694,1714
12.7722,1724
12.7750,1718
12.7778,1722
12.7806,1715
12.7833,1714
12.7861,1705
12.7889,1710
12.7917,1706
12.7944,1705
12.7972,1710
12.8000,1721
12.8028,1713
12.8056,1713
12.8083,1711
12.8111,1711
12.8139,1717
12.8167,1714
12.8194,1709
12.8222,1714
12.8250,1720
12.8278,1723
12.8306,1710
12.8333,1707
12.8361,1698
12.8389,1692
12.8417,1690
12.8444,1684
12.8472,1697
12.8500,1723
12.8528,1730
12.8556,1748
12.8583,1744
12.8611,1758
12.8639,1754
12.8667,1771
12.8694,1775
12.8722,1787
12.8750,1802
12.8778,1809
12.8806,1811
12.8833,1837
12.8861,1843
12.8889,1852
12.8917,1858
12.8944,1866
12.8972,1861
12.9000,1856
12.9028,1841
12.9056,1824
12.9083,1805
12.9111,1798
12.9139,1785
12.9167,1777
12.9194,1765
12.9222,1760
12.9250,1741
12.9278,1726
12.9306,1727
12.9333,1730
12.9361,1722
12.9389,1728
12.9417,1727
12.9444,1717
12.9472,1692
12.9500,1692
12.9528,1690
12.9556,1683
12.9583,1682
12.9611,1694
12.9639,1698
12.9667,1699
12.9694,1702
12.9722,1703
12.9750,1698
12.9778,1691
12.9806,1688
12.9833,1693
12.9861,1698
12.9889,1713
12.9917,1733
12.9944,1726
12.9972,1714
13.0000,1687
13.0028,1703
13.0056,1781
13.0083,1929
13.0111,2095
13.0139,2146
13.0167,1981
13.0194,1689
13.0222,1420
13.0250,1273
13.0278,1215
13.0306,1237
13.0333,1314
13.0361,1477
13.0389,1640
13.0417,1785
13.0444,1863
13.0472,1871
13.0500,1845
13.0528,1802
13.0556,1781
13.0583,1771
13.0611,1771
13.0639,1754
13.0667,1749
13.0694,1727
13.0722,1704
13.0750,1693
13.0778,1692
13.0806,1699
13.0833,1713
13.0861,1706
13.0889,1701
13.0917,1703
13.0944,1699
13.0972,1702
13.1000,1718
13.1028,1735
13.1056,1739
13.1083,1734
13.1111,1719
13.1139,1708
13.1167,1702
13.1194,1717
13.1222,1742
13.1250,1732
13.1278,1708
13.1306,1688
13.1333,1693
13.1361,1692
13.1389,1718
13.1417,1743
13.1444,1752
13.1472,1742
13.1500,1732
13.1528,1728
13.1556,1731
13.1583,1732
13.1611,1739
13.1639,1740
13.1667,1745
13.1694,1750
13.1722,1742
13.1750,1735
13.1778,1740
13.1806,1744
13.1833,1762
13.1861,1769
13.1889,1768
13.1917,1770
13.1944,1772
13.1972,1770
13.2000,1769
13.2028,1768
13.2056,1772
13.2083,1772
13.2111,1775
13.2139,1761
13.2167,1775
13.2194,1784
13.2222,1784
13.2250,1779
13.2278,1778
13.2306,1789
13.2333,1800
13.2361,1816
13.2389,1847
13.2417,1852
13.2444,1844
13.2472,1829
13.2500,1793
13.2528,1756
13.2556,1738
13.2583,1721
13.2611,1731
13.2639,1734
13.2667,1724
13.2694,1689
13.2722,1667
13.2750,1647
13.2778,1645
13.2806,1656
13.2833,1672
13.2861,1684
13.2889,1692
13.2917,1690
13.2944,1685
13.2972,1701
13.3000,1712
13.3028,1716
13.3056,1728
13.3083,1743
13.3111,1742
13.3139,1737
13.3167,1749
13.3194,1740
13.3222,1741
13.3250,1748
13.3278,1751
13.3306,1761
13.3333,1753
13.3361,1764
13.3389,1763
13.3417,1771
13.3444,1779
13.3472,1776
13.3500,1771
13.3528,1771
13.3556,1764
13.3583,1763
13.3611,1763
13.3639,1772
13.3667,1762
13.3694,1745
13.3722,1741
13.3750,1749
13.3778,1766
13.3806,1783
13.3833,1794
13.3861,1783
13.3889,1767
13.3917,1747
13.3944,1736
13.3972,1739
13.4000,1741
13.4028,1750
13.4056,1755
13.4083,1758
13.4111,1764
13.4139,1773
13.4167,1767
13.4194,1760
13.4222,1761
13.4250,1779
13.4278,1778
13.4306,1767
13.4333,1750
13.4361,1734
13.4389,1737
13.4417,1747
13.4444,1744
13.4472,1751
13.4500,1759
13.4528,1755
13.4556,1758
13.4583,1755
13.4611,1749
13.4639,1750
13.4667,1750
13.4694,1772
13.4722,1758
13.4750,1757
13.4778,1744
13.4806,1744
13.4833,1741
13.4861,1744
13.4889,1737
13.4917,1731
13.4944,1737
13.4972,1739
13.5000,1742
13.5028,1759
13.5056,1752
13.5083,1759
13.5111,1758
13.5139,1771
13.5167,1762
13.5194,1749
13.5222,1740
13.5250,1751
13.5278,1762
13.5306,1770
13.5333,1781
13.5361,1798
13.5389,1806
13.5417,1807
13.5444,1828
13.5472,1837
13.5500,1855
13.5528,1872
13.5556,1869
13.5583,1876
13.5611,1868
13.5639,1861
13.5667,1862
13.5694,1868
13.5722,1858
13.5750,1869
13.5778,1872
13.5806,1866
13.5833,1856
13.5861,1843
13.5889,1837
13.5917,1825
13.5944,1809
13.5972,1793
13.6000,1786
13.6028,1781
13.6056,1768
13.6083,1754
13.6111,1745
13.6139,1739
13.6167,1751
13.6194,1747
13.6222,1752
13.6250,1753
13.6278,1754
13.6306,1752
13.6333,1759
13.6361,1756
13.6389,1747
13.6417,1750
13.6444,1757
13.6472,1767
13.6500,1767
13.6528,1768
13.6556,1770
13.6583,1769
13.6611,1771
13.6639,1791
13.6667,1812
13.6694,1812
13.6722,1799
13.6750,1797
13.6778,1827
13.6806,1948
13.6833,2125
13.6861,2311
13.6889,2403
13.6917,2254
13.6944,1978
13.6972,1705
13.7000,1482
13.7028,1350
13.7056,1308
13.7083,1391
13.7111,1539
13.7139,1690
13.7167,1806
13.7194,1859
13.7222,1886
13.7250,1875
13.7278,1861
13.7306,1845
13.7333,1839
13.7361,1843
13.7389,1832
13.7417,1806
13.7444,1792
13.7472,1768
13.7500,1771
13.7528,1779
13.7556,1792
13.7583,1809
13.7611,1807
13.7639,1784
13.7667,1771
13.7694,1756
13.7722,1762
13.7750,1778
13.7778,1807
13.7806,1823
13.7833,1811
13.7861,1771
13.7889,1742
13.7917,1731
13.7944,1750
13.7972,1766
13.8000,1779
13.8028,1785
13.8056,1778
13.8083,1766
13.8111,1760
13.8139,1750
13.8167,1764
13.8194,1777
13.8222,1780
13.8250,1777
13.8278,1774
13.8306,1762
13.8333,1766
13.8361,1781
13.8389,1784
13.8417,1786
13.8444,1782
13.8472,1777
13.8500,1767
13.8528,1765
13.8556,1775
13.8583,1793
13.8611,1801
13.8639,1803
13.8667,1800
13.8694,1775
13.8722,1760
13.8750,1754
13.8778,1761
13.8806,1771
13.8833,1770
13.8861,1772
13.8889,1767
13.8917,1775
13.8944,1780
13.8972,1796
13.9000,1804
13.9028,1799
13.9056,1777
13.9083,1746
13.9111,1734
13.9139,1737
13.9167,1750
13.9194,1740
13.9222,1733
13.9250,1727
13.9278,1725
13.9306,1714
13.9333,1725
13.9361,1722
13.9389,1726
13.9417,1726
13.9444,1725
13.9472,1721
13.9500,1718
13.9528,1728
13.9556,1729
13.9583,1736
13.9611,1739
13.9639,1737
13.9667,1717
13.9694,1706
13.9722,1706
13.9750,1708
13.9778,1716
13.9806,1717
13.9833,1728
13.9861,1743
13.9889,1752
13.9917,1730
13.9944,1719
13.9972,1703
14.0000,1703
14.0028,1714
14.0056,1718
14.0083,1731
14.0111,1744
14.0139,1750
14.0167,1747
14.0194,1744
14.0222,1737
14.0250,1727
14.0278,1728
14.0306,1730
14.0333,1742
14.0361,1748
14.0389,1750
14.0417,1759
14.0444,1760
14.0472,1753
14.0500,1754
14.0528,1749
14.0556,1761
14.0583,1762
14.0611,1762
14.0639,1764
14.0667,1763
14.0694,1760
14.0722,1753
14.0750,1762
14.0778,1773
14.0806,1772
14.0833,1756
14.0861,1738
14.0889,1735
14.0917,1748
14.0944,1757
14.0972,1767
14.1000,1773
14.1028,1762
14.1056,1763
14.1083,1756
14.1111,1754
14.1139,1763
14.1167,1776
14.1194,1765
14.1222,1768
14.1250,1765
14.1278,1758
14.1306,1754
14.1333,1747
14.1361,1759
14.1389,1766
14.1417,1760
14.1444,1760
14.1472,1753
14.1500,1749
14.1528,1756
14.1556,1753
14.1583,1752
14.1611,1757
14.1639,1759
14.1667,1764
14.1694,1769
14.1722,1773
14.1750,1774
14.1778,1779
14.1806,1781
14.1833,1778
14.1861,1776
14.1889,1754
14.1917,1751
14.1944,1742
14.1972,1752
14.2000,1749
14.2028,1754
14.2056,1754
14.2083,1744
14.2111,1755
14.2139,1765
14.2167,1760
14.2194,1764
14.2222,1757
14.2250,1749
14.2278,1762
14.2306,1764
14.2333,1760
14.2361,1763
14.2389,1756
14.2417,1747
14.2444,1752
14.2472,1761
14.2500,1771
14.2528,1787
14.2556,1783
14.2583,1793
14.2611,1804
14.2639,1807
14.2667,1812
14.2694,1824
14.2722,1839
14.2750,1849
14.2778,1860
14.2806,1868
14.2833,1862
14.2861,1861
14.2889,1859
14.2917,1863
14.2944,1870
14.2972,1879
14.3000,1892
14.3028,1908
14.3056,1881
14.3083,1857
14.3111,1839
14.3139,1812
14.3167,1793
14.3194,1778
14.3222,1767
14.3250,1751
14.3278,1717
14.3306,1695
14.3333,1700
14.3361,1710
14.3389,1712
14.3417,1697
14.3444,1688
14.3472,1677
14.3500,1684
14.3528,1692
14.3556,1694
14.3583,1713
14.3611,1713
14.3639,1712
14.3667,1719
14.3694,1732
14.3722,1733
14.3750,1721
14.3778,1719
14.3806,1697
14.3833,1699
14.3861,1725
14.3889,1736
14.3917,1738
14.3944,1726
14.3972,1712
14.4000,1771
14.4028,1900
14.4056,2105
14.4083,2326
14.4111,2410
14.4139,2266
14.4167,2010
14.4194,1745
14.4222,1511
14.4250,1367
14.4278,1337
14.4306,1426
14.4333,1589
14.4361,1724
14.4389,1818
14.4417,1852
14.4444,1858
14.4472,1832
14.4500,1815
14.4528,1792
14.4556,1775
14.4583,1757
14.4611,1754
14.4639,1743
14.4667,1718
14.4694,1700
14.4722,1686
14.4750,1693
14.4778,1707
14.4806,1726
14.4833,1744
14.4861,1745
14.4889,1740
14.4917,1723
14.4944,1714
14.4972,1721
14.5000,1724
14.5028,1740
14.5056,1736
14.5083,1727
14.5111,1712
14.5139,1709
14.5167,1721
14.5194,1734
14.5222,1746
14.5250,1753
14.5278,1746
14.5306,1722
14.5333,1707
14.5361,1716
14.5389,1726
14.5417,1744
14.5444,1745
14.5472,1741
14.5500,1736
14.5528,1737
14.5556,1741
14.5583,1756
14.5611,1758
14.5639,1756
14.5667,1744
14.5694,1733
14.5722,1732
14.5750,1744
14.5778,1746
14.5806,1759
14.5833,1770
14.5861,1765
14.5889,1765
14.5917,1755
14.5944,1761
14.5972,1769
14.6000,1786
14.6028,1815
14.6056,1806
14.6083,1806
14.6111,1816
14.6139,1824
14.6167,1825
14.6194,1815
14.6222,1806
14.6250,1796
14.6278,1783
14.6306,1778
14.6333,1785
14.6361,1797
14.6389,1799
14.6417,1809
14.6444,1798
14.6472,1781
14.6500,1772
14.6528,1751
14.6556,1756
14.6583,1764
14.6611,1791
14.6639,1789
14.6667,1774
14.6694,1758
14.6722,1752
14.6750,1747
14.6778,1743
14.6806,1755
14.6833,1760
14.6861,1751
14.6889,1753
14.6917,1752
14.6944,1760
14.6972,1772
14.7000,1773
14.7028,1772
14.7056,1770
14.7083,1775
14.7111,1765
14.7139,1782
14.7167,1790
14.7194,1794
14.7222,1789
14.7250,1791
14.7278,1794
14.7306,1799
14.7333,1808
14.7361,1801
14.7389,1801
14.7417,1796
14.7444,1791
14.7472,1806
14.7500,1811
14.7528,1811
14.7556,1832
14.7583,1838
14.7611,1816
14.7639,1795
14.7667,1788
14.7694,1786
14.7722,1785
14.7750,1791
14.7778,1807
14.7806,1818
14.7833,1832
14.7861,1830
14.7889,1827
14.7917,1804
14.7944,1779
14.7972,1775
14.8000,1775
14.8028,1778
14.8056,1784
14.8083,1787
14.8111,1793
14.8139,1794
14.8167,1801
14.8194,1810
14.8222,1809
14.8250,1808
14.8278,1794
14.8306,1788
14.8333,1772
14.8361,1775
14.8389,1793
14.8417,1805
14.8444,1817
14.8472,1794
14.8500,1768
14.8528,1750
14.8556,1737
14.8583,1743
14.8611,1760
14.8639,1765
14.8667,1759
14.8694,1757
14.8722,1767
14.8750,1770
14.8778,1766
14.8806,1766
14.8833,1759
14.8861,1765
14.8889,1762
14.8917,1756
14.8944,1764
14.8972,1774
14.9000,1772
14.9028,1788
14.9056,1774
14.9083,1766
14.9111,1767
14.9139,1762
14.9167,1762
14.9194,1745
14.9222,1738
14.9250,1737
14.9278,1727
14.9306,1738
14.9333,1751
14.9361,1756
14.9389,1764
14.9417,1761
14.9444,1750
14.9472,1734
14.9500,1721
14.9528,1722
14.9556,1732
14.9583,1737
14.9611,1754
14.9639,1748
14.9667,1743
14.9694,1740
14.9722,1738
14.9750,1738
14.9778,1741
14.9806,1752
14.9833,1758
14.9861,1771
14.9889,1768
14.9917,1784
14.9944,1775
14.9972,1746
15.0000,1736
15.0028,1724
15.0056,1723
15.0083,1724
15.0111,1733
15.0139,1743
15.0167,1748
15.0194,1750
15.0222,1752
15.0250,1747
15.0278,1743
15.0306,1737
15.0333,1731
15.0361,1735
15.0389,1731
15.0417,1730
15.0444,1728
15.0472,1732
15.0500,1737
15.0528,1743
15.0556,1758
15.0583,1765
15.0611,1761
15.0639,1750
15.0667,1739
15.0694,1740
15.0722,1743
15.0750,1753
15.0778,1776
15.0806,1791
15.0833,1794
15.0861,1785
15.0889,1781
15.0917,1777
15.0944,1788
15.0972,1805
15.1000,1826
15.1028,1812
15.1056,1808
15.1083,1804
15.1111,1816
15.1139,1821
15.1167,1824
15.1194,1833
15.1222,1829
15.1250,1819
15.1278,1805
15.1306,1795
15.1333,1781
15.1361,1774
15.1389,1774
15.1417,1752
15.1444,1744
15.1472,1735
15.1500,1717
15.1528,1710
15.1556,1697
15.1583,1689
15.1611,1688
15.1639,1696
15.1667,1681
15.1694,1661
15.1722,1668
15.1750,1679
15.1778,1684
15.1806,1696
15.1833,1698
15.1861,1695
15.1889,1694
15.1917,1675
15.1944,1667
15.1972,1655
15.2000,1643
15.2028,1648
15.2056,1665
15.2083,1670
15.2111,1683
15.2139,1670
15.2167,1654
15.2194,1662
15.2222,1736
15.2250,1869
15.2278,2042
15.2306,2170
15.2333,2063
15.2361,1838
15.2389,1589
15.2417,1409
15.2444,1288
15.2472,1256
15.2500,1311
15.2528,1451
15.2556,1618
15.2583,1761
15.2611,1841
15.2639,1857
15.2667,1842
15.2694,1814
15.2722,1790
15.2750,1770
15.2778,1748
15.2806,1738
15.2833,1708
15.2861,1677
15.2889,1683
15.2917,1670
15.2944,1681
15.2972,1684
15.3000,1694
15.3028,1696
15.3056,1689
15.3083,1673
15.3111,1663
15.3139,1670
15.3167,1678
15.3194,1698
15.3222,1713
15.3250,1714
15.3278,1709
15.3306,1694
15.3333,1688
15.3361,1696
15.3389,1704
15.3417,1704
15.3444,1709
15.3472,1718
15.3500,1728
15.3528,1722
15.3556,1711
15.3583,1699
15.3611,1701
15.3639,1706
15.3667,1703
15.3694,1698
15.3722,1704
15.3750,1715
15.3778,1735
15.3806,1752
15.3833,1758
15.3861,1746
15.3889,1740
15.3917,1730
15.3944,1727
15.3972,1746
15.4000,1752
15.4028,1753
15.4056,1748
15.4083,1736
15.4111,1726
15.4139,1720
15.4167,1723
15.4194,1732
15.4222,1750
15.4250,1759
15.4278,1770
15.4306,1777
15.4333,1771
15.4361,1796
15.4389,1799
15.4417,1791
15.4444,1783
15.4472,1773
15.4500,1762
15.4528,1759
15.4556,1758
15.4583,1760
15.4611,1768
15.4639,1769
15.4667,1770
15.4694,1782
15.4722,1774
15.4750,1760
15.4778,1745
15.4806,1740
15.4833,1743
15.4861,1737
15.4889,1733
15.4917,1735
15.4944,1732
15.4972,1736
15.5000,1725
15.5028,1735
15.5056,1746
15.5083,1741
15.5111,1733
15.5139,1733
15.5167,1753
15.5194,1764
15.5222,1762
15.5250,1752
15.5278,1751
15.5306,1739
15.5333,1721
15.5361,1722
15.5389,1731
15.5417,1732
15.5444,1745
15.5472,1746
15.5500,1754
15.5528,1752
15.5556,1763
15.5583,1768
15.5611,1773
15.5639,1780
15.5667,1782
15.5694,1778
15.5722,1770
15.5750,1765
15.5778,1779
15.5806,1787
15.5833,1784
15.5861,1780
15.5889,1781
15.5917,1789
15.5944,1803
15.5972,1799
15.6000,1805
15.6028,1803
15.6056,1811
15.6083,1813
15.6111,1799
15.6139,1787
15.6167,1785
15.6194,1777
15.6222,1773
15.6250,1781
15.6278,1784
15.6306,1788
15.6333,1789
15.6361,1799
15.6389,1811
15.6417,1801
15.6444,1804
15.6472,1789
15.6500,1781
15.6528,1775
15.6556,1778
15.6583,1790
15.6611,1799
15.6639,1809
15.6667,1811
15.6694,1807
15.6722,1798
15.6750,1780
15.6778,1778
15.6806,1780
15.6833,1784
15.6861,1780
15.6889,1783
15.6917,1781
15.6944,1782
15.6972,1785
15.7000,1776
15.7028,1778
15.7056,1762
15.7083,1760
15.7111,1761
15.7139,1771
15.7167,1775
15.7194,1790
15.7222,1790
15.7250,1798
15.7278,1793
15.7306,1784
15.7333,1793
15.7361,1797
15.7389,1792
15.7417,1796
15.7444,1793
15.7472,1796
15.7500,1786
15.7528,1771
15.7556,1768
15.7583,1767
15.7611,1770
15.7639,1779
15.7667,1790
15.7694,1795
15.7722,1795
15.7750,1800
15.7778,1802
15.7806,1803
15.7833,1805
15.7861,1808
15.7889,1793
15.7917,1793
15.7944,1797
15.7972,1796
15.8000,1787
15.8028,1777
15.8056,1774
15.8083,1775
15.8111,1778
15.8139,1781
15.8167,1783
15.8194,1791
15.8222,1796
15.8250,1797
15.8278,1801
15.8306,1793
15.8333,1790
15.8361,1782
15.8389,1775
15.8417,1772
15.8444,1777
15.8472,1776
15.8500,1774
15.8528,1783
15.8556,1796
15.8583,1820
15.8611,1826
15.8639,1832
15.8667,1853
15.8694,1863
15.8722,1859
15.8750,1857
15.8778,1876
15.8806,1894
15.8833,1883
15.8861,1868
15.8889,1858
15.8917,1860
15.8944,1851
15.8972,1841
15.9000,1846
15.9028,1847
15.9056,1829
15.9083,1830
15.9111,1813
15.9139,1814
15.9167,1795
15.9194,1779
15.9222,1760
15.9250,1749
15.9278,1743
15.9306,1749
15.9333,1743
15.9361,1744
15.9389,1751
15.9417,1749
15.9444,1728
15.9472,1718
15.9500,1706
15.9528,1713
15.9556,1710
15.9583,1720
15.9611,1729
15.9639,1733
15.9667,1736
15.9694,1734
15.9722,1730
15.9750,1723
15.9778,1712
15.9806,1716
15.9833,1740
15.9861,1766
15.9889,1770
15.9917,1737
15.9944,1726
15.9972,1788
16.0000,1939
16.0028,2146
16.0056,2308
16.0083,2269
16.0111,2055
16.0139,1796
16.0167,1557
16.0194,1380
16.0222,1304
16.0250,1340
16.0278,1482
16.0306,1646
16.0333,1762
16.0361,1842
16.0389,1876
16.0417,1875
16.0444,1844
16.0472,1812
16.0500,1781
16.0528,1764
16.0556,1756
16.0583,1735
16.0611,1721
16.0639,1709
16.0667,1701
16.0694,1707
16.0722,1712
16.0750,1727
16.0778,1734
16.0806,1739
16.0833,1733
16.0861,1725
16.0889,1717
16.0917,1718
16.0944,1742
16.0972,1751
16.1000,1737
16.1028,1712
16.1056,1705
16.1083,1693
16.1111,1696
16.1139,1715
16.1167,1720
16.1194,1731
16.1222,1723
16.1250,1717
16.1278,1717
16.1306,1723
16.1333,1740
16.1361,1745
16.1389,1751
16.1417,1746
16.1444,1742
16.1472,1736
16.1500,1735
16.1528,1739
16.1556,1755
16.1583,1751
16.1611,1751
16.1639,1743
16.1667,1739
16.1694,1738
16.1722,1741
16.1750,1747
16.1778,1748
16.1806,1764
16.1833,1763
16.1861,1757
16.1889,1748
16.1917,1760
16.1944,1757
16.1972,1758
16.2000,1757
16.2028,1747
16.2056,1749
16.2083,1752
16.2111,1771
16.2139,1781
16.2167,1788
16.2194,1805
16.2222,1785
16.2250,1771
16.2278,1764
16.2306,1765
16.2333,1762
16.2361,1767
16.2389,1771
16.2417,1767
16.2444,1747
16.2472,1740
16.2500,1748
16.2528,1756
16.2556,1764
16.2583,1754
16.2611,1768
16.2639,1770
16.2667,1759
16.2694,1734
16.2722,1713
16.2750,1709
16.2778,1706
16.2806,1728
16.2833,1726
16.2861,1726
16.2889,1736
16.2917,1734
16.2944,1740
16.2972,1744
16.3000,1745
16.3028,1738
16.3056,1730
16.3083,1720
16.3111,1722
16.3139,1736
16.3167,1748
16.3194,1757
16.3222,1761
16.3250,1764
16.3278,1748
16.3306,1760
16.3333,1764
16.3361,1775
16.3389,1767
16.3417,1760
16.3444,1752
16.3472,1750
16.3500,1754
16.3528,1756
16.3556,1768
16.3583,1776
16.3611,1790
16.3639,1770
16.3667,1751
16.3694,1734
16.3722,1743
16.3750,1743
16.3778,1751
16.3806,1754
16.3833,1761
16.3861,1763
16.3889,1772
16.3917,1768
16.3944,1785
16.3972,1782
16.4000,1776
16.4028,1771
16.4056,1756
16.4083,1751
16.4111,1756
16.4139,1762
16.4167,1769
16.4194,1768
16.4222,1758
16.4250,1750
16.4278,1743
16.4306,1745
16.4333,1751
16.4361,1742
16.4389,1746
16.4417,1751
16.4444,1757
16.4472,1755
16.4500,1747
16.4528,1749
16.4556,1749
16.4583,1738
16.4611,1740
16.4639,1742
16.4667,1745
16.4694,1746
16.4722,1732
16.4750,1724
16.4778,1726
16.4806,1725
16.4833,1726
16.4861,1718
16.4889,1713
16.4917,1715
16.4944,1729
16.4972,1739
16.5000,1746
16.5028,1739
16.5056,1739
16.5083,1743
16.5111,1761
16.5139,1761
16.5167,1763
16.5194,1762
16.5222,1747
16.5250,1734
16.5278,1733
16.5306,1734
16.5333,1727
16.5361,1735
16.5389,1746
16.5417,1746
16.5444,1734
16.5472,1728
16.5500,1734
16.5528,1729
16.5556,1731
16.5583,1734
16.5611,1741
16.5639,1734
16.5667,1728
16.5694,1731
16.5722,1733
16.5750,1745
16.5778,1748
16.5806,1746
16.5833,1734
16.5861,1728
16.5889,1734
16.5917,1740
16.5944,1759
16.5972,1780
16.6000,1786
16.6028,1787
16.6056,1799
16.6083,1813
16.6111,1828
16.6139,1830
16.6167,1841
16.6194,1839
16.6222,1841
16.6250,1836
16.6278,1842
16.6306,1849
16.6333,1859
16.6361,1860
16.6389,1864
16.6417,1857
16.6444,1839
16.6472,1817
16.6500,1787
16.6528,1760
16.6556,1743
16.6583,1732
16.6611,1735
16.6639,1734
16.6667,1721
16.6694,1709
16.6722,1699
16.6750,1694
16.6778,1687
16.6806,1701
16.6833,1708
16.6861,1703
16.6889,1707
16.6917,1699
16.6944,1698
16.6972,1698
16.7000,1698
16.7028,1704
16.7056,1702
16.7083,1707
16.7111,1714
16.7139,1709
16.7167,1703
16.7194,1699
16.7222,1710
16.7250,1716
16.7278,1697
16.7306,1683
16.7333,1689
16.7361,1759
16.7389,1903
16.7417,2098
16.7444,2239
16.7472,2184
16.7500,1962
16.7528,1705
16.7556,1473
16.7583,1303
16.7611,1234
16.7639,1272
16.7667,1425
16.7694,1604
16.7722,1748
16.7750,1848
16.7778,1878
16.7806,1873
16.7833,1836
16.7861,1790
16.7889,1775
16.7917,1777
16.7944,1766
16.7972,1755
16.8000,1724
16.8028,1696
16.8056,1697
16.8083,1685
16.8111,1693
16.8139,1702
16.8167,1715
16.8194,1711
16.8222,1716
16.8250,1711
16.8278,1710
16.8306,1719
16.8333,1730
16.8361,1734
16.8389,1743
16.8417,1734
16.8444,1734
16.8472,1713
16.8500,1720
16.8528,1731
16.8556,1739
16.8583,1738
16.8611,1734
16.8639,1717
16.8667,1720
16.8694,1719
16.8722,1741
16.8750,1749
16.8778,1766
16.8806,1756
16.8833,1764
16.8861,1756
16.8889,1759
16.8917,1773
16.8944,1780
16.8972,1781
16.9000,1776
16.9028,1774
16.9056,1770
16.9083,1779
16.9111,1773
16.9139,1769
16.9167,1775
16.9194,1777
16.9222,1769
16.9250,1763
16.9278,1765
16.9306,1784
16.9333,1797
16.9361,1803
16.9389,1799
16.9417,1795
16.9444,1787
16.9472,1780
16.9500,1785
16.9528,1792
16.9556,1797
16.9583,1805
16.9611,1808
16.9639,1808
16.9667,1797
16.9694,1784
16.9722,1769
16.9750,1776
16.9778,1781
16.9806,1772
16.9833,1755
16.9861,1749
16.9889,1740
16.9917,1742
16.9944,1750
16.9972,1751
17.0000,1756
17.0028,1769
17.0056,1772
17.0083,1751
17.0111,1752
17.0139,1737
17.0167,1752
17.0194,1744
17.0222,1739
17.0250,1743
17.0278,1740
17.0306,1742
17.0333,1750
17.0361,1762
17.0389,1776
17.0417,1783
17.0444,1779
17.0472,1779
17.0500,1776
17.0528,1773
17.0556,1773
17.0583,1779
17.0611,1771
17.0639,1768
17.0667,1773
17.0694,1776
17.0722,1787
17.0750,1787
17.0778,1792
17.0806,1782
17.0833,1778
17.0861,1774
17.0889,1788
17.0917,1799
17.0944,1807
17.0972,1801
17.1000,1801
17.1028,1789
17.1056,1785
17.1083,1781
17.1111,1791
17.1139,1788
17.1167,1784
17.1194,1796
17.1222,1786
17.1250,1774
17.1278,1750
17.1306,1749
17.1333,1754
17.1361,1777
17.1389,1772
17.1417,1770
17.1444,1770
17.1472,1767
17.1500,1762
17.1528,1785
17.1556,1786
17.1583,1795
17.1611,1789
17.1639,1769
17.1667,1767
17.1694,1767
17.1722,1779
17.1750,1789
17.1778,1785
17.1806,1780
17.1833,1770
17.1861,1765
17.1889,1768
17.1917,1771
17.1944,1778
17.1972,1780
17.2000,1777
17.2028,1779
17.2056,1772
17.2083,1774
17.2111,1777
17.2139,1777
17.2167,1775
17.2194,1783
17.2222,1784
17.2250,1777
17.2278,1764
17.2306,1758
17.2333,1755
17.2361,1769
17.2389,1780
17.2417,1785
17.2444,1780
17.2472,1759
17.2500,1750
17.2528,1750
17.2556,1760
17.2583,1770
17.2611,1772
17.2639,1772
17.2667,1771
17.2694,1767
17.2722,1771
17.2750,1784
17.2778,1780
17.2806,1775
17.2833,1766
17.2861,1760
17.2889,1766
17.2917,1761
17.2944,1768
17.2972,1763
17.3000,1754
17.3028,1765
17.3056,1767
17.3083,1788
17.3111,1792
17.3139,1804
17.3167,1821
17.3194,1814
17.3222,1820
17.3250,1817
17.3278,1833
17.3306,1842
17.3333,1855
17.3361,1868
17.3389,1872
17.3417,1871
17.3444,1862
17.3472,1856
17.3500,1856
17.3528,1862
17.3556,1865
17.3583,1867
17.3611,1870
17.3639,1865
17.3667,1864
17.3694,1853
17.3722,1820
17.3750,1792
17.3778,1762
17.3806,1750
17.3833,1741
17.3861,1737
17.3889,1741
17.3917,1737
17.3944,1727
17.3972,1729
17.4000,1729
17.4028,1728
17.4056,1740
17.4083,1741
17.4111,1743
17.4139,1732
17.4167,1737
17.4194,1732
17.4222,1732
17.4250,1744
17.4278,1758
17.4306,1743
17.4333,1724
17.4361,1697
17.4389,1702
17.4417,1720
17.4444,1730
17.4472,1728
17.4500,1720
17.4528,1739
17.4556,1810
17.4583,1948
17.4611,2115
17.4639,2252
17.4667,2169
17.4694,1946
17.4722,1686
17.4750,1466
17.4778,1315
17.4806,1248
17.4833,1316
17.4861,1461
17.4889,1652
17.4917,1790
17.4944,1870
17.4972,1889
17.5000,1873
17.5028,1848
17.5056,1819
17.5083,1799
17.5111,1780
17.5139,1777
17.5167,1763
17.5194,1755
17.5222,1739
17.5250,1723
17.5278,1706
17.5306,1707
17.5333,1715
17.5361,1738
17.5389,1737
17.5417,1724
17.5444,1715
17.5472,1721
17.5500,1734
17.5528,1743
17.5556,1747
17.5583,1735
17.5611,1718
17.5639,1700
17.5667,1697
17.5694,1711
17.5722,1731
17.5750,1741
17.5778,1748
17.5806,1749
17.5833,1745
17.5861,1740
17.5889,1734
17.5917,1743
17.5944,1754
17.5972,1759
17.6000,1763
17.6028,1764
17.6056,1763
17.6083,1759
17.6111,1741
17.6139,1729
17.6167,1731
17.6194,1737
17.6222,1739
17.6250,1738
17.6278,1743
17.6306,1761
17.6333,1771
17.6361,1775
17.6389,1781
17.6417,1770
17.6444,1758
17.6472,1757
17.6500,1769
17.6528,1776
17.6556,1788
17.6583,1783
17.6611,1780
17.6639,1771
17.6667,1769
17.6694,1745
17.6722,1762
17.6750,1770
17.6778,1781
17.6806,1767
17.6833,1750
17.6861,1736
17.6889,1737
17.6917,1745
17.6944,1756
17.6972,1765
17.7000,1761
17.7028,1745
17.7056,1742
17.7083,1731
17.7111,1730
17.7139,1739
17.7167,1726
17.7194,1725
17.7222,1723
17.7250,1709
17.7278,1699
17.7306,1715
17.7333,1727
17.7361,1730
17.7389,1735
17.7417,1732
17.7444,1735
17.7472,1728
17.7500,1707
17.7528,1714
17.7556,1709
17.7583,1702
17.7611,1693
17.7639,1699
17.7667,1712
17.7694,1722
17.7722,1727
17.7750,1742
17.7778,1744
17.7806,1720
17.7833,1709
17.7861,1709
17.7889,1713
17.7917,1726
17.7944,1736
17.7972,1739
17.8000,1743
17.8028,1729
17.8056,1732
17.8083,1734
17.8111,1742
17.8139,1749
17.8167,1752
17.8194,1743
17.8222,1733
17.8250,1736
17.8278,1745
17.8306,1749
17.8333,1759
17.8361,1765
17.8389,1766
17.8417,1756
17.8444,1748
17.8472,1745
17.8500,1750
17.8528,1745
17.8556,1736
17.8583,1739
17.8611,1730
17.8639,1720
17.8667,1731
17.8694,1730
17.8722,1735
17.8750,1746
17.8778,1749
17.8806,1742
17.8833,1730
17.8861,1715
17.8889,1713
17.8917,1725
17.8944,1732
17.8972,1734
17.9000,1725
17.9028,1724
17.9056,1731
17.9083,1729
17.9111,1726
17.9139,1727
17.9167,1727
17.9194,1720
17.9222,1709
17.9250,1711
17.9278,1728
17.9306,1736
17.9333,1720
17.9361,1705
17.9389,1703
17.9417,1702
17.9444,1704
17.9472,1711
17.9500,1714
17.9528,1722
17.9556,1720
17.9583,1717
17.9611,1714
17.9639,1714
17.9667,1709
17.9694,1714
17.9722,1720
17.9750,1724
17.9778,1727
17.9806,1730
17.9833,1729
17.9861,1725
17.9889,1722
17.9917,1722
17.9944,1717
17.9972,1733
18.0000,1732
18.0028,1729
18.0056,1741
18.0083,1748
18.0111,1753
18.0139,1765
18.0167,1781
18.0194,1791
18.0222,1797
18.0250,1790
18.0278,1797
18.0306,1812
18.0333,1834
18.0361,1848
18.0389,1841
18.0417,1827
18.0444,1811
18.0472,1810
18.0500,1797
18.0528,1793
18.0556,1789
18.0583,1779
18.0611,1771
18.0639,1770
18.0667,1751
18.0694,1739
18.0722,1725
18.0750,1719
18.0778,1716
18.0806,1709
18.0833,1704
18.0861,1686
18.0889,1684
18.0917,1689
18.0944,1691
18.0972,1688
18.1000,1705
18.1028,1695
18.1056,1700
18.1083,1709
18.1111,1712
18.1139,1701
18.1167,1695
18.1194,1689
18.1222,1673
18.1250,1660
18.1278,1665
18.1306,1674
18.1333,1694
18.1361,1677
18.1389,1668
18.1417,1654
18.1444,1656
18.1472,1741
18.1500,1879
18.1528,2070
18.1556,2209
18.1583,2162
18.1611,1964
18.1639,1703
18.1667,1480
18.1694,1318
18.1722,1235
18.1750,1265
18.1778,1399
18.1806,1577
18.1833,1734
18.1861,1829
18.1889,1872
18.1917,1862
18.1944,1840
18.1972,1805
18.2000,1787
18.2028,1780
18.2056,1770
18.2083,1751
18.2111,1740
18.2139,1724
18.2167,1715
18.2194,1722
18.2222,1727
18.2250,1731
18.2278,1723
18.2306,1722
18.2333,1724
18.2361,1729
18.2389,1722
18.2417,1720
18.2444,1733
18.2472,1740
18.2500,1739
18.2528,1722
18.2556,1721
18.2583,1715
18.2611,1720
18.2639,1726
18.2667,1735
18.2694,1732
18.2722,1723
18.2750,1723
18.2778,1718
18.2806,1732
18.2833,1734
18.2861,1751
18.2889,1763
18.2917,1749
18.2944,1746
18.2972,1741
18.3000,1745
18.3028,1746
18.3056,1760
18.3083,1761
18.3111,1761
18.3139,1759
18.3167,1763
18.3194,1765
18.3222,1778
18.3250,1767
18.3278,1780
18.3306,1783
18.3333,1783
18.3361,1773
18.3389,1775
18.3417,1780
18.3444,1779
18.3472,1789
18.3500,1792
18.3528,1795
18.3556,1783
18.3583,1782
18.3611,1789
18.3639,1795
18.3667,1796
18.3694,1785
18.3722,1771
18.3750,1761
18.3778,1756
18.3806,1761
18.3833,1759
18.3861,1760
18.3889,1746
18.3917,1736
18.3944,1732
18.3972,1735
18.4000,1734
18.4028,1738
18.4056,1734
18.4083,1733
18.4111,1725
18.4139,1722
18.4167,1711
18.4194,1712
18.4222,1714
18.4250,1721
18.4278,1724
18.4306,1729
18.4333,1719
18.4361,1711
18.4389,1708
18.4417,1713
18.4444,1718
18.4472,1729
18.4500,1734
18.4528,1735
18.4556,1745
18.4583,1743
18.4611,1732
18.4639,1722
18.4667,1729
18.4694,1726
18.4722,1728
18.4750,1716
18.4778,1716
18.4806,1728
18.4833,1730
18.4861,1738
18.4889,1740
18.4917,1744
18.4944,1733
18.4972,1733
18.5000,1733
18.5028,1740
18.5056,1740
18.5083,1755
18.5111,1745
18.5139,1736
18.5167,1730
18.5194,1719
18.5222,1718
18.5250,1731
18.5278,1738
18.5306,1736
18.5333,1743
18.5361,1746
18.5389,1754
18.5417,1729
18.5444,1723
18.5472,1716
18.5500,1718
18.5528,1720
18.5556,1737
18.5583,1731
18.5611,1735
18.5639,1736
18.5667,1743
18.5694,1740
18.5722,1736
18.5750,1742
18.5778,1739
18.5806,1726
18.5833,1726
18.5861,1732
18.5889,1727
18.5917,1731
18.5944,1717
18.5972,1708
18.6000,1711
18.6028,1712
18.6056,1717
18.6083,1726
18.6111,1725
18.6139,1725
18.6167,1719
18.6194,1720
18.6222,1732
18.6250,1739
18.6278,1722
18.6306,1707
18.6333,1710
18.6361,1708
18.6389,1702
18.6417,1708
18.6444,1706
18.6472,1715
18.6500,1730
18.6528,1742
18.6556,1744
18.6583,1734
18.6611,1710
18.6639,1701
18.6667,1691
18.6694,1690
18.6722,1693
18.6750,1702
18.6778,1705
18.6806,1713
18.6833,1719
18.6861,1725
18.6889,1726
18.6917,1723
18.6944,1725
18.6972,1731
18.7000,1724
18.7028,1735
18.7056,1733
18.7083,1742
18.7111,1744
18.7139,1752
18.7167,1773
18.7194,1789
18.7222,1790
18.7250,1784
18.7278,1779
18.7306,1782
18.7333,1791
18.7361,1802
18.7389,1811
18.7417,1809
18.7444,1821
18.7472,1816
18.7500,1804
18.7528,1790
18.7556,1775
18.7583,1774
18.7611,1753
18.7639,1747
18.7667,1745
18.7694,1726
18.7722,1711
18.7750,1700
18.7778,1683
18.7806,1667
18.7833,1663
18.7861,1659
18.7889,1655
18.7917,1657
18.7944,1660
18.7972,1662
18.8000,1675
18.8028,1695
18.8056,1700
18.8083,1697
18.8111,1681
18.8139,1666
18.8167,1663
18.8194,1664
18.8222,1666
18.8250,1665
18.8278,1652
18.8306,1657
18.8333,1677
18.8361,1696
18.8389,1685
18.8417,1665
18.8444,1642
18.8472,1677
18.8500,1804
18.8528,1983
18.8556,2141
18.8583,2147
18.8611,1972
18.8639,1705
18.8667,1458
18.8694,1281
18.8722,1182
18.8750,1192
18.8778,1304
18.8806,1488
18.8833,1654
18.8861,1773
18.8889,1817
18.8917,1821
18.8944,1794
18.8972,1764
18.9000,1750
18.9028,1751
18.9056,1754
18.9083,1743
18.9111,1702
18.9139,1663
18.9167,1640
18.9194,1627
18.9222,1641
18.9250,1659
18.9278,1677
18.9306,1685
18.9333,1662
18.9361,1654
18.9389,1637
18.9417,1642
18.9444,1654
18.9472,1681
18.9500,1701
18.9528,1697
18.9556,1666
18.9583,1650
18.9611,1648
18.9639,1653
18.9667,1656
18.9694,1664
18.9722,1675
18.9750,1665
18.9778,1660
18.9806,1667
18.9833,1673
18.9861,1673
18.9889,1684
18.9917,1688
18.9944,1685
18.9972,1679
19.0000,1681
19.0028,1696
19.0056,1718
19.0083,1724
19.0111,1703
19.0139,1697
19.0167,1681
19.0194,1682
19.0222,1684
19.0250,1709
19.0278,1717
19.0306,1724
19.0333,1716
19.0361,1715
19.0389,1706
19.0417,1713
19.0444,1723
19.0472,1726
19.0500,1738
19.0528,1733
19.0556,1746
19.0583,1745
19.0611,1713
19.0639,1714
19.0667,1726
19.0694,1723
19.0722,1727
19.0750,1716
19.0778,1719
19.0806,1709
19.0833,1715
19.0861,1709
19.0889,1708
19.0917,1694
19.0944,1682
19.0972,1673
19.1000,1664
19.1028,1671
19.1056,1672
19.1083,1678
19.1111,1689
19.1139,1689
19.1167,1669
19.1194,1666
19.1222,1662
19.1250,1670
19.1278,1656
19.1306,1660
19.1333,1653
19.1361,1651
19.1389,1650
19.1417,1663
19.1444,1677
19.1472,1678
19.1500,1684
19.1528,1680
19.1556,1687
19.1583,1690
19.1611,1701
19.1639,1685
19.1667,1671
19.1694,1672
19.1722,1678
19.1750,1677
19.1778,1684
19.1806,1689
19.1833,1695
19.1861,1712
19.1889,1720
19.1917,1721
19.1944,1727
19.1972,1706
19.2000,1709
19.2028,1714
19.2056,1717
19.2083,1729
19.2111,1735
19.2139,1728
19.2167,1731
19.2194,1727
19.2222,1719
19.2250,1710
19.2278,1715
19.2306,1724
19.2333,1734
19.2361,1730
19.2389,1747
19.2417,1756
19.2444,1762
19.2472,1746
19.2500,1733
19.2528,1720
19.2556,1720
19.2583,1732
19.2611,1734
19.2639,1734
19.2667,1739
19.2694,1738
19.2722,1735
19.2750,1732
19.2778,1733
19.2806,1732
19.2833,1741
19.2861,1752
19.2889,1754
19.2917,1751
19.2944,1757
19.2972,1759
19.3000,1752
19.3028,1748
19.3056,1741
19.3083,1755
19.3111,1751
19.3139,1755
19.3167,1751
19.3194,1760
19.3222,1749
19.3250,1751
19.3278,1757
19.3306,1769
19.3333,1770
19.3361,1770
19.3389,1771
19.3417,1761
19.3444,1764
19.3472,1775
19.3500,1788
19.3528,1791
19.3556,1783
19.3583,1775
19.3611,1778
19.3639,1774
19.3667,1777
19.3694,1781
19.3722,1781
19.3750,1776
19.3778,1780
19.3806,1784
19.3833,1815
19.3861,1821
19.3889,1834
19.3917,1831
19.3944,1829
19.3972,1836
19.4000,1851
19.4028,1877
19.4056,1884
19.4083,1890
19.4111,1878
19.4139,1872
19.4167,1857
19.4194,1835
19.4222,1815
19.4250,1804
19.4278,1793
19.4306,1782
19.4333,1775
19.4361,1760
19.4389,1749
19.4417,1746
19.4444,1741
19.4472,1724
19.4500,1694
19.4528,1692
19.4556,1683
19.4583,1680
19.4611,1674
19.4639,1687
19.4667,1687
19.4694,1693
19.4722,1697
19.4750,1698
19.4778,1691
19.4806,1698
19.4833,1690
19.4861,1699
19.4889,1703
19.4917,1687
19.4944,1665
19.4972,1665
19.5000,1672
19.5028,1679
19.5056,1675
19.5083,1658
19.5111,1656
19.5139,1724
19.5167,1858
19.5194,2038
19.5222,2187
19.5250,2138
19.5278,1938
19.5306,1676
19.5333,1461
19.5361,1296
19.5389,1213
19.5417,1244
19.5444,1382
19.5472,1582
19.5500,1731
19.5528,1813
19.5556,1840
19.5583,1843
19.5611,1834
19.5639,1795
19.5667,1766
19.5694,1757
19.5722,1758
19.5750,1757
19.5778,1743
19.5806,1731
19.5833,1712
19.5861,1703
19.5889,1710
19.5917,1727
19.5944,1734
19.5972,1733
19.6000,1720
19.6028,1713
19.6056,1716
19.6083,1729
19.6111,1738
19.6139,1745
19.6167,1739
19.6194,1733
19.6222,1727
19.6250,1720
19.6278,1722
19.6306,1740
19.6333,1750
19.6361,1758
19.6389,1754
19.6417,1753
19.6444,1755
19.6472,1753
19.6500,1778
19.6528,1785
19.6556,1787
19.6583,1763
19.6611,1747
19.6639,1727
19.6667,1737
19.6694,1758
19.6722,1766
19.6750,1786
19.6778,1779
19.6806,1778
19.6833,1781
19.6861,1775
19.6889,1772
19.6917,1775
19.6944,1783
19.6972,1790
19.7000,1787
19.7028,1798
19.7056,1805
19.7083,1811
19.7111,1811
19.7139,1819
19.7167,1820
19.7194,1824
19.7222,1831
19.7250,1822
19.7278,1809
19.7306,1815
19.7333,1824
19.7361,1822
19.7389,1813
19.7417,1793
19.7444,1790
19.7472,1793
19.7500,1793
19.7528,1800
19.7556,1795
19.7583,1787
19.7611,1770
19.7639,1770
19.7667,1776
19.7694,1766
19.7722,1775
19.7750,1781
19.7778,1768
19.7806,1750
19.7833,1731
19.7861,1726
19.7889,1740
19.7917,1755
19.7944,1756
19.7972,1768
19.8000,1765
19.8028,1765
19.8056,1760
19.8083,1760
19.8111,1751
19.8139,1755
19.8167,1757
19.8194,1757
19.8222,1755
19.8250,1750
19.8278,1752
19.8306,1757
19.8333,1760
19.8361,1768
19.8389,1767
19.8417,1766
19.8444,1768
19.8472,1764
19.8500,1759
19.8528,1757
19.8556,1762
19.8583,1765
19.8611,1763
19.8639,1767
19.8667,1778
19.8694,1785
19.8722,1785
19.8750,1779
19.8778,1779
19.8806,1780
19.8833,1780
19.8861,1779
19.8889,1760
19.8917,1757
19.8944,1755
19.8972,1758
19.9000,1761
19.9028,1749
19.9056,1751
19.9083,1755
19.9111,1758
19.9139,1763
19.9167,1767
19.9194,1771
19.9222,1770
19.9250,1771
19.9278,1768
19.9306,1763
19.9333,1762
19.9361,1760
19.9389,1747
19.9417,1734
19.9444,1735
19.9472,1734
19.9500,1742
19.9528,1751
19.9556,1768
19.9583,1776
19.9611,1779
19.9639,1772
19.9667,1745
19.9694,1750
19.9722,1755
19.9750,1765
19.9778,1785
19.9806,1794
19.9833,1794
19.9861,1797
19.9889,1817
19.9917,1828
19.9944,1825
19.9972,1813
20.0000,1816
20.0028,1810
20.0056,1823
20.0083,1845
20.0111,1854
20.0139,1863
20.0167,1870
20.0194,1871
20.0222,1858
20.0250,1841
20.0278,1837
20.0306,1826
20.0333,1810
20.0361,1777
20.0389,1761
20.0417,1745
20.0444,1728
20.0472,1736
20.0500,1742
20.0528,1728
20.0556,1733
20.0583,1723
20.0611,1716
20.0639,1698
20.0667,1692
20.0694,1702
20.0722,1709
20.0750,1710
20.0778,1704
20.0806,1707
20.0833,1698
20.0861,1708
20.0889,1721
20.0917,1730
20.0944,1721
20.0972,1721
20.1000,1711
20.1028,1693
20.1056,1689
20.1083,1702
20.1111,1705
20.1139,1704
20.1167,1694
20.1194,1693
20.1222,1756
20.1250,1881
20.1278,2059
20.1306,2209
20.1333,2176
20.1361,1974
20.1389,1716
20.1417,1495
20.1444,1324
20.1472,1227
20.1500,1234
20.1528,1361
20.1556,1538
20.1583,1710
20.1611,1824
20.1639,1884
20.1667,1899
20.1694,1880
20.1722,1849
20.1750,1829
20.1778,1811
20.1806,1798
20.1833,1795
20.1861,1781
20.1889,1758
20.1917,1750
20.1944,1748
20.1972,1753
20.2000,1759
20.2028,1764
20.2056,1760
20.2083,1749
20.2111,1752
20.2139,1735
20.2167,1734
20.2194,1745
20.2222,1746
20.2250,1750
20.2278,1745
20.2306,1751
20.2333,1760
20.2361,1770
20.2389,1760
20.2417,1738
20.2444,1717
20.2472,1703
20.2500,1706
20.2528,1727
20.2556,1738
20.2583,1751
20.2611,1766
20.2639,1765
20.2667,1767
20.2694,1755
20.2722,1747
20.2750,1739
20.2778,1740
20.2806,1755
20.2833,1761
20.2861,1773
20.2889,1776
20.2917,1779
20.2944,1789
20.2972,1803
20.3000,1803
20.3028,1799
20.3056,1794
20.3083,1787
20.3111,1795
20.3139,1804
20.3167,1813
20.3194,1818
20.3222,1810
20.3250,1817
20.3278,1826
20.3306,1843
20.3333,1845
20.3361,1805
20.3389,1806
20.3417,1814
20.3444,1812
20.3472,1803
20.3500,1798
20.3528,1811
20.3556,1817
20.3583,1802
20.3611,1777
20.3639,1754
20.3667,1743
20.3694,1737
20.3722,1752
20.3750,1755
20.3778,1754
20.3806,1754
20.3833,1748
20.3861,1748
20.3889,1739
20.3917,1724
20.3944,1728
20.3972,1728
20.4000,1746
20.4028,1757
20.4056,1750
20.4083,1742
20.4111,1744
20.4139,1745
20.4167,1749
20.4194,1753
20.4222,1754
20.4250,1758
20.4278,1751
20.4306,1742
20.4333,1731
20.4361,1736
20.4389,1740
20.4417,1757
20.4444,1761
20.4472,1751
20.4500,1743
20.4528,1740
20.4556,1747
20.4583,1754
20.4611,1760
20.4639,1749
20.4667,1734
20.4694,1726
20.4722,1720
20.4750,1724
20.4778,1733
20.4806,1741
20.4833,1742
20.4861,1755
20.4889,1765
20.4917,1761
20.4944,1747
20.4972,1732
20.5000,1741
20.5028,1747
20.5056,1746
20.5083,1730
20.5111,1721
20.5139,1706
20.5167,1706
20.5194,1711
20.5222,1729
20.5250,1733
20.5278,1731
20.5306,1723
20.5333,1708
20.5361,1705
20.5389,1706
20.5417,1710
20.5444,1706
20.5472,1703
20.5500,1706
20.5528,1698
20.5556,1699
20.5583,1713
20.5611,1704
20.5639,1711
20.5667,1710
20.5694,1706
20.5722,1698
20.5750,1701
20.5778,1691
20.5806,1707
20.5833,1725
20.5861,1756
20.5889,1759
20.5917,1746
20.5944,1741
20.5972,1741
20.6000,1751
20.6028,1761
20.6056,1779
20.6083,1777
20.6111,1776
20.6139,1787
20.6167,1801
20.6194,1821
20.6222,1823
20.6250,1823
20.6278,1796
20.6306,1773
20.6333,1756
20.6361,1755
20.6389,1745
20.6417,1722
20.6444,1699
20.6472,1685
20.6500,1675
20.6528,1671
20.6556,1672
20.6583,1677
20.6611,1676
20.6639,1658
20.6667,1623
20.6694,1607
20.6722,1606
20.6750,1620
20.6778,1637
20.6806,1639
20.6833,1649
20.6861,1639
20.6889,1652
20.6917,1641
20.6944,1636
20.6972,1629
20.7000,1636
20.7028,1630
20.7056,1640
20.7083,1634
20.7111,1633
20.7139,1643
20.7167,1659
20.7194,1658
20.7222,1635
20.7250,1617
20.7278,1628
20.7306,1700
20.7333,1841
20.7361,1994
20.7389,1997
20.7417,1790
20.7444,1534
20.7472,1325
20.7500,1210
20.7528,1162
20.7556,1183
20.7583,1269
20.7611,1426
20.7639,1607
20.7667,1744
20.7694,1823
20.7722,1836
20.7750,1816
20.7778,1786
20.7806,1744
20.7833,1736
20.7861,1727
20.7889,1720
20.7917,1696
20.7944,1673
20.7972,1659
20.8000,1645
20.8028,1643
20.8056,1666
20.8083,1678
20.8111,1683
20.8139,1681
20.8167,1672
20.8194,1670
20.8222,1679
20.8250,1694
20.8278,1696
20.8306,1691
20.8333,1675
20.8361,1664
20.8389,1657
20.8417,1654
20.8444,1678
20.8472,1688
20.8500,1689
20.8528,1674
20.8556,1668
20.8583,1668
20.8611,1674
20.8639,1686
20.8667,1700
20.8694,1715
20.8722,1712
20.8750,1723
20.8778,1717
20.8806,1724
20.8833,1733
20.8861,1737
20.8889,1746
20.8917,1738
20.8944,1731
20.8972,1715
20.9000,1694
20.9028,1707
20.9056,1723
20.9083,1733
20.9111,1744
20.9139,1737
20.9167,1746
20.9194,1740
20.9222,1741
20.9250,1755
20.9278,1775
20.9306,1772
20.9333,1767
20.9361,1763
20.9389,1756
20.9417,1776
20.9444,1781
20.9472,1761
20.9500,1750
20.9528,1750
20.9556,1764
20.9583,1770
20.9611,1757
20.9639,1723
20.9667,1708
20.9694,1700
20.9722,1703
20.9750,1711
20.9778,1709
20.9806,1718
20.9833,1725
20.9861,1726
20.9889,1729
20.9917,1714
20.9944,1707
20.9972,1696
21.0000,1698
21.0028,1698
21.0056,1709
21.0083,1704
21.0111,1705
21.0139,1708
21.0167,1705
21.0194,1711
21.0222,1724
21.0250,1733
21.0278,1756
21.0306,1767
21.0333,1755
21.0361,1739
21.0389,1720
21.0417,1721
21.0444,1726
21.0472,1727
21.0500,1722
21.0528,1729
21.0556,1740
21.0583,1751
21.0611,1770
21.0639,1779
21.0667,1764
21.0694,1745
21.0722,1722
21.0750,1709
21.0778,1701
21.0806,1713
21.0833,1723
21.0861,1733
21.0889,1728
21.0917,1730
21.0944,1741
21.0972,1758
21.1000,1773
21.1028,1778
21.1056,1762
21.1083,1742
21.1111,1729
21.1139,1727
21.1167,1721
21.1194,1730
21.1222,1738
21.1250,1758
21.1278,1764
21.1306,1763
21.1333,1755
21.1361,1736
21.1389,1722
21.1417,1717
21.1444,1714
21.1472,1722
21.1500,1737
21.1528,1736
21.1556,1749
21.1583,1749
21.1611,1745
21.1639,1749
21.1667,1734
21.1694,1726
21.1722,1727
21.1750,1743
21.1778,1754
21.1806,1744
21.1833,1727
21.1861,1721
21.1889,1721
21.1917,1719
21.1944,1715
21.1972,1710
21.2000,1720
21.2028,1724
21.2056,1730
21.2083,1728
21.2111,1737
21.2139,1749
21.2167,1765
21.2194,1773
21.2222,1780
21.2250,1790
21.2278,1793
21.2306,1788
21.2333,1785
21.2361,1786
21.2389,1790
21.2417,1796
21.2444,1813
21.2472,1828
21.2500,1838
21.2528,1843
21.2556,1841
21.2583,1836
21.2611,1832
21.2639,1842
21.2667,1854
21.2694,1876
21.2722,1884
21.2750,1879
21.2778,1865
21.2806,1848
21.2833,1832
21.2861,1817
21.2889,1806
21.2917,1805
21.2944,1800
21.2972,1799
21.3000,1773
21.3028,1750
21.3056,1736
21.3083,1731
21.3111,1734
21.3139,1721
21.3167,1711
21.3194,1710
21.3222,1707
21.3250,1701
21.3278,1703
21.3306,1704
21.3333,1708
21.3361,1702
21.3389,1708
21.3417,1711
21.3444,1707
21.3472,1706
21.3500,1701
21.3528,1698
21.3556,1697
21.3583,1702
21.3611,1703
21.3639,1713
21.3667,1707
21.3694,1691
21.3722,1670
21.3750,1649
21.3778,1688
21.3806,1789
21.3833,1951
21.3861,2099
21.3889,2056
21.3917,1828
21.3944,1560
21.3972,1346
21.4000,1259
21.4028,1244
21.4056,1295
21.4083,1410
21.4111,1571
21.4139,1719
21.4167,1834
21.4194,1893
21.4222,1883
21.4250,1862
21.4278,1822
21.4306,1809
21.4333,1807
21.4361,1798
21.4389,1805
21.4417,1787
21.4444,1776
21.4472,1771
21.4500,1781
21.4528,1786
21.4556,1767
21.4583,1757
21.4611,1746
21.4639,1731
21.4667,1717
21.4694,1715
21.4722,1724
21.4750,1739
21.4778,1757
21.4806,1759
21.4833,1757
21.4861,1739
21.4889,1739
21.4917,1745
21.4944,1753
21.4972,1762
21.5000,1758
21.5028,1749
21.5056,1752
21.5083,1752
21.5111,1770
21.5139,1779
21.5167,1783
21.5194,1802
21.5222,1787
21.5250,1765
21.5278,1767
21.5306,1768
21.5333,1775
21.5361,1796
21.5389,1794
21.5417,1798
21.5444,1809
21.5472,1811
21.5500,1827
21.5528,1818
21.5556,1808
21.5583,1804
21.5611,1805
21.5639,1820
21.5667,1819
21.5694,1812
21.5722,1818
21.5750,1828
21.5778,1834
21.5806,1831
21.5833,1837
21.5861,1835
21.5889,1840
21.5917,1819
21.5944,1814
21.5972,1824
21.6000,1810
21.6028,1791
21.6056,1776
21.6083,1778
21.6111,1787
21.6139,1795
21.6167,1798
21.6194,1784
21.6222,1772
21.6250,1773
21.6278,1781
21.6306,1777
21.6333,1776
21.6361,1765
21.6389,1750
21.6417,1728
21.6444,1732
21.6472,1732
21.6500,1740
21.6528,1754
21.6556,1769
21.6583,1773
21.6611,1764
21.6639,1746
21.6667,1740
21.6694,1730
21.6722,1729
21.6750,1745
21.6778,1748
21.6806,1753
21.6833,1755
21.6861,1749
21.6889,1735
21.6917,1734
21.6944,1736
21.6972,1746
21.7000,1742
21.7028,1746
21.7056,1742
21.7083,1746
21.7111,1743
21.7139,1752
21.7167,1755
21.7194,1764
21.7222,1770
21.7250,1772
21.7278,1769
21.7306,1779
21.7333,1777
21.7361,1771
21.7389,1743
21.7417,1730
21.7444,1729
21.7472,1737
21.7500,1743
21.7528,1744
21.7556,1747
21.7583,1748
21.7611,1756
21.7639,1757
21.7667,1761
21.7694,1771
21.7722,1759
21.7750,1751
21.7778,1751
21.7806,1757
21.7833,1746
21.7861,1738
21.7889,1741
21.7917,1749
21.7944,1743
21.7972,1755
21.8000,1763
21.8028,1757
21.8056,1750
21.8083,1745
21.8111,1754
21.8139,1744
21.8167,1752
21.8194,1752
21.8222,1759
21.8250,1753
21.8278,1753
21.8306,1758
21.8333,1749
21.8361,1758
21.8389,1759
21.8417,1759
21.8444,1731
21.8472,1712
21.8500,1714
21.8528,1723
21.8556,1731
21.8583,1737
21.8611,1735
21.8639,1740
21.8667,1735
21.8694,1740
21.8722,1735
21.8750,1730
21.8778,1734
21.8806,1738
21.8833,1737
21.8861,1741
21.8889,1749
21.8917,1753
21.8944,1749
21.8972,1755
21.9000,1745
21.9028,1742
21.9056,1731
21.9083,1737
21.9111,1756
21.9139,1764
21.9167,1758
21.9194,1751
21.9222,1740
21.9250,1745
21.9278,1755
21.9306,1755
21.9333,1748
21.9361,1741
21.9389,1738
21.9417,1743
21.9444,1753
21.9472,1771
21.9500,1782
21.9528,1782
21.9556,1802
21.9583,1817
21.9611,1835
21.9639,1849
21.9667,1851
21.9694,1861
21.9722,1858
21.9750,1881
21.9778,1881
21.9806,1884
21.9833,1879
21.9861,1865
21.9889,1849
21.9917,1830
21.9944,1822
21.9972,1820
22.0000,1803
22.0028,1798
22.0056,1789
22.0083,1770
22.0111,1777
22.0139,1766
22.0167,1758
22.0194,1734
22.0222,1715
22.0250,1697
22.0278,1707
22.0306,1708
22.0333,1708
22.0361,1706
22.0389,1702
22.0417,1698
22.0444,1705
22.0472,1709
22.0500,1713
22.0528,1720
22.0556,1724
22.0583,1734
22.0611,1726
22.0639,1706
22.0667,1688
22.0694,1679
22.0722,1693
22.0750,1727
22.0778,1742
22.0806,1743
22.0833,1736
22.0861,1724
22.0889,1792
22.0917,1945
22.0944,2163
22.0972,2353
22.1000,2350
22.1028,2154
22.1056,1913
22.1083,1662
22.1111,1459
22.1139,1343
22.1167,1336
22.1194,1441
22.1222,1589
22.1250,1717
22.1278,1791
22.1306,1832
22.1333,1843
22.1361,1821
22.1389,1790
22.1417,1775
22.1444,1766
22.1472,1751
22.1500,1739
22.1528,1731
22.1556,1724
22.1583,1719
22.1611,1718
22.1639,1722
22.1667,1711
22.1694,1706
22.1722,1693
22.1750,1688
22.1778,1679
22.1806,1682
22.1833,1693
22.1861,1713
22.1889,1725
22.1917,1727
22.1944,1735
22.1972,1710
22.2000,1692
22.2028,1695
22.2056,1714
22.2083,1720
22.2111,1720
22.2139,1719
22.2167,1711
22.2194,1708
22.2222,1715
22.2250,1724
22.2278,1734
22.2306,1750
22.2333,1758
22.2361,1749
22.2389,1749
22.2417,1743
22.2444,1751
22.2472,1756
22.2500,1759
22.2528,1756
22.2556,1751
22.2583,1755
22.2611,1754
22.2639,1751
22.2667,1751
22.2694,1755
22.2722,1762
22.2750,1762
22.2778,1757
22.2806,1758
22.2833,1764
22.2861,1783
22.2889,1796
22.2917,1807
22.2944,1801
22.2972,1784
22.3000,1776
22.3028,1807
22.3056,1816
22.3083,1812
22.3111,1809
22.3139,1796
22.3167,1782
22.3194,1769
22.3222,1781
22.3250,1783
22.3278,1784
22.3306,1795
22.3333,1792
22.3361,1780
22.3389,1768
22.3417,1774
22.3444,1774
22.3472,1784
22.3500,1781
22.3528,1781
22.3556,1772
22.3583,1771
22.3611,1759
22.3639,1757
22.3667,1757
22.3694,1756
22.3722,1753
22.3750,1746
22.3778,1733
22.3806,1733
22.3833,1743
22.3861,1750
22.3889,1759
22.3917,1759
22.3944,1770
22.3972,1768
22.4000,1758
22.4028,1741
22.4056,1743
22.4083,1737
22.4111,1739
22.4139,1742
22.4167,1734
22.4194,1736
22.4222,1749
22.4250,1761
22.4278,1767
22.4306,1786
22.4333,1782
22.4361,1790
22.4389,1791
22.4417,1776
22.4444,1777
22.4472,1776
22.4500,1780
22.4528,1785
22.4556,1785
22.4583,1769
22.4611,1770
22.4639,1771
22.4667,1765
22.4694,1776
22.4722,1772
22.4750,1771
22.4778,1762
22.4806,1775
22.4833,1783
22.4861,1781
22.4889,1776
22.4917,1784
22.4944,1798
22.4972,1808
22.5000,1798
22.5028,1770
22.5056,1757
22.5083,1762
22.5111,1760
22.5139,1759
22.5167,1763
22.5194,1748
22.5222,1742
22.5250,1750
22.5278,1760
22.5306,1757
22.5333,1751
22.5361,1747
22.5389,1733
22.5417,1738
22.5444,1754
22.5472,1760
22.5500,1767
22.5528,1762
22.5556,1762
22.5583,1753
22.5611,1756
22.5639,1746
22.5667,1741
22.5694,1743
22.5722,1738
22.5750,1734
22.5778,1730
22.5806,1736
22.5833,1734
22.5861,1742
22.5889,1743
22.5917,1744
22.5944,1750
22.5972,1744
22.6000,1734
22.6028,1743
22.6056,1747
22.6083,1743
22.6111,1750
22.6139,1752
22.6167,1750
22.6194,1747
22.6222,1734
22.6250,1732
22.6278,1728
22.6306,1727
22.6333,1716
22.6361,1712
22.6389,1713
22.6417,1716
22.6444,1728
22.6472,1741
22.6500,1757
22.6528,1751
22.6556,1735
22.6583,1729
22.6611,1721
22.6639,1723
22.6667,1736
22.6694,1743
22.6722,1756
22.6750,1750
22.6778,1748
22.6806,1742
22.6833,1752
22.6861,1750
22.6889,1751
22.6917,1737
22.6944,1735
22.6972,1727
22.7000,1734
22.7028,1747
22.7056,1768
22.7083,1766
22.7111,1743
22.7139,1739
22.7167,1730
22.7194,1738
22.7222,1746
22.7250,1758
22.7278,1765
22.7306,1760
22.7333,1759
22.7361,1758
22.7389,1753
22.7417,1762
22.7444,1756
22.7472,1763
22.7500,1764
22.7528,1754
22.7556,1763
22.7583,1763
22.7611,1759
22.7639,1753
22.7667,1755
22.7694,1760
22.7722,1767
22.7750,1759
22.7778,1765
22.7806,1761
22.7833,1750
22.7861,1764
22.7889,1763
22.7917,1773
22.7944,1773
22.7972,1763
22.8000,1766
22.8028,1765
22.8056,1776
22.8083,1777
22.8111,1772
22.8139,1773
22.8167,1762
22.8194,1755
22.8222,1734
22.8250,1727
22.8278,1724
22.8306,1729
22.8333,1734
22.8361,1747
22.8389,1744
22.8417,1747
22.8444,1745
22.8472,1752
22.8500,1749
22.8528,1749
22.8556,1749
22.8583,1745
22.8611,1750
22.8639,1751
22.8667,1755
22.8694,1768
22.8722,1757
22.8750,1755
22.8778,1750
22.8806,1752
22.8833,1765
22.8861,1755
22.8889,1759
22.8917,1756
22.8944,1765
22.8972,1762
22.9000,1763
22.9028,1759
22.9056,1760
22.9083,1754
22.9111,1746
22.9139,1745
22.9167,1755
22.9194,1760
22.9222,1753
22.9250,1754
22.9278,1748
22.9306,1739
22.9333,1759
22.9361,1764
22.9389,1774
22.9417,1780
22.9444,1779
22.9472,1786
22.9500,1794
22.9528,1791
22.9556,1787
22.9583,1778
22.9611,1781
22.9639,1780
22.9667,1776
22.9694,1785
22.9722,1776
22.9750,1784
22.9778,1793
22.9806,1817
22.9833,1837
22.9861,1835
22.9889,1822
22.9917,1797
22.9944,1787
22.9972,1769
23.0000,1771
23.0028,1768
23.0056,1757
23.0083,1761
23.0111,1754
23.0139,1746
23.0167,1739
23.0194,1739
23.0222,1744
23.0250,1757
23.0278,1759
23.0306,1746
23.0333,1745
23.0361,1732
23.0389,1732
23.0417,1741
23.0444,1743
23.0472,1745
23.0500,1745
23.0528,1759
23.0556,1747
23.0583,1753
23.0611,1767
23.0639,1764
23.0667,1745
23.0694,1726
23.0722,1742
23.0750,1836
23.0778,2005
23.0806,2218
23.0833,2381
23.0861,2323
23.0889,2121
23.0917,1888
23.0944,1668
23.0972,1515
23.1000,1453
23.1028,1494
23.1056,1594
23.1083,1702
23.1111,1770
23.1139,1820
23.1167,1845
23.1194,1842
23.1222,1825
23.1250,1807
23.1278,1795
23.1306,1789
23.1333,1774
23.1361,1751
23.1389,1748
23.1417,1745
23.1444,1750
23.1472,1745
23.1500,1736
23.1528,1744
23.1556,1736
23.1583,1720
23.1611,1702
23.1639,1699
23.1667,1712
23.1694,1726
23.1722,1741
23.1750,1755
23.1778,1754
23.1806,1742
23.1833,1729
23.1861,1731
23.1889,1732
23.1917,1743
23.1944,1758
23.1972,1751
23.2000,1744
23.2028,1733
23.2056,1731
23.2083,1754
23.2111,1764
23.2139,1774
23.2167,1773
23.2194,1743
23.2222,1714
23.2250,1709
23.2278,1712
23.2306,1733
23.2333,1752
23.2361,1760
23.2389,1764
23.2417,1758
23.2444,1740
23.2472,1742
23.2500,1753
23.2528,1768
23.2556,1780
23.2583,1773
23.2611,1779
23.2639,1765
23.2667,1763
23.2694,1778
23.2722,1783
23.2750,1796
23.2778,1786
23.2806,1786
23.2833,1778
23.2861,1777
23.2889,1824
23.2917,1829
23.2944,1833
23.2972,1822
23.3000,1822
23.3028,1820
23.3056,1817
23.3083,1809
23.3111,1807
23.3139,1803
23.3167,1800
23.3194,1800
23.3222,1790
23.3250,1793
23.3278,1796
23.3306,1797
23.3333,1796
23.3361,1790
23.3389,1786
23.3417,1781
23.3444,1781
23.3472,1783
23.3500,1785
23.3528,1788
23.3556,1790
23.3583,1778
23.3611,1764
23.3639,1770
23.3667,1769
23.3694,1779
23.3722,1795
23.3750,1801
23.3778,1802
23.3806,1788
23.3833,1783
23.3861,1773
23.3889,1779
23.3917,1780
23.3944,1784
23.3972,1771
23.4000,1765
23.4028,1767
23.4056,1777
23.4083,1771
23.4111,1780
23.4139,1798
23.4167,1798
23.4194,1796
23.4222,1792
23.4250,1778
23.4278,1777
23.4306,1792
23.4333,1803
23.4361,1799
23.4389,1800
23.4417,1797
23.4444,1810
23.4472,1818
23.4500,1821
23.4528,1810
23.4556,1796
23.4583,1793
23.4611,1798
23.4639,1795
23.4667,1800
23.4694,1807
23.4722,1820
23.4750,1821
23.4778,1817
23.4806,1809
23.4833,1803
23.4861,1792
23.4889,1799
23.4917,1800
23.4944,1809
23.4972,1811
23.5000,1803
23.5028,1799
23.5056,1788
23.5083,1782
23.5111,1775
23.5139,1775
23.5167,1784
23.5194,1786
23.5222,1789
23.5250,1774
23.5278,1773
23.5306,1785
23.5333,1794
23.5361,1784
23.5389,1781
23.5417,1750
23.5444,1735
23.5472,1735
23.5500,1750
23.5528,1755
23.5556,1768
23.5583,1769
23.5611,1768
23.5639,1767
23.5667,1764
23.5694,1761
23.5722,1773
23.5750,1771
23.5778,1766
23.5806,1776
23.5833,1768
23.5861,1768
23.5889,1763
23.5917,1763
23.5944,1765
23.5972,1767
23.6000,1768
23.6028,1773
23.6056,1773
23.6083,1776
23.6111,1777
23.6139,1781
23.6167,1780
23.6194,1774
23.6222,1770
23.6250,1767
23.6278,1777
23.6306,1783
23.6333,1785
23.6361,1784
23.6389,1783
23.6417,1767
23.6444,1770
23.6472,1766
23.6500,1767
23.6528,1775
23.6556,1784
23.6583,1788
23.6611,1785
23.6639,1787
23.6667,1792
23.6694,1793
23.6722,1782
23.6750,1791
23.6778,1778
23.6806,1775
23.6833,1777
23.6861,1782
23.6889,1785
23.6917,1790
23.6944,1783
23.6972,1769
23.7000,1765
23.7028,1767
23.7056,1776
23.7083,1772
23.7111,1764
23.7139,1749
23.7167,1752
23.7194,1754
23.7222,1763
23.7250,1772
23.7278,1762
23.7306,1740
23.7333,1732
23.7361,1734
23.7389,1746
23.7417,1751
23.7444,1740
23.7472,1736
23.7500,1737
23.7528,1740
23.7556,1740
23.7583,1737
23.7611,1735
23.7639,1736
23.7667,1724
23.7694,1732
23.7722,1737
23.7750,1727
23.7778,1720
23.7806,1714
23.7833,1711
23.7861,1717
23.7889,1721
23.7917,1731
23.7944,1740
23.7972,1739
23.8000,1746
23.8028,1735
23.8056,1721
23.8083,1711
23.8111,1689
23.8139,1687
23.8167,1684
23.8194,1684
23.8222,1688
23.8250,1694
23.8278,1712
23.8306,1705
23.8333,1700
23.8361,1703
23.8389,1715
23.8417,1714
23.8444,1705
23.8472,1711
23.8500,1718
23.8528,1733
23.8556,1726
23.8583,1705
23.8611,1698
23.8639,1700
23.8667,1714
23.8694,1737
23.8722,1757
23.8750,1782
23.8778,1769
23.8806,1766
23.8833,1755
23.8861,1738
23.8889,1720
23.8917,1715
23.8944,1725
23.8972,1749
23.9000,1762
23.9028,1774
23.9056,1774
23.9083,1776
23.9111,1784
23.9139,1767
23.9167,1751
23.9194,1723
23.9222,1695
23.9250,1672
23.9278,1665
23.9306,1664
23.9333,1666
23.9361,1663
23.9389,1660
23.9417,1676
23.9444,1668
23.9472,1677
23.9500,1689
23.9528,1695
23.9556,1676
23.9583,1645
23.9611,1637
23.9639,1646
23.9667,1659
23.9694,1659
23.9722,1662
23.9750,1656
23.9778,1653
23.9806,1640
23.9833,1629
23.9861,1638
23.9889,1650
23.9917,1641
23.9944,1628
23.9972,1616
24.0000,1627
24.0028,1703
24.0056,1860
24.0083,2041
24.0111,2104
24.0139,1965
24.0167,1726
24.0194,1495
24.0222,1347
24.0250,1247
24.0278,1238
24.0306,1316
24.0333,1482
24.0361,1641
24.0389,1761
24.0417,1813
24.0444,1809
24.0472,1775
24.0500,1745
24.0528,1726
24.0556,1704
24.0583,1706
24.0611,1694
24.0639,1681
24.0667,1676
24.0694,1675
24.0722,1670
24.0750,1654
24.0778,1650
24.0806,1645
24.0833,1638
24.0861,1636
24.0889,1636
24.0917,1622
24.0944,1635
24.0972,1642
24.1000,1659
24.1028,1661
24.1056,1652
24.1083,1645
24.1111,1640
24.1139,1636
24.1167,1648
24.1194,1655
24.1222,1664
24.1250,1665
24.1278,1667
24.1306,1662
24.1333,1650
24.1361,1649
24.1389,1645
24.1417,1648
24.1444,1660
24.1472,1664
24.1500,1666
24.1528,1666
24.1556,1675
24.1583,1703
24.1611,1710
24.1639,1704
24.1667,1681
24.1694,1666
24.1722,1665
24.1750,1680
24.1778,1689
24.1806,1698
24.1833,1708
24.1861,1712
24.1889,1702
24.1917,1693
24.1944,1701
24.1972,1718
24.2000,1736
24.2028,1736
24.2056,1720
24.2083,1718
24.2111,1702
24.2139,1764
24.2167,1768
24.2194,1769
24.2222,1772
24.2250,1761
24.2278,1759
24.2306,1754
24.2333,1740
24.2361,1732
24.2389,1731
24.2417,1739
24.2444,1750
24.2472,1753
24.2500,1747
24.2528,1729
24.2556,1726
24.2583,1727
24.2611,1719
24.2639,1714
24.2667,1713
24.2694,1710
24.2722,1699
24.2750,1706
24.2778,1712
24.2806,1725
24.2833,1712
24.2861,1705
24.2889,1694
24.2917,1690
24.2944,1686
24.2972,1709
24.3000,1707
24.3028,1711
24.3056,1711
24.3083,1714
24.3111,1719
24.3139,1723
24.3167,1722
24.3194,1720
24.3222,1726
24.3250,1725
24.3278,1724
24.3306,1729
24.3333,1733
24.3361,1728
24.3389,1740
24.3417,1748
24.3444,1766
24.3472,1777
24.3500,1773
24.3528,1758
24.3556,1745
24.3583,1740
24.3611,1741
24.3639,1736
24.3667,1731
24.3694,1735
24.3722,1736
24.3750,1752
24.3778,1758
24.3806,1765
24.3833,1766
24.3861,1756
24.3889,1762
24.3917,1777
24.3944,1793
24.3972,1803
24.4000,1797
24.4028,1791
24.4056,1775
24.4083,1775
24.4111,1757
24.4139,1750
24.4167,1754
24.4194,1752
24.4222,1753
24.4250,1765
24.4278,1764
24.4306,1765
24.4333,1771
24.4361,1777
24.4389,1773
24.4417,1771
24.4444,1755
24.4472,1754
24.4500,1759
24.4528,1751
24.4556,1760
24.4583,1754
24.4611,1764
24.4639,1760
24.4667,1754
24.4694,1755
24.4722,1757
24.4750,1760
24.4778,1765
24.4806,1762
24.4833,1775
24.4861,1770
24.4889,1767
24.4917,1758
24.4944,1764
24.4972,1761
24.5000,1762
24.5028,1764
24.5056,1770
24.5083,1769
24.5111,1749
24.5139,1740
24.5167,1736
24.5194,1739
24.5222,1744
24.5250,1731
24.5278,1730
24.5306,1731
24.5333,1739
24.5361,1748
24.5389,1760
24.5417,1755
24.5444,1772
24.5472,1778
24.5500,1757
24.5528,1734
24.5556,1725
24.5583,1722
24.5611,1728
24.5639,1731
24.5667,1730
24.5694,1728
24.5722,1721
24.5750,1721
24.5778,1726
24.5806,1721
24.5833,1733
24.5861,1749
24.5889,1755
24.5917,1755
24.5944,1754
24.5972,1756
24.6000,1754
24.6028,1755
24.6056,1766
24.6083,1775
24.6111,1777
24.6139,1782
24.6167,1798
24.6194,1817
24.6222,1817
24.6250,1817
24.6278,1811
24.6306,1803
24.6333,1814
24.6361,1844
24.6389,1860
24.6417,1865
24.6444,1859
24.6472,1844
24.6500,1832
24.6528,1824
24.6556,1808
24.6583,1779
24.6611,1769
24.6639,1748
24.6667,1736
24.6694,1734
24.6722,1726
24.6750,1729
24.6778,1739
24.6806,1737
24.6833,1735
24.6861,1718
24.6889,1707
24.6917,1709
24.6944,1692
24.6972,1688
24.7000,1691
24.7028,1694
24.7056,1716
24.7083,1722
24.7111,1718
24.7139,1720
24.7167,1721
24.7194,1727
24.7222,1722
24.7250,1716
24.7278,1699
24.7306,1689
24.7333,1710
24.7361,1724
24.7389,1726
24.7417,1706
24.7444,1660
24.7472,1664
24.7500,1743
24.7528,1891
24.7556,2059
24.7583,2081
24.7611,1902
24.7639,1643
24.7667,1412
24.7694,1283
24.7722,1238
24.7750,1269
24.7778,1352
24.7806,1512
24.7833,1694
24.7861,1834
24.7889,1898
24.7917,1908
24.7944,1885
24.7972,1852
24.8000,1830
24.8028,1814
24.8056,1806
24.8083,1790
24.8111,1765
24.8139,1747
24.8167,1734
24.8194,1741
24.8222,1755
24.8250,1769
24.8278,1765
24.8306,1765
24.8333,1762
24.8361,1751
24.8389,1751
24.8417,1769
24.8444,1788
24.8472,1795
24.8500,1811
24.8528,1810
24.8556,1790
24.8583,1761
24.8611,1739
24.8639,1755
24.8667,1767
24.8694,1777
24.8722,1775
24.8750,1771
24.8778,1787
24.8806,1791
24.8833,1798
24.8861,1802
24.8889,1809
24.8917,1791
24.8944,1788
24.8972,1781
24.9000,1776
24.9028,1788
24.9056,1807
24.9083,1812
24.9111,1816
24.9139,1815
24.9167,1805
24.9194,1808
24.9222,1811
24.9250,1824
24.9278,1836
24.9306,1845
24.9333,1856
24.9361,1857
24.9389,1845
24.9417,1848
24.9444,1853
24.9472,1854
24.9500,1857
24.9528,1858
24.9556,1854
24.9583,1860
24.9611,1835
24.9639,1857
24.9667,1866
24.9694,1868
24.9722,1856
24.9750,1829
24.9778,1805
24.9806,1808
24.9833,1814
24.9861,1809
24.9889,1801
24.9917,1801
24.9944,1789
24.9972,1793
25.0000,1800
25.0028,1807
25.0056,1814
25.0083,1816
25.0111,1802
25.0139,1779
25.0167,1770
25.0194,1771
25.0222,1759
25.0250,1762
25.0278,1759
25.0306,1766
25.0333,1772
25.0361,1762
25.0389,1767
25.0417,1775
25.0444,1776
25.0472,1778
25.0500,1788
25.0528,1784
25.0556,1776
25.0583,1765
25.0611,1761
25.0639,1763
25.0667,1772
25.0694,1786
25.0722,1784
25.0750,1779
25.0778,1776
25.0806,1777
25.0833,1788
25.0861,1793
25.0889,1800
25.0917,1805
25.0944,1800
25.0972,1798
25.1000,1797
25.1028,1796
25.1056,1805
25.1083,1805
25.1111,1802
25.1139,1789
25.1167,1784
25.1194,1795
25.1222,1810
25.1250,1820
25.1278,1826
25.1306,1818
25.1333,1812
25.1361,1800
25.1389,1806
25.1417,1817
25.1444,1816
25.1472,1818
25.1500,1810
25.1528,1796
25.1556,1798
25.1583,1797
25.1611,1809
25.1639,1827
25.1667,1823
25.1694,1811
25.1722,1802
25.1750,1799
25.1778,1793
25.1806,1807
25.1833,1823
25.1861,1830
25.1889,1826
25.1917,1806
25.1944,1808
25.1972,1806
25.2000,1814
25.2028,1816
25.2056,1818
25.2083,1811
25.2111,1814
25.2139,1804
25.2167,1809
25.2194,1805
25.2222,1806
25.2250,1809
25.2278,1818
25.2306,1824
25.2333,1822
25.2361,1816
25.2389,1818
25.2417,1819
25.2444,1817
25.2472,1826
25.2500,1832
25.2528,1833
25.2556,1820
25.2583,1795
25.2611,1784
25.2639,1777
25.2667,1774
25.2694,1775
25.2722,1780
25.2750,1782
25.2778,1788
25.2806,1793
25.2833,1808
25.2861,1810
25.2889,1805
25.2917,1804
25.2944,1802
25.2972,1800
25.3000,1800
25.3028,1812
25.3056,1808
25.3083,1819
25.3111,1831
25.3139,1829
25.3167,1840
25.3194,1855
25.3222,1862
25.3250,1865
25.3278,1880
25.3306,1897
25.3333,1897
25.3361,1900
25.3389,1908
25.3417,1911
25.3444,1904
25.3472,1915
25.3500,1922
25.3528,1932
25.3556,1943
25.3583,1929
25.3611,1897
25.3639,1868
25.3667,1855
25.3694,1857
25.3722,1847
25.3750,1841
25.3778,1835
25.3806,1818
25.3833,1803
25.3861,1805
25.3889,1797
25.3917,1788
25.3944,1784
25.3972,1785
25.4000,1781
25.4028,1778
25.4056,1781
25.4083,1780
25.4111,1776
25.4139,1777
25.4167,1755
25.4194,1755
25.4222,1754
25.4250,1760
25.4278,1772
25.4306,1785
25.4333,1775
25.4361,1755
25.4389,1759
25.4417,1781
25.4444,1791
25.4472,1801
25.4500,1793
25.4528,1787
25.4556,1815
25.4583,1941
25.4611,2124
25.4639,2340
25.4667,2453
25.4694,2323
25.4722,2074
25.4750,1810
25.4778,1579
25.4806,1416
25.4833,1370
25.4861,1424
25.4889,1568
25.4917,1706
25.4944,1813
25.4972,1879
25.5000,1900
25.5028,1897
25.5056,1880
25.5083,1857
25.5111,1839
25.5139,1835
25.5167,1810
25.5194,1786
25.5222,1767
25.5250,1752
25.5278,1761
25.5306,1773
25.5333,1789
25.5361,1809
25.5389,1816
25.5417,1804
25.5444,1775
25.5472,1745
25.5500,1742
25.5528,1760
25.5556,1777
25.5583,1785
25.5611,1789
25.5639,1785
25.5667,1768
25.5694,1770
25.5722,1779
25.5750,1781
25.5778,1794
25.5806,1779
25.5833,1768
25.5861,1755
25.5889,1761
25.5917,1776
25.5944,1797
25.5972,1808
25.6000,1813
25.6028,1810
25.6056,1792
25.6083,1777
25.6111,1773
25.6139,1778
25.6167,1796
25.6194,1806
25.6222,1797
25.6250,1800
25.6278,1784
25.6306,1783
25.6333,1793
25.6361,1800
25.6389,1797
25.6417,1800
25.6444,1795
25.6472,1782
25.6500,1790
25.6528,1802
25.6556,1824
25.6583,1826
25.6611,1828
25.6639,1825
25.6667,1823
25.6694,1818
25.6722,1831
25.6750,1836
25.6778,1833
25.6806,1832
25.6833,1816
25.6861,1807
25.6889,1797
25.6917,1795
25.6944,1797
25.6972,1804
25.7000,1796
25.7028,1789
25.7056,1776
25.7083,1773
25.7111,1772
25.7139,1780
25.7167,1785
25.7194,1776
25.7222,1777
25.7250,1770
25.7278,1780
25.7306,1765
25.7333,1747
25.7361,1737
25.7389,1743
25.7417,1739
25.7444,1742
25.7472,1740
25.7500,1744
25.7528,1740
25.7556,1747
25.7583,1748
25.7611,1747
25.7639,1751
25.7667,1743
25.7694,1735
25.7722,1741
25.7750,1737
25.7778,1744
25.7806,1746
25.7833,1747
25.7861,1740
25.7889,1730
25.7917,1733
25.7944,1741
25.7972,1754
25.8000,1762
25.8028,1759
25.8056,1757
25.8083,1745
25.8111,1745
25.8139,1748
25.8167,1754
25.8194,1767
25.8222,1767
25.8250,1763
25.8278,1781
25.8306,1776
25.8333,1779
25.8361,1775
25.8389,1785
25.8417,1777
25.8444,1789
25.8472,1771
25.8500,1773
25.8528,1777
25.8556,1775
25.8583,1783
25.8611,1773
25.8639,1757
25.8667,1753
25.8694,1754
25.8722,1757
25.8750,1773
25.8778,1752
25.8806,1757
25.8833,1746
25.8861,1750
25.8889,1749
25.8917,1750
25.8944,1756
25.8972,1752
25.9000,1758
25.9028,1753
25.9056,1755
25.9083,1748
25.9111,1738
25.9139,1733
25.9167,1737
25.9194,1738
25.9222,1730
25.9250,1727
25.9278,1726
25.9306,1734
25.9333,1738
25.9361,1730
25.9389,1735
25.9417,1734
25.9444,1738
25.9472,1738
25.9500,1732
25.9528,1740
25.9556,1730
25.9583,1723
25.9611,1724
25.9639,1712
25.9667,1714
25.9694,1724
25.9722,1719
25.9750,1726
25.9778,1739
25.9806,1752
25.9833,1764
25.9861,1751
25.9889,1732
25.9917,1726
25.9944,1713
25.9972,1718
26.0000,1722
26.0028,1734
26.0056,1741
26.0083,1735
26.0111,1731
26.0139,1733
26.0167,1729
26.0194,1722
26.0222,1729
26.0250,1735
26.0278,1735
26.0306,1743
26.0333,1746
26.0361,1745
26.0389,1747
26.0417,1745
26.0444,1729
26.0472,1726
26.0500,1724
26.0528,1729
26.0556,1744
26.0583,1732
26.0611,1733
26.0639,1744
26.0667,1749
26.0694,1763
26.0722,1768
26.0750,1787
26.0778,1794
26.0806,1803
26.0833,1803
26.0861,1804
26.0889,1809
26.0917,1821
26.0944,1825
26.0972,1825
26.1000,1829
26.1028,1825
26.1056,1822
26.1083,1817
26.1111,1822
26.1139,1814
26.1167,1808
26.1194,1793
26.1222,1795
26.1250,1780
26.1278,1759
26.1306,1733
26.1333,1715
26.1361,1704
26.1389,1707
26.1417,1720
26.1444,1719
26.1472,1712
26.1500,1701
26.1528,1698
26.1556,1687
26.1583,1687
26.1611,1686
26.1639,1694
26.1667,1692
26.1694,1692
26.1722,1702
26.1750,1704
26.1778,1683
26.1806,1694
26.1833,1690
26.1861,1681
26.1889,1667
26.1917,1680
26.1944,1682
26.1972,1691
26.2000,1674
26.2028,1644
26.2056,1657
26.2083,1738
26.2111,1888
26.2139,2089
26.2167,2232
26.2194,2167
26.2222,1949
26.2250,1715
26.2278,1493
26.2306,1334
26.2333,1261
26.2361,1319
26.2389,1448
26.2417,1610
26.2444,1731
26.2472,1804
26.2500,1838
26.2528,1821
26.2556,1783
26.2583,1758
26.2611,1733
26.2639,1721
26.2667,1716
26.2694,1698
26.2722,1682
26.2750,1669
26.2778,1660
26.2806,1667
26.2833,1676
26.2861,1697
26.2889,1713
26.2917,1710
26.2944,1695
26.2972,1667
26.3000,1648
26.3028,1648
26.3056,1659
26.3083,1659
26.3111,1664
26.3139,1666
26.3167,1661
26.3194,1654
26.3222,1661
26.3250,1669
26.3278,1672
26.3306,1680
26.3333,1677
26.3361,1665
26.3389,1663
26.3417,1673
26.3444,1685
26.3472,1696
26.3500,1704
26.3528,1706
26.3556,1704
26.3583,1693
26.3611,1690
26.3639,1695
26.3667,1693
26.3694,1711
26.3722,1713
26.3750,1719
26.3778,1717
26.3806,1704
26.3833,1697
26.3861,1710
26.3889,1702
26.3917,1715
26.3944,1708
26.3972,1709
26.4000,1701
26.4028,1714
26.4056,1724
