Tiempo(s),Valor_ADC
0.0028,1660
0.0056,1675
0.0083,1671
0.0111,1674
0.0139,1668
0.0167,1656
0.0194,1638
0.0222,1613
0.0250,1610
0.0278,1625
0.0306,1627
0.0333,1644
0.0361,1635
0.0389,1639
0.0417,1625
0.0444,1615
0.0472,1627
0.0500,1632
0.0528,1626
0.0556,1620
0.0583,1599
0.0611,1584
0.0639,1587
0.0667,1609
0.0694,1619
0.0722,1619
0.0750,1614
0.0778,1626
0.0806,1628
0.0833,1632
0.0861,1626
0.0889,1627
0.0917,1638
0.0944,1625
0.0972,1647
0.1000,1623
0.1028,1615
0.1056,1600
0.1083,1592
0.1111,1595
0.1139,1583
0.1167,1582
0.1194,1591
0.1222,1596
0.1250,1602
0.1278,1632
0.1306,1631
0.1333,1632
0.1361,1631
0.1389,1632
0.1417,1630
0.1444,1617
0.1472,1615
0.1500,1634
0.1528,1640
0.1556,1650
0.1583,1674
0.1611,1683
0.1639,1700
0.1667,1705
0.1694,1730
0.1722,1716
0.1750,1705
0.1778,1685
0.1806,1671
0.1833,1663
0.1861,1672
0.1889,1691
0.1917,1718
0.1944,1743
0.1972,1768
0.2000,1785
0.2028,1779
0.2056,1769
0.2083,1759
0.2111,1751
0.2139,1748
0.2167,1740
0.2194,1741
0.2222,1730
0.2250,1724
0.2278,1714
0.2306,1724
0.2333,1719
0.2361,1713
0.2389,1704
0.2417,1680
0.2444,1660
0.2472,1645
0.2500,1631
0.2528,1602
0.2556,1593
0.2583,1594
0.2611,1584
0.2639,1575
0.2667,1569
0.2694,1562
0.2722,1546
0.2750,1559
0.2778,1555
0.2806,1559
0.2833,1568
0.2861,1590
0.2889,1608
0.2917,1586
0.2944,1581
0.2972,1582
0.3000,1574
0.3028,1584
0.3056,1580
0.3083,1585
0.3111,1602
0.3139,1616
0.3167,1646
0.3194,1666
0.3222,1686
0.3250,1696
0.3278,1698
0.3306,1697
0.3333,1685
0.3361,1700
0.3389,1734
0.3417,1813
0.3444,1940
0.3472,2078
0.3500,2099
0.3528,1950
0.3556,1745
0.3583,1546
0.3611,1363
0.3639,1247
0.3667,1217
0.3694,1262
0.3722,1361
0.3750,1467
0.3778,1539
0.3806,1590
0.3833,1602
0.3861,1603
0.3889,1598
0.3917,1598
0.3944,1600
0.3972,1631
0.4000,1645
0.4028,1655
0.4056,1653
0.4083,1669
0.4111,1663
0.4139,1672
0.4167,1672
0.4194,1683
0.4222,1681
0.4250,1674
0.4278,1660
0.4306,1676
0.4333,1682
0.4361,1709
0.4389,1695
0.4417,1691
0.4444,1699
0.4472,1699
0.4500,1691
0.4528,1683
0.4556,1687
0.4583,1701
0.4611,1688
0.4639,1682
0.4667,1672
0.4694,1672
0.4722,1671
0.4750,1685
0.4778,1686
0.4806,1697
0.4833,1707
0.4861,1715
0.4889,1745
0.4917,1743
0.4944,1748
0.4972,1749
0.5000,1746
0.5028,1732
0.5056,1734
0.5083,1742
0.5111,1739
0.5139,1757
0.5167,1756
0.5194,1762
0.5222,1752
0.5250,1748
0.5278,1765
0.5306,1773
0.5333,1793
0.5361,1810
0.5389,1830
0.5417,1812
0.5444,1805
0.5472,1787
0.5500,1776
0.5528,1887
0.5556,1873
0.5583,1872
0.5611,1861
0.5639,1861
0.5667,1870
0.5694,1888
0.5722,1885
0.5750,1887
0.5778,1887
0.5806,1874
0.5833,1843
0.5861,1828
0.5889,1813
0.5917,1806
0.5944,1800
0.5972,1811
0.6000,1779
0.6028,1770
0.6056,1746
0.6083,1768
0.6111,1752
0.6139,1759
0.6167,1758
0.6194,1741
0.6222,1719
0.6250,1693
0.6278,1659
0.6306,1661
0.6333,1659
0.6361,1659
0.6389,1653
0.6417,1648
0.6444,1650
0.6472,1643
0.6500,1644
0.6528,1633
0.6556,1627
0.6583,1654
0.6611,1657
0.6639,1642
0.6667,1647
0.6694,1650
0.6722,1656
0.6750,1646
0.6778,1658
0.6806,1637
0.6833,1624
0.6861,1635
0.6889,1653
0.6917,1663
0.6944,1672
0.6972,1683
0.7000,1682
0.7028,1658
0.7056,1640
0.7083,1643
0.7111,1642
0.7139,1663
0.7167,1677
0.7194,1675
0.7222,1665
0.7250,1657
0.7278,1655
0.7306,1664
0.7333,1668
0.7361,1685
0.7389,1674
0.7417,1684
0.7444,1683
0.7472,1677
0.7500,1697
0.7528,1701
0.7556,1704
0.7583,1696
0.7611,1667
0.7639,1642
0.7667,1620
0.7694,1628
0.7722,1646
0.7750,1647
0.7778,1652
0.7806,1665
0.7833,1661
0.7861,1660
0.7889,1672
0.7917,1676
0.7944,1671
0.7972,1657
0.8000,1661
0.8028,1651
0.8056,1664
0.8083,1663
0.8111,1668
0.8139,1670
0.8167,1676
0.8194,1663
0.8222,1658
0.8250,1659
0.8278,1660
0.8306,1654
0.8333,1651
0.8361,1656
0.8389,1661
0.8417,1646
0.8444,1642
0.8472,1649
0.8500,1669
0.8528,1672
0.8556,1686
0.8583,1704
0.8611,1690
0.8639,1686
0.8667,1672
0.8694,1658
0.8722,1643
0.8750,1633
0.8778,1645
0.8806,1645
0.8833,1648
0.8861,1661
0.8889,1660
0.8917,1681
0.8944,1672
0.8972,1685
0.9000,1678
0.9028,1686
0.9056,1686
0.9083,1677
0.9111,1706
0.9139,1696
0.9167,1691
0.9194,1693
0.9222,1681
0.9250,1673
0.9278,1683
0.9306,1695
0.9333,1734
0.9361,1740
0.9389,1750
0.9417,1734
0.9444,1743
0.9472,1741
0.9500,1732
0.9528,1739
0.9556,1752
0.9583,1773
0.9611,1789
0.9639,1792
0.9667,1817
0.9694,1830
0.9722,1836
0.9750,1835
0.9778,1839
0.9806,1823
0.9833,1811
0.9861,1800
0.9889,1805
0.9917,1800
0.9944,1789
0.9972,1792
1.0000,1782
1.0028,1781
1.0056,1787
1.0083,1777
1.0111,1771
1.0139,1761
1.0167,1748
1.0194,1726
1.0222,1705
1.0250,1682
1.0278,1670
1.0306,1659
1.0333,1646
1.0361,1639
1.0389,1645
1.0417,1637
1.0444,1631
1.0472,1633
1.0500,1633
1.0528,1640
1.0556,1651
1.0583,1652
1.0611,1645
1.0639,1636
1.0667,1643
1.0694,1631
1.0722,1647
1.0750,1655
1.0778,1653
1.0806,1645
1.0833,1622
1.0861,1643
1.0889,1660
1.0917,1686
1.0944,1724
1.0972,1771
1.1000,1763
1.1028,1768
1.1056,1776
1.1083,1760
1.1111,1778
1.1139,1824
1.1167,1906
1.1194,2040
1.1222,2153
1.1250,2088
1.1278,1903
1.1306,1675
1.1333,1473
1.1361,1324
1.1389,1243
1.1417,1231
1.1444,1302
1.1472,1397
1.1500,1492
1.1528,1571
1.1556,1630
1.1583,1650
1.1611,1650
1.1639,1646
1.1667,1650
1.1694,1672
1.1722,1692
1.1750,1695
1.1778,1683
1.1806,1676
1.1833,1662
1.1861,1678
1.1889,1676
1.1917,1689
1.1944,1691
1.1972,1713
1.2000,1691
1.2028,1673
1.2056,1670
1.2083,1669
1.2111,1682
1.2139,1699
1.2167,1712
1.2194,1716
1.2222,1702
1.2250,1713
1.2278,1721
1.2306,1717
1.2333,1727
1.2361,1738
1.2389,1736
1.2417,1721
1.2444,1724
1.2472,1723
1.2500,1739
1.2528,1749
1.2556,1747
1.2583,1732
1.2611,1720
1.2639,1710
1.2667,1717
1.2694,1725
1.2722,1738
1.2750,1746
1.2778,1747
1.2806,1747
1.2833,1745
1.2861,1759
1.2889,1771
1.2917,1778
1.2944,1789
1.2972,1787
1.3000,1791
1.3028,1776
1.3056,1781
1.3083,1804
1.3111,1803
1.3139,1811
1.3167,1811
1.3194,1810
1.3222,1793
1.3250,1799
1.3278,1876
1.3306,1888
1.3333,1900
1.3361,1918
1.3389,1898
1.3417,1887
1.3444,1876
1.3472,1880
1.3500,1883
1.3528,1889
1.3556,1894
1.3583,1875
1.3611,1845
1.3639,1837
1.3667,1807
1.3694,1809
1.3722,1812
1.3750,1803
1.3778,1780
1.3806,1749
1.3833,1738
1.3861,1732
1.3889,1728
1.3917,1719
1.3944,1719
1.3972,1707
1.4000,1667
1.4028,1670
1.4056,1673
1.4083,1672
1.4111,1679
1.4139,1687
1.4167,1680
1.4194,1649
1.4222,1635
1.4250,1635
1.4278,1646
1.4306,1660
1.4333,1677
1.4361,1697
1.4389,1662
1.4417,1653
1.4444,1645
1.4472,1637
1.4500,1653
1.4528,1670
1.4556,1665
1.4583,1644
1.4611,1633
1.4639,1613
1.4667,1632
1.4694,1645
1.4722,1667
1.4750,1672
1.4778,1666
1.4806,1656
1.4833,1649
1.4861,1651
1.4889,1662
1.4917,1676
1.4944,1676
1.4972,1680
1.5000,1662
1.5028,1662
1.5056,1656
1.5083,1659
1.5111,1665
1.5139,1671
1.5167,1684
1.5194,1654
1.5222,1649
1.5250,1656
1.5278,1658
1.5306,1657
1.5333,1677
1.5361,1674
1.5389,1662
1.5417,1666
1.5444,1662
1.5472,1668
1.5500,1673
1.5528,1682
1.5556,1679
1.5583,1672
1.5611,1649
1.5639,1640
1.5667,1652
1.5694,1660
1.5722,1671
1.5750,1680
1.5778,1666
1.5806,1673
1.5833,1670
1.5861,1657
1.5889,1671
1.5917,1671
1.5944,1676
1.5972,1676
1.6000,1663
1.6028,1658
1.6056,1654
1.6083,1642
1.6111,1651
1.6139,1658
1.6167,1660
1.6194,1658
1.6222,1659
1.6250,1655
1.6278,1659
1.6306,1663
1.6333,1667
1.6361,1666
1.6389,1657
1.6417,1652
1.6444,1652
1.6472,1659
1.6500,1662
1.6528,1672
1.6556,1682
1.6583,1653
1.6611,1649
1.6639,1663
1.6667,1655
1.6694,1663
1.6722,1679
1.6750,1686
1.6778,1672
1.6806,1671
1.6833,1665
1.6861,1669
1.6889,1666
1.6917,1674
1.6944,1675
1.6972,1671
1.7000,1683
1.7028,1681
1.7056,1699
1.7083,1717
1.7111,1716
1.7139,1727
1.7167,1728
1.7194,1720
1.7222,1721
1.7250,1733
1.7278,1727
1.7306,1748
1.7333,1757
1.7361,1769
1.7389,1772
1.7417,1789
1.7444,1815
1.7472,1828
1.7500,1828
1.7528,1836
1.7556,1831
1.7583,1817
1.7611,1806
1.7639,1807
1.7667,1815
1.7694,1805
1.7722,1800
1.7750,1798
1.7778,1785
1.7806,1772
1.7833,1763
1.7861,1765
1.7889,1759
1.7917,1751
1.7944,1742
1.7972,1722
1.8000,1703
1.8028,1678
1.8056,1652
1.8083,1645
1.8111,1639
1.8139,1649
1.8167,1642
1.8194,1636
1.8222,1630
1.8250,1628
1.8278,1634
1.8306,1641
1.8333,1640
1.8361,1637
1.8389,1636
1.8417,1628
1.8444,1636
1.8472,1641
1.8500,1640
1.8528,1654
1.8556,1665
1.8583,1662
1.8611,1648
1.8639,1676
1.8667,1690
1.8694,1722
1.8722,1745
1.8750,1783
1.8778,1791
1.8806,1774
1.8833,1764
1.8861,1763
1.8889,1787
1.8917,1851
1.8944,1971
1.8972,2094
1.9000,2071
1.9028,1928
1.9056,1693
1.9083,1478
1.9111,1321
1.9139,1211
1.9167,1193
1.9194,1245
1.9222,1357
1.9250,1485
1.9278,1585
1.9306,1639
1.9333,1657
1.9361,1660
1.9389,1649
1.9417,1659
1.9444,1663
1.9472,1682
1.9500,1696
1.9528,1696
1.9556,1703
1.9583,1696
1.9611,1689
1.9639,1702
1.9667,1710
1.9694,1704
1.9722,1707
1.9750,1724
1.9778,1703
1.9806,1708
1.9833,1705
1.9861,1720
1.9889,1727
1.9917,1728
1.9944,1741
1.9972,1729
2.0000,1727
2.0028,1726
2.0056,1735
2.0083,1736
2.0111,1740
2.0139,1759
2.0167,1739
2.0194,1752
2.0222,1735
2.0250,1744
2.0278,1746
2.0306,1756
2.0333,1758
2.0361,1744
2.0389,1731
2.0417,1736
2.0444,1747
2.0472,1756
2.0500,1766
2.0528,1779
2.0556,1786
2.0583,1770
2.0611,1777
2.0639,1778
2.0667,1786
2.0694,1791
2.0722,1788
2.0750,1792
2.0778,1786
2.0806,1773
2.0833,1782
2.0861,1802
2.0889,1827
2.0917,1827
2.0944,1840
2.0972,1844
2.1000,1833
2.1028,1859
2.1056,1887
2.1083,1900
2.1111,1915
2.1139,1920
2.1167,1913
2.1194,1882
2.1222,1866
2.1250,1889
2.1278,1879
2.1306,1894
2.1333,1897
2.1361,1869
2.1389,1837
2.1417,1832
2.1444,1815
2.1472,1818
2.1500,1818
2.1528,1813
2.1556,1780
2.1583,1755
2.1611,1743
2.1639,1732
2.1667,1723
2.1694,1736
2.1722,1730
2.1750,1714
2.1778,1699
2.1806,1665
2.1833,1681
2.1861,1663
2.1889,1659
2.1917,1673
2.1944,1667
2.1972,1660
2.2000,1650
2.2028,1643
2.2056,1659
2.2083,1658
2.2111,1671
2.2139,1678
2.2167,1667
2.2194,1652
2.2222,1639
2.2250,1651
2.2278,1667
2.2306,1677
2.2333,1671
2.2361,1666
2.2389,1643
2.2417,1633
2.2444,1643
2.2472,1639
2.2500,1656
2.2528,1680
2.2556,1686
2.2583,1667
2.2611,1659
2.2639,1668
2.2667,1676
2.2694,1663
2.2722,1679
2.2750,1680
2.2778,1659
2.2806,1657
2.2833,1656
2.2861,1669
2.2889,1676
2.2917,1688
2.2944,1695
2.2972,1682
2.3000,1660
2.3028,1669
2.3056,1673
2.3083,1670
2.3111,1689
2.3139,1684
2.3167,1667
2.3194,1662
2.3222,1649
2.3250,1656
2.3278,1660
2.3306,1675
2.3333,1686
2.3361,1679
2.3389,1667
2.3417,1673
2.3444,1684
2.3472,1671
2.3500,1689
2.3528,1674
2.3556,1667
2.3583,1648
2.3611,1656
2.3639,1660
2.3667,1670
2.3694,1680
2.3722,1664
2.3750,1674
2.3778,1653
2.3806,1648
2.3833,1657
2.3861,1649
2.3889,1653
2.3917,1666
2.3944,1661
2.3972,1665
2.4000,1646
2.4028,1647
2.4056,1650
2.4083,1656
2.4111,1661
2.4139,1658
2.4167,1641
2.4194,1644
2.4222,1648
2.4250,1655
2.4278,1665
2.4306,1654
2.4333,1675
2.4361,1655
2.4389,1655
2.4417,1662
2.4444,1652
2.4472,1652
2.4500,1672
2.4528,1672
2.4556,1667
2.4583,1661
2.4611,1656
2.4639,1652
2.4667,1653
2.4694,1658
2.4722,1672
2.4750,1672
2.4778,1654
2.4806,1664
2.4833,1674
2.4861,1679
2.4889,1708
2.4917,1719
2.4944,1737
2.4972,1724
2.5000,1718
2.5028,1719
2.5056,1715
2.5083,1713
2.5111,1725
2.5139,1731
2.5167,1726
2.5194,1731
2.5222,1744
2.5250,1771
2.5278,1777
2.5306,1783
2.5333,1799
2.5361,1781
2.5389,1775
2.5417,1775
2.5444,1777
2.5472,1783
2.5500,1789
2.5528,1784
2.5556,1769
2.5583,1747
2.5611,1734
2.5639,1717
2.5667,1717
2.5694,1715
2.5722,1711
2.5750,1692
2.5778,1654
2.5806,1650
2.5833,1641
2.5861,1636
2.5889,1628
2.5917,1620
2.5944,1614
2.5972,1599
2.6000,1582
2.6028,1582
2.6056,1591
2.6083,1590
2.6111,1597
2.6139,1604
2.6167,1593
2.6194,1592
2.6222,1591
2.6250,1597
2.6278,1598
2.6306,1613
2.6333,1624
2.6361,1608
2.6389,1604
2.6417,1611
2.6444,1621
2.6472,1635
2.6500,1672
2.6528,1721
2.6556,1740
2.6583,1745
2.6611,1736
2.6639,1734
2.6667,1717
2.6694,1718
2.6722,1743
2.6750,1803
2.6778,1913
2.6806,2039
2.6833,2018
2.6861,1830
2.6889,1600
2.6917,1376
2.6944,1207
2.6972,1101
2.7000,1094
2.7028,1181
2.7056,1310
2.7083,1434
2.7111,1550
2.7139,1620
2.7167,1637
2.7194,1633
2.7222,1647
2.7250,1651
2.7278,1655
2.7306,1674
2.7333,1685
2.7361,1673
2.7389,1664
2.7417,1667
2.7444,1659
2.7472,1654
2.7500,1667
2.7528,1678
2.7556,1685
2.7583,1670
2.7611,1672
2.7639,1675
2.7667,1673
2.7694,1678
2.7722,1700
2.7750,1699
2.7778,1698
2.7806,1683
2.7833,1681
2.7861,1684
2.7889,1687
2.7917,1717
2.7944,1718
2.7972,1704
2.8000,1709
2.8028,1705
2.8056,1716
2.8083,1719
2.8111,1728
2.8139,1729
2.8167,1724
2.8194,1716
2.8222,1717
2.8250,1713
2.8278,1725
2.8306,1744
2.8333,1756
2.8361,1746
2.8389,1740
2.8417,1740
2.8444,1747
2.8472,1751
2.8500,1762
2.8528,1776
2.8556,1780
2.8583,1766
2.8611,1762
2.8639,1764
2.8667,1782
2.8694,1788
2.8722,1798
2.8750,1796
2.8778,1786
2.8806,1788
2.8833,1780
2.8861,1909
2.8889,1894
2.8917,1915
2.8944,1902
2.8972,1892
2.9000,1884
2.9028,1880
2.9056,1881
2.9083,1895
2.9111,1906
2.9139,1876
2.9167,1855
2.9194,1826
2.9222,1819
2.9250,1824
2.9278,1825
2.9306,1834
2.9333,1802
2.9361,1781
2.9389,1744
2.9417,1738
2.9444,1722
2.9472,1739
2.9500,1732
2.9528,1727
2.9556,1711
2.9583,1692
2.9611,1687
2.9639,1688
2.9667,1678
2.9694,1680
2.9722,1669
2.9750,1664
2.9778,1644
2.9806,1643
2.9833,1634
2.9861,1640
2.9889,1643
2.9917,1662
2.9944,1651
2.9972,1641
3.0000,1645
3.0028,1643
3.0056,1654
3.0083,1647
3.0111,1670
3.0139,1667
3.0167,1645
3.0194,1647
3.0222,1643
3.0250,1654
3.0278,1655
3.0306,1665
3.0333,1666
3.0361,1664
3.0389,1657
3.0417,1657
3.0444,1672
3.0472,1681
3.0500,1679
3.0528,1684
3.0556,1670
3.0583,1654
3.0611,1663
3.0639,1659
3.0667,1663
3.0694,1676
3.0722,1692
3.0750,1697
3.0778,1686
3.0806,1669
3.0833,1655
3.0861,1657
3.0889,1662
3.0917,1668
3.0944,1660
3.0972,1658
3.1000,1656
3.1028,1655
3.1056,1661
3.1083,1662
3.1111,1676
3.1139,1687
3.1167,1685
3.1194,1664
3.1222,1669
3.1250,1682
3.1278,1694
3.1306,1704
3.1333,1698
3.1361,1688
3.1389,1675
3.1417,1669
3.1444,1659
3.1472,1663
3.1500,1650
3.1528,1653
3.1556,1644
3.1583,1647
3.1611,1654
3.1639,1660
3.1667,1674
3.1694,1685
3.1722,1690
3.1750,1675
3.1778,1674
3.1806,1670
3.1833,1659
3.1861,1664
3.1889,1661
3.1917,1656
3.1944,1632
3.1972,1635
3.2000,1623
3.2028,1623
3.2056,1640
3.2083,1659
3.2111,1664
3.2139,1687
3.2167,1680
3.2194,1674
3.2222,1678
3.2250,1685
3.2278,1682
3.2306,1687
3.2333,1662
3.2361,1647
3.2389,1628
3.2417,1639
3.2444,1647
3.2472,1648
3.2500,1670
3.2528,1684
3.2556,1693
3.2583,1701
3.2611,1717
3.2639,1716
3.2667,1712
3.2694,1718
3.2722,1710
3.2750,1697
3.2778,1714
3.2806,1740
3.2833,1734
3.2861,1739
3.2889,1753
3.2917,1751
3.2944,1765
3.2972,1773
3.3000,1771
3.3028,1799
3.3056,1817
3.3083,1818
3.3111,1819
3.3139,1819
3.3167,1800
3.3194,1805
3.3222,1808
3.3250,1776
3.3278,1766
3.3306,1779
3.3333,1771
3.3361,1745
3.3389,1749
3.3417,1752
3.3444,1745
3.3472,1756
3.3500,1732
3.3528,1721
3.3556,1684
3.3583,1655
3.3611,1626
3.3639,1614
3.3667,1600
3.3694,1606
3.3722,1604
3.3750,1601
3.3778,1602
3.3806,1616
3.3833,1622
3.3861,1631
3.3889,1618
3.3917,1628
3.3944,1613
3.3972,1604
3.4000,1598
3.4028,1606
3.4056,1607
3.4083,1618
3.4111,1631
3.4139,1640
3.4167,1645
3.4194,1671
3.4222,1699
3.4250,1738
3.4278,1783
3.4306,1776
3.4333,1779
3.4361,1738
3.4389,1721
3.4417,1698
3.4444,1722
3.4472,1769
3.4500,1874
3.4528,2022
3.4556,2052
3.4583,1920
3.4611,1715
3.4639,1496
3.4667,1326
3.4694,1233
3.4722,1204
3.4750,1248
3.4778,1337
3.4806,1458
3.4833,1562
3.4861,1631
3.4889,1657
3.4917,1660
3.4944,1647
3.4972,1646
3.5000,1660
3.5028,1670
3.5056,1672
3.5083,1683
3.5111,1687
3.5139,1665
3.5167,1661
3.5194,1657
3.5222,1675
3.5250,1677
3.5278,1678
3.5306,1689
3.5333,1681
3.5361,1682
3.5389,1687
3.5417,1698
3.5444,1709
3.5472,1719
3.5500,1718
3.5528,1718
3.5556,1713
3.5583,1708
3.5611,1708
3.5639,1696
3.5667,1702
3.5694,1703
3.5722,1696
3.5750,1679
3.5778,1685
3.5806,1691
3.5833,1704
3.5861,1703
3.5889,1735
3.5917,1743
3.5944,1721
3.5972,1718
3.6000,1726
3.6028,1740
3.6056,1761
3.6083,1761
3.6111,1768
3.6139,1763
3.6167,1750
3.6194,1755
3.6222,1750
3.6250,1749
3.6278,1762
3.6306,1774
3.6333,1757
3.6361,1764
3.6389,1765
3.6417,1800
3.6444,1801
3.6472,1828
3.6500,1836
3.6528,1816
3.6556,1819
3.6583,1848
3.6611,1874
3.6639,1889
3.6667,1899
3.6694,1903
3.6722,1899
3.6750,1876
3.6778,1863
3.6806,1857
3.6833,1862
3.6861,1862
3.6889,1866
3.6917,1840
3.6944,1817
3.6972,1814
3.7000,1796
3.7028,1795
3.7056,1802
3.7083,1803
3.7111,1806
3.7139,1768
3.7167,1760
3.7194,1742
3.7222,1745
3.7250,1740
3.7278,1725
3.7306,1709
3.7333,1681
3.7361,1644
3.7389,1637
3.7417,1644
3.7444,1655
3.7472,1672
3.7500,1660
3.7528,1664
3.7556,1642
3.7583,1641
3.7611,1638
3.7639,1654
3.7667,1654
3.7694,1659
3.7722,1669
3.7750,1653
3.7778,1636
3.7806,1647
3.7833,1635
3.7861,1657
3.7889,1656
3.7917,1661
3.7944,1657
3.7972,1649
3.8000,1641
3.8028,1652
3.8056,1643
3.8083,1641
3.8111,1646
3.8139,1629
3.8167,1625
3.8194,1642
3.8222,1652
3.8250,1689
3.8278,1707
3.8306,1709
3.8333,1684
3.8361,1668
3.8389,1652
3.8417,1632
3.8444,1630
3.8472,1630
3.8500,1627
3.8528,1621
3.8556,1631
3.8583,1644
3.8611,1649
3.8639,1665
3.8667,1669
3.8694,1678
3.8722,1666
3.8750,1649
3.8778,1636
3.8806,1654
3.8833,1659
3.8861,1680
3.8889,1687
3.8917,1674
3.8944,1667
3.8972,1639
3.9000,1629
3.9028,1630
3.9056,1634
3.9083,1648
3.9111,1651
3.9139,1646
3.9167,1637
3.9194,1645
3.9222,1649
3.9250,1641
3.9278,1656
3.9306,1671
3.9333,1662
3.9361,1659
3.9389,1670
3.9417,1654
3.9444,1663
3.9472,1665
3.9500,1671
3.9528,1668
3.9556,1655
3.9583,1663
3.9611,1663
3.9639,1678
3.9667,1687
3.9694,1697
3.9722,1685
3.9750,1661
3.9778,1651
3.9806,1644
3.9833,1653
3.9861,1657
3.9889,1673
3.9917,1670
3.9944,1660
3.9972,1652
4.0000,1651
4.0028,1652
4.0056,1646
4.0083,1661
4.0111,1666
4.0139,1675
4.0167,1669
4.0194,1683
4.0222,1668
4.0250,1673
4.0278,1684
4.0306,1689
4.0333,1693
4.0361,1700
4.0389,1711
4.0417,1728
4.0444,1735
4.0472,1743
4.0500,1755
4.0528,1762
4.0556,1768
4.0583,1767
4.0611,1775
4.0639,1787
4.0667,1786
4.0694,1798
4.0722,1802
4.0750,1781
4.0778,1784
4.0806,1796
4.0833,1798
4.0861,1798
4.0889,1811
4.0917,1805
4.0944,1803
4.0972,1803
4.1000,1790
4.1028,1793
4.1056,1792
4.1083,1785
4.1111,1787
4.1139,1767
4.1167,1750
4.1194,1762
4.1222,1733
4.1250,1721
4.1278,1693
4.1306,1672
4.1333,1637
4.1361,1629
4.1389,1622
4.1417,1634
4.1444,1634
4.1472,1638
4.1500,1634
4.1528,1611
4.1556,1592
4.1583,1596
4.1611,1615
4.1639,1617
4.1667,1631
4.1694,1672
4.1722,1672
4.1750,1663
4.1778,1678
4.1806,1666
4.1833,1667
4.1861,1669
4.1889,1674
4.1917,1671
4.1944,1671
4.1972,1703
4.2000,1736
4.2028,1761
4.2056,1781
4.2083,1780
4.2111,1784
4.2139,1769
4.2167,1775
4.2194,1809
4.2222,1877
4.2250,2009
4.2278,2144
4.2306,2107
4.2333,1943
4.2361,1727
4.2389,1520
4.2417,1358
4.2444,1262
4.2472,1246
4.2500,1284
4.2528,1381
4.2556,1481
4.2583,1570
4.2611,1630
4.2639,1662
4.2667,1660
4.2694,1668
4.2722,1665
4.2750,1672
4.2778,1684
4.2806,1684
4.2833,1684
4.2861,1688
4.2889,1674
4.2917,1671
4.2944,1678
4.2972,1705
4.3000,1709
4.3028,1703
4.3056,1687
4.3083,1693
4.3111,1708
4.3139,1706
4.3167,1716
4.3194,1718
4.3222,1697
4.3250,1701
4.3278,1700
4.3306,1701
4.3333,1699
4.3361,1702
4.3389,1712
4.3417,1707
4.3444,1723
4.3472,1732
4.3500,1744
4.3528,1748
4.3556,1731
4.3583,1728
4.3611,1734
4.3639,1709
4.3667,1708
4.3694,1703
4.3722,1708
4.3750,1733
4.3778,1742
4.3806,1759
4.3833,1757
4.3861,1767
4.3889,1759
4.3917,1771
4.3944,1760
4.3972,1769
4.4000,1787
4.4028,1785
4.4056,1785
4.4083,1787
4.4111,1784
4.4139,1766
4.4167,1767
4.4194,1778
4.4222,1787
4.4250,1784
4.4278,1784
4.4306,1805
4.4333,1861
4.4361,1885
4.4389,1887
4.4417,1892
4.4444,1890
4.4472,1907
4.4500,1892
4.4528,1875
4.4556,1852
4.4583,1864
4.4611,1871
4.4639,1884
4.4667,1882
4.4694,1865
4.4722,1829
4.4750,1801
4.4778,1792
4.4806,1781
4.4833,1758
4.4861,1749
4.4889,1729
4.4917,1714
4.4944,1677
4.4972,1680
4.5000,1671
4.5028,1692
4.5056,1696
4.5083,1695
4.5111,1667
4.5139,1646
4.5167,1650
4.5194,1663
4.5222,1663
4.5250,1671
4.5278,1683
4.5306,1670
4.5333,1663
4.5361,1669
4.5389,1674
4.5417,1676
4.5444,1682
4.5472,1673
4.5500,1669
4.5528,1637
4.5556,1639
4.5583,1643
4.5611,1651
4.5639,1666
4.5667,1677
4.5694,1669
4.5722,1648
4.5750,1641
4.5778,1640
4.5806,1649
4.5833,1652
4.5861,1669
4.5889,1685
4.5917,1664
4.5944,1650
4.5972,1646
4.6000,1656
4.6028,1659
4.6056,1649
4.6083,1661
4.6111,1648
4.6139,1646
4.6167,1652
4.6194,1664
4.6222,1668
4.6250,1680
4.6278,1693
4.6306,1676
4.6333,1676
4.6361,1668
4.6389,1660
4.6417,1671
4.6444,1677
4.6472,1671
4.6500,1659
4.6528,1636
4.6556,1630
4.6583,1647
4.6611,1661
4.6639,1671
4.6667,1683
4.6694,1673
4.6722,1658
4.6750,1639
4.6778,1637
4.6806,1637
4.6833,1635
4.6861,1631
4.6889,1648
4.6917,1644
4.6944,1647
4.6972,1653
4.7000,1664
4.7028,1673
4.7056,1677
4.7083,1674
4.7111,1666
4.7139,1654
4.7167,1651
4.7194,1663
4.7222,1669
4.7250,1685
4.7278,1680
4.7306,1691
4.7333,1667
4.7361,1658
4.7389,1650
4.7417,1657
4.7444,1665
4.7472,1673
4.7500,1664
4.7528,1656
4.7556,1646
4.7583,1663
4.7611,1650
4.7639,1669
4.7667,1662
4.7694,1664
4.7722,1655
4.7750,1658
4.7778,1661
4.7806,1672
4.7833,1678
4.7861,1683
4.7889,1701
4.7917,1695
4.7944,1688
4.7972,1689
4.8000,1696
4.8028,1691
4.8056,1709
4.8083,1700
4.8111,1696
4.8139,1696
4.8167,1718
4.8194,1724
4.8222,1732
4.8250,1737
4.8278,1734
4.8306,1729
4.8333,1734
4.8361,1738
4.8389,1758
4.8417,1771
4.8444,1794
4.8472,1810
4.8500,1798
4.8528,1799
4.8556,1801
4.8583,1801
4.8611,1800
4.8639,1789
4.8667,1800
4.8694,1794
4.8722,1773
4.8750,1755
4.8778,1744
4.8806,1729
4.8833,1719
4.8861,1717
4.8889,1721
4.8917,1711
4.8944,1693
4.8972,1672
4.9000,1658
4.9028,1645
4.9056,1643
4.9083,1637
4.9111,1615
4.9139,1604
4.9167,1603
4.9194,1614
4.9222,1613
4.9250,1611
4.9278,1609
4.9306,1594
4.9333,1578
4.9361,1594
4.9389,1601
4.9417,1604
4.9444,1612
4.9472,1613
4.9500,1613
4.9528,1617
4.9556,1622
4.9583,1638
4.9611,1650
4.9639,1660
4.9667,1690
4.9694,1713
4.9722,1721
4.9750,1739
4.9778,1737
4.9806,1725
4.9833,1725
4.9861,1730
4.9889,1746
4.9917,1800
4.9944,1889
4.9972,2040
5.0000,2104
5.0028,1984
5.0056,1782
5.0083,1564
5.0111,1361
5.0139,1226
5.0167,1162
5.0194,1205
5.0222,1290
5.0250,1399
5.0278,1514
5.0306,1585
5.0333,1626
5.0361,1643
5.0389,1649
5.0417,1638
5.0444,1670
5.0472,1676
5.0500,1693
5.0528,1680
5.0556,1684
5.0583,1671
5.0611,1680
5.0639,1675
5.0667,1687
5.0694,1692
5.0722,1695
5.0750,1682
5.0778,1684
5.0806,1679
5.0833,1674
5.0861,1692
5.0889,1699
5.0917,1686
5.0944,1690
5.0972,1701
5.1000,1687
5.1028,1706
5.1056,1710
5.1083,1713
5.1111,1713
5.1139,1711
5.1167,1707
5.1194,1714
5.1222,1715
5.1250,1732
5.1278,1751
5.1306,1754
5.1333,1742
5.1361,1739
5.1389,1736
5.1417,1752
5.1444,1749
5.1472,1759
5.1500,1758
5.1528,1751
5.1556,1765
5.1583,1747
5.1611,1744
5.1639,1769
5.1667,1773
5.1694,1787
5.1722,1797
5.1750,1789
5.1778,1802
5.1806,1804
5.1833,1806
5.1861,1810
5.1889,1816
5.1917,1816
5.1944,1816
5.1972,1804
5.2000,1804
5.2028,1804
5.2056,1925
5.2083,1906
5.2111,1894
5.2139,1891
5.2167,1890
5.2194,1904
5.2222,1916
5.2250,1918
5.2278,1917
5.2306,1884
5.2333,1866
5.2361,1868
5.2389,1849
5.2417,1844
5.2444,1836
5.2472,1832
5.2500,1800
5.2528,1788
5.2556,1770
5.2583,1765
5.2611,1748
5.2639,1761
5.2667,1748
5.2694,1716
5.2722,1704
5.2750,1689
5.2778,1684
5.2806,1689
5.2833,1688
5.2861,1684
5.2889,1686
5.2917,1661
5.2944,1647
5.2972,1639
5.3000,1663
5.3028,1664
5.3056,1669
5.3083,1659
5.3111,1640
5.3139,1651
5.3167,1656
5.3194,1677
5.3222,1675
5.3250,1680
5.3278,1681
5.3306,1665
5.3333,1650
5.3361,1649
5.3389,1650
5.3417,1654
5.3444,1661
5.3472,1660
5.3500,1661
5.3528,1655
5.3556,1651
5.3583,1644
5.3611,1656
5.3639,1669
5.3667,1677
5.3694,1671
5.3722,1655
5.3750,1665
5.3778,1657
5.3806,1654
5.3833,1677
5.3861,1670
5.3889,1648
5.3917,1647
5.3944,1646
5.3972,1656
5.4000,1662
5.4028,1678
5.4056,1675
5.4083,1674
5.4111,1669
5.4139,1666
5.4167,1681
5.4194,1666
5.4222,1666
5.4250,1686
5.4278,1670
5.4306,1669
5.4333,1671
5.4361,1673
5.4389,1670
5.4417,1690
5.4444,1680
5.4472,1684
5.4500,1675
5.4528,1673
5.4556,1671
5.4583,1661
5.4611,1663
5.4639,1672
5.4667,1680
5.4694,1673
5.4722,1665
5.4750,1664
5.4778,1673
5.4806,1673
5.4833,1670
5.4861,1679
5.4889,1676
5.4917,1667
5.4944,1666
5.4972,1660
5.5000,1654
5.5028,1674
5.5056,1680
5.5083,1680
5.5111,1663
5.5139,1649
5.5167,1649
5.5194,1657
5.5222,1662
5.5250,1672
5.5278,1669
5.5306,1664
5.5333,1666
5.5361,1675
5.5389,1658
5.5417,1658
5.5444,1672
5.5472,1671
5.5500,1660
5.5528,1660
5.5556,1673
5.5583,1681
5.5611,1688
5.5639,1680
5.5667,1683
5.5694,1665
5.5722,1670
5.5750,1674
5.5778,1686
5.5806,1694
5.5833,1701
5.5861,1715
5.5889,1722
5.5917,1718
5.5944,1725
5.5972,1731
5.6000,1735
5.6028,1735
5.6056,1733
5.6083,1732
5.6111,1729
5.6139,1721
5.6167,1725
5.6194,1736
5.6222,1753
5.6250,1789
5.6278,1807
5.6306,1822
5.6333,1812
5.6361,1820
5.6389,1807
5.6417,1799
5.6444,1809
5.6472,1811
5.6500,1797
5.6528,1792
5.6556,1771
5.6583,1778
5.6611,1755
5.6639,1759
5.6667,1757
5.6694,1741
5.6722,1736
5.6750,1711
5.6778,1702
5.6806,1683
5.6833,1666
5.6861,1646
5.6889,1632
5.6917,1630
5.6944,1626
5.6972,1626
5.7000,1630
5.7028,1635
5.7056,1623
5.7083,1633
5.7111,1616
5.7139,1611
5.7167,1622
5.7194,1625
5.7222,1627
5.7250,1635
5.7278,1627
5.7306,1612
5.7333,1610
5.7361,1613
5.7389,1633
5.7417,1626
5.7444,1641
5.7472,1652
5.7500,1680
5.7528,1705
5.7556,1743
5.7583,1756
5.7611,1751
5.7639,1753
5.7667,1740
5.7694,1727
5.7722,1740
5.7750,1799
5.7778,1919
5.7806,2044
5.7833,2051
5.7861,1893
5.7889,1672
5.7917,1441
5.7944,1266
5.7972,1159
5.8000,1157
5.8028,1221
5.8056,1340
5.8083,1447
5.8111,1540
5.8139,1614
5.8167,1641
5.8194,1640
5.8222,1649
5.8250,1656
5.8278,1663
5.8306,1668
5.8333,1677
5.8361,1684
5.8389,1677
5.8417,1676
5.8444,1689
5.8472,1684
5.8500,1690
5.8528,1691
5.8556,1699
5.8583,1692
5.8611,1694
5.8639,1693
5.8667,1695
5.8694,1695
5.8722,1702
5.8750,1702
5.8778,1713
5.8806,1699
5.8833,1701
5.8861,1710
5.8889,1712
5.8917,1715
5.8944,1715
5.8972,1722
5.9000,1711
5.9028,1704
5.9056,1713
5.9083,1716
5.9111,1720
5.9139,1730
5.9167,1744
5.9194,1735
5.9222,1734
5.9250,1739
5.9278,1742
5.9306,1749
5.9333,1763
5.9361,1771
5.9389,1759
5.9417,1776
5.9444,1779
5.9472,1776
5.9500,1782
5.9528,1777
5.9556,1785
5.9583,1785
5.9611,1789
5.9639,1791
5.9667,1799
5.9694,1799
5.9722,1795
5.9750,1803
5.9778,1799
5.9806,1801
5.9833,1810
5.9861,1905
5.9889,1880
5.9917,1879
5.9944,1891
5.9972,1892
6.0000,1894
6.0028,1895
6.0056,1892
6.0083,1877
6.0111,1857
6.0139,1864
6.0167,1842
6.0194,1850
6.0222,1848
6.0250,1842
6.0278,1828
6.0306,1791
6.0333,1788
6.0361,1772
6.0389,1766
6.0417,1745
6.0444,1751
6.0472,1726
6.0500,1707
6.0528,1702
6.0556,1703
6.0583,1687
6.0611,1677
6.0639,1684
6.0667,1664
6.0694,1652
6.0722,1639
6.0750,1659
6.0778,1652
6.0806,1674
6.0833,1659
6.0861,1652
6.0889,1635
6.0917,1635
6.0944,1638
6.0972,1635
6.1000,1652
6.1028,1658
6.1056,1655
6.1083,1635
6.1111,1624
6.1139,1626
6.1167,1628
6.1194,1649
6.1222,1647
6.1250,1652
6.1278,1652
6.1306,1646
6.1333,1656
6.1361,1660
6.1389,1665
6.1417,1674
6.1444,1679
6.1472,1669
6.1500,1655
6.1528,1668
6.1556,1665
6.1583,1675
6.1611,1670
6.1639,1677
6.1667,1674
6.1694,1659
6.1722,1648
6.1750,1655
6.1778,1663
6.1806,1665
6.1833,1679
6.1861,1669
6.1889,1660
6.1917,1667
6.1944,1655
6.1972,1647
6.2000,1662
6.2028,1672
6.2056,1663
6.2083,1666
6.2111,1662
6.2139,1663
6.2167,1667
6.2194,1673
6.2222,1697
6.2250,1673
6.2278,1662
6.2306,1666
6.2333,1661
6.2361,1669
6.2389,1654
6.2417,1668
6.2444,1661
6.2472,1657
6.2500,1645
6.2528,1647
6.2556,1640
6.2583,1649
6.2611,1655
6.2639,1661
6.2667,1656
6.2694,1654
6.2722,1657
6.2750,1663
6.2778,1684
6.2806,1680
6.2833,1694
6.2861,1696
6.2889,1678
6.2917,1674
6.2944,1664
6.2972,1676
6.3000,1654
6.3028,1659
6.3056,1652
6.3083,1650
6.3111,1631
6.3139,1642
6.3167,1640
6.3194,1643
6.3222,1655
6.3250,1659
6.3278,1659
6.3306,1649
6.3333,1641
6.3361,1640
6.3389,1634
6.3417,1643
6.3444,1652
6.3472,1629
6.3500,1639
6.3528,1647
6.3556,1651
6.3583,1666
6.3611,1671
6.3639,1671
6.3667,1670
6.3694,1663
6.3722,1664
6.3750,1690
6.3778,1710
6.3806,1724
6.3833,1729
6.3861,1727
6.3889,1740
6.3917,1733
6.3944,1736
6.3972,1734
6.4000,1739
6.4028,1737
6.4056,1745
6.4083,1751
6.4111,1766
6.4139,1790
6.4167,1811
6.4194,1806
6.4222,1819
6.4250,1806
6.4278,1789
6.4306,1794
6.4333,1798
6.4361,1799
6.4389,1809
6.4417,1806
6.4444,1791
6.4472,1788
6.4500,1772
6.4528,1770
6.4556,1758
6.4583,1739
6.4611,1721
6.4639,1721
6.4667,1696
6.4694,1659
6.4722,1649
6.4750,1635
6.4778,1624
6.4806,1629
6.4833,1635
6.4861,1639
6.4889,1621
6.4917,1618
6.4944,1611
6.4972,1618
6.5000,1609
6.5028,1613
6.5056,1618
6.5083,1607
6.5111,1608
6.5139,1629
6.5167,1635
6.5194,1632
6.5222,1632
6.5250,1646
6.5278,1632
6.5306,1641
6.5333,1648
6.5361,1666
6.5389,1688
6.5417,1715
6.5444,1765
6.5472,1779
6.5500,1785
6.5528,1763
6.5556,1759
6.5583,1753
6.5611,1737
6.5639,1755
6.5667,1837
6.5694,1949
6.5722,2066
6.5750,2005
6.5778,1807
6.5806,1584
6.5833,1367
6.5861,1219
6.5889,1140
6.5917,1162
6.5944,1257
6.5972,1380
6.6000,1497
6.6028,1596
6.6056,1649
6.6083,1669
6.6111,1669
6.6139,1665
6.6167,1679
6.6194,1678
6.6222,1697
6.6250,1701
6.6278,1697
6.6306,1692
6.6333,1691
6.6361,1706
6.6389,1704
6.6417,1713
6.6444,1716
6.6472,1710
6.6500,1694
6.6528,1702
6.6556,1703
6.6583,1715
6.6611,1726
6.6639,1741
6.6667,1731
6.6694,1723
6.6722,1715
6.6750,1717
6.6778,1720
6.6806,1715
6.6833,1735
6.6861,1735
6.6889,1721
6.6917,1727
6.6944,1728
6.6972,1741
6.7000,1742
6.7028,1748
6.7056,1756
6.7083,1751
6.7111,1759
6.7139,1760
6.7167,1776
6.7194,1766
6.7222,1775
6.7250,1781
6.7278,1778
6.7306,1776
6.7333,1784
6.7361,1779
6.7389,1782
6.7417,1794
6.7444,1804
6.7472,1784
6.7500,1780
6.7528,1773
6.7556,1775
6.7583,1783
6.7611,1807
6.7639,1837
6.7667,1835
6.7694,1828
6.7722,1826
6.7750,1846
6.7778,1920
6.7806,1920
6.7833,1943
6.7861,1938
6.7889,1941
6.7917,1935
6.7944,1934
6.7972,1938
6.8000,1926
6.8028,1924
6.8056,1913
6.8083,1884
6.8111,1884
6.8139,1873
6.8167,1869
6.8194,1867
6.8222,1852
6.8250,1836
6.8278,1800
6.8306,1759
6.8333,1742
6.8361,1732
6.8389,1749
6.8417,1743
6.8444,1744
6.8472,1711
6.8500,1689
6.8528,1669
6.8556,1661
6.8583,1668
6.8611,1684
6.8639,1686
6.8667,1677
6.8694,1664
6.8722,1670
6.8750,1681
6.8778,1671
6.8806,1692
6.8833,1695
6.8861,1671
6.8889,1650
6.8917,1640
6.8944,1634
6.8972,1633
6.9000,1649
6.9028,1665
6.9056,1660
6.9083,1650
6.9111,1648
6.9139,1653
6.9167,1665
6.9194,1664
6.9222,1674
6.9250,1677
6.9278,1682
6.9306,1658
6.9333,1671
6.9361,1658
6.9389,1653
6.9417,1670
6.9444,1676
6.9472,1664
6.9500,1672
6.9528,1673
6.9556,1664
6.9583,1668
6.9611,1673
6.9639,1670
6.9667,1655
6.9694,1669
6.9722,1669
6.9750,1675
6.9778,1694
6.9806,1710
6.9833,1693
6.9861,1683
6.9889,1663
6.9917,1663
6.9944,1641
6.9972,1673
7.0000,1674
7.0028,1677
7.0056,1676
7.0083,1666
7.0111,1678
7.0139,1677
7.0167,1672
7.0194,1669
7.0222,1682
7.0250,1674
7.0278,1656
7.0306,1658
7.0333,1636
7.0361,1645
7.0389,1662
7.0417,1660
7.0444,1668
7.0472,1667
7.0500,1655
7.0528,1668
7.0556,1667
7.0583,1679
7.0611,1702
7.0639,1695
7.0667,1690
7.0694,1670
7.0722,1655
7.0750,1656
7.0778,1662
7.0806,1656
7.0833,1672
7.0861,1658
7.0889,1675
7.0917,1682
7.0944,1703
7.0972,1714
7.1000,1713
7.1028,1717
7.1056,1689
7.1083,1661
7.1111,1634
7.1139,1633
7.1167,1633
7.1194,1647
7.1222,1678
7.1250,1674
7.1278,1679
7.1306,1685
7.1333,1660
7.1361,1671
7.1389,1660
7.1417,1667
7.1444,1658
7.1472,1672
7.1500,1665
7.1528,1677
7.1556,1699
7.1583,1722
7.1611,1737
7.1639,1734
7.1667,1740
7.1694,1744
7.1722,1726
7.1750,1727
7.1778,1727
7.1806,1740
7.1833,1740
7.1861,1750
7.1889,1756
7.1917,1767
7.1944,1782
7.1972,1799
7.2000,1811
7.2028,1828
7.2056,1806
7.2083,1800
7.2111,1808
7.2139,1803
7.2167,1797
7.2194,1812
7.2222,1823
7.2250,1816
7.2278,1808
7.2306,1786
7.2333,1784
7.2361,1759
7.2389,1771
7.2417,1758
7.2444,1748
7.2472,1728
7.2500,1700
7.2528,1680
7.2556,1652
7.2583,1635
7.2611,1622
7.2639,1614
7.2667,1608
7.2694,1622
7.2722,1629
7.2750,1622
7.2778,1625
7.2806,1634
7.2833,1642
7.2861,1631
7.2889,1624
7.2917,1636
7.2944,1642
7.2972,1644
7.3000,1649
7.3028,1661
7.3056,1625
7.3083,1620
7.3111,1625
7.3139,1636
7.3167,1658
7.3194,1679
7.3222,1712
7.3250,1735
7.3278,1740
7.3306,1743
7.3333,1743
7.3361,1720
7.3389,1707
7.3417,1746
7.3444,1804
7.3472,1913
7.3500,2055
7.3528,2074
7.3556,1932
7.3583,1761
7.3611,1573
7.3639,1408
7.3667,1301
7.3694,1265
7.3722,1310
7.3750,1393
7.3778,1500
7.3806,1582
7.3833,1637
7.3861,1650
7.3889,1641
7.3917,1637
7.3944,1615
7.3972,1647
7.4000,1662
7.4028,1677
7.4056,1679
7.4083,1676
7.4111,1661
7.4139,1660
7.4167,1678
7.4194,1688
7.4222,1712
7.4250,1700
7.4278,1702
7.4306,1695
7.4333,1699
7.4361,1683
7.4389,1682
7.4417,1688
7.4444,1694
7.4472,1684
7.4500,1689
7.4528,1711
7.4556,1711
7.4583,1713
7.4611,1720
7.4639,1712
7.4667,1701
7.4694,1703
7.4722,1717
7.4750,1724
7.4778,1718
7.4806,1729
7.4833,1727
7.4861,1717
7.4889,1705
7.4917,1711
7.4944,1715
7.4972,1717
7.5000,1742
7.5028,1752
7.5056,1764
7.5083,1758
7.5111,1756
7.5139,1740
7.5167,1755
7.5194,1743
7.5222,1767
7.5250,1765
7.5278,1766
7.5306,1762
7.5333,1756
7.5361,1760
7.5389,1773
7.5417,1786
7.5444,1781
7.5472,1778
7.5500,1780
7.5528,1778
7.5556,1893
7.5583,1887
7.5611,1900
7.5639,1893
7.5667,1885
7.5694,1865
7.5722,1866
7.5750,1887
7.5778,1915
7.5806,1922
7.5833,1903
7.5861,1881
7.5889,1851
7.5917,1847
7.5944,1828
7.5972,1835
7.6000,1810
7.6028,1797
7.6056,1782
7.6083,1755
7.6111,1735
7.6139,1736
7.6167,1745
7.6194,1759
7.6222,1733
7.6250,1698
7.6278,1661
7.6306,1654
7.6333,1642
7.6361,1633
7.6389,1641
7.6417,1664
7.6444,1672
7.6472,1655
7.6500,1652
7.6528,1653
7.6556,1641
7.6583,1662
7.6611,1654
7.6639,1651
7.6667,1640
7.6694,1649
7.6722,1635
7.6750,1633
7.6778,1632
7.6806,1647
7.6833,1639
7.6861,1632
7.6889,1631
7.6917,1638
7.6944,1639
7.6972,1654
7.7000,1661
7.7028,1662
7.7056,1646
7.7083,1651
7.7111,1652
7.7139,1661
7.7167,1661
7.7194,1668
7.7222,1675
7.7250,1654
7.7278,1649
7.7306,1663
7.7333,1667
7.7361,1669
7.7389,1677
7.7417,1671
7.7444,1653
7.7472,1632
7.7500,1640
7.7528,1638
7.7556,1647
7.7583,1655
7.7611,1658
7.7639,1651
7.7667,1641
7.7694,1631
7.7722,1631
7.7750,1633
7.7778,1643
7.7806,1650
7.7833,1650
7.7861,1638
7.7889,1637
7.7917,1634
7.7944,1645
7.7972,1639
7.8000,1648
7.8028,1632
7.8056,1632
7.8083,1618
7.8111,1614
7.8139,1619
7.8167,1635
7.8194,1626
7.8222,1631
7.8250,1625
7.8278,1619
7.8306,1630
7.8333,1632
7.8361,1647
7.8389,1666
7.8417,1663
7.8444,1634
7.8472,1618
7.8500,1616
7.8528,1618
7.8556,1615
7.8583,1636
7.8611,1643
7.8639,1625
7.8667,1624
7.8694,1616
7.8722,1624
7.8750,1616
7.8778,1611
7.8806,1633
7.8833,1629
7.8861,1619
7.8889,1608
7.8917,1614
7.8944,1616
7.8972,1623
7.9000,1629
7.9028,1632
7.9056,1635
7.9083,1628
7.9111,1625
7.9139,1624
7.9167,1629
7.9194,1637
7.9222,1632
7.9250,1632
7.9278,1614
7.9306,1631
7.9333,1637
7.9361,1657
7.9389,1667
7.9417,1684
7.9444,1672
7.9472,1680
7.9500,1687
7.9528,1689
7.9556,1687
7.9583,1698
7.9611,1712
7.9639,1712
7.9667,1731
7.9694,1742
7.9722,1758
7.9750,1780
7.9778,1790
7.9806,1785
7.9833,1769
7.9861,1753
7.9889,1744
7.9917,1742
7.9944,1736
7.9972,1736
8.0000,1735
8.0028,1726
8.0056,1710
8.0083,1720
8.0111,1720
8.0139,1720
8.0167,1719
8.0194,1717
8.0222,1691
8.0250,1670
8.0278,1655
8.0306,1640
8.0333,1619
8.0361,1614
8.0389,1616
8.0417,1626
8.0444,1606
8.0472,1598
8.0500,1588
8.0528,1573
8.0556,1561
8.0583,1563
8.0611,1575
8.0639,1567
8.0667,1566
8.0694,1571
8.0722,1585
8.0750,1592
8.0778,1599
8.0806,1590
8.0833,1597
8.0861,1589
8.0889,1604
8.0917,1616
8.0944,1637
8.0972,1648
8.1000,1702
8.1028,1729
8.1056,1741
8.1083,1738
8.1111,1739
8.1139,1743
8.1167,1748
8.1194,1800
8.1222,1887
8.1250,1996
8.1278,2108
8.1306,2057
8.1333,1872
8.1361,1658
8.1389,1469
8.1417,1305
8.1444,1220
8.1472,1198
8.1500,1265
8.1528,1365
8.1556,1477
8.1583,1554
8.1611,1603
8.1639,1624
8.1667,1617
8.1694,1609
8.1722,1615
8.1750,1627
8.1778,1648
8.1806,1646
8.1833,1640
8.1861,1644
8.1889,1642
8.1917,1650
8.1944,1669
8.1972,1675
8.2000,1685
8.2028,1683
8.2056,1664
8.2083,1656
8.2111,1655
8.2139,1662
8.2167,1674
8.2194,1693
8.2222,1683
8.2250,1683
8.2278,1677
8.2306,1699
8.2333,1694
8.2361,1695
8.2389,1711
8.2417,1703
8.2444,1694
8.2472,1685
8.2500,1691
8.2528,1701
8.2556,1698
8.2583,1714
8.2611,1727
8.2639,1717
8.2667,1706
8.2694,1704
8.2722,1710
8.2750,1717
8.2778,1743
8.2806,1753
8.2833,1752
8.2861,1755
8.2889,1749
8.2917,1745
8.2944,1761
8.2972,1762
8.3000,1771
8.3028,1756
8.3056,1751
8.3083,1736
8.3111,1741
8.3139,1745
8.3167,1767
8.3194,1796
8.3222,1804
8.3250,1792
8.3278,1795
8.3306,1809
8.3333,1912
8.3361,1906
8.3389,1924
8.3417,1912
8.3444,1895
8.3472,1888
8.3500,1877
8.3528,1876
8.3556,1893
8.3583,1898
8.3611,1911
8.3639,1887
8.3667,1875
8.3694,1862
8.3722,1855
8.3750,1856
8.3778,1850
8.3806,1834
8.3833,1786
8.3861,1767
8.3889,1761
8.3917,1744
8.3944,1740
8.3972,1733
8.4000,1730
8.4028,1701
8.4056,1672
8.4083,1675
8.4111,1671
8.4139,1671
8.4167,1679
8.4194,1681
8.4222,1672
8.4250,1645
8.4278,1644
8.4306,1640
8.4333,1652
8.4361,1650
8.4389,1678
8.4417,1669
8.4444,1643
8.4472,1640
8.4500,1652
8.4528,1647
8.4556,1659
8.4583,1669
8.4611,1672
8.4639,1662
8.4667,1650
8.4694,1660
8.4722,1661
8.4750,1671
8.4778,1691
8.4806,1685
8.4833,1666
8.4861,1656
8.4889,1662
8.4917,1657
8.4944,1669
8.4972,1692
8.5000,1691
8.5028,1680
8.5056,1670
8.5083,1670
8.5111,1673
8.5139,1689
8.5167,1679
8.5194,1695
8.5222,1669
8.5250,1661
8.5278,1659
8.5306,1655
8.5333,1648
8.5361,1670
8.5389,1672
8.5417,1674
8.5444,1677
8.5472,1666
8.5500,1680
8.5528,1685
8.5556,1700
8.5583,1697
8.5611,1696
8.5639,1680
8.5667,1663
8.5694,1658
8.5722,1662
8.5750,1655
8.5778,1657
8.5806,1662
8.5833,1645
8.5861,1641
8.5889,1648
8.5917,1645
8.5944,1650
8.5972,1666
8.6000,1665
8.6028,1649
8.6056,1642
8.6083,1652
8.6111,1644
8.6139,1654
8.6167,1671
8.6194,1672
8.6222,1680
8.6250,1668
8.6278,1677
8.6306,1663
8.6333,1655
8.6361,1670
8.6389,1674
8.6417,1670
8.6444,1652
8.6472,1642
8.6500,1658
8.6528,1659
8.6556,1662
8.6583,1664
8.6611,1651
8.6639,1647
8.6667,1630
8.6694,1630
8.6722,1647
8.6750,1657
8.6778,1665
8.6806,1679
8.6833,1667
8.6861,1663
8.6889,1680
8.6917,1673
8.6944,1668
8.6972,1667
8.7000,1675
8.7028,1663
8.7056,1673
8.7083,1685
8.7111,1694
8.7139,1722
8.7167,1727
8.7194,1726
8.7222,1724
8.7250,1709
8.7278,1715
8.7306,1724
8.7333,1725
8.7361,1735
8.7389,1744
8.7417,1738
8.7444,1738
8.7472,1770
8.7500,1775
8.7528,1787
8.7556,1801
8.7583,1813
8.7611,1812
8.7639,1802
8.7667,1800
8.7694,1797
8.7722,1787
8.7750,1786
8.7778,1788
8.7806,1773
8.7833,1766
8.7861,1761
8.7889,1755
8.7917,1743
8.7944,1738
8.7972,1748
8.8000,1737
8.8028,1713
8.8056,1695
8.8083,1672
8.8111,1644
8.8139,1639
8.8167,1629
8.8194,1618
8.8222,1609
8.8250,1603
8.8278,1611
8.8306,1603
8.8333,1613
8.8361,1603
8.8389,1619
8.8417,1607
8.8444,1599
8.8472,1603
8.8500,1614
8.8528,1610
8.8556,1626
8.8583,1634
8.8611,1641
8.8639,1640
8.8667,1633
8.8694,1630
8.8722,1654
8.8750,1669
8.8778,1711
8.8806,1736
8.8833,1747
8.8861,1744
8.8889,1755
8.8917,1741
8.8944,1755
8.8972,1767
8.9000,1802
8.9028,1892
8.9056,2028
8.9083,2106
8.9111,1999
8.9139,1793
8.9167,1581
8.9194,1398
8.9222,1263
8.9250,1198
8.9278,1231
8.9306,1322
8.9333,1433
8.9361,1540
8.9389,1610
8.9417,1655
8.9444,1660
8.9472,1664
8.9500,1655
8.9528,1674
8.9556,1683
8.9583,1706
8.9611,1702
8.9639,1699
8.9667,1695
8.9694,1675
8.9722,1698
8.9750,1700
8.9778,1722
8.9806,1720
8.9833,1709
8.9861,1712
8.9889,1711
8.9917,1707
8.9944,1716
8.9972,1731
9.0000,1736
9.0028,1729
9.0056,1730
9.0083,1727
9.0111,1723
9.0139,1722
9.0167,1741
9.0194,1760
9.0222,1754
9.0250,1736
9.0278,1752
9.0306,1740
9.0333,1754
9.0361,1755
9.0389,1764
9.0417,1769
9.0444,1769
9.0472,1776
9.0500,1773
9.0528,1768
9.0556,1773
9.0583,1784
9.0611,1769
9.0639,1769
9.0667,1765
9.0694,1782
9.0722,1780
9.0750,1790
9.0778,1790
9.0806,1797
9.0833,1787
9.0861,1783
9.0889,1802
9.0917,1812
9.0944,1813
9.0972,1823
9.1000,1827
9.1028,1832
9.1056,1840
9.1083,1848
9.1111,1859
9.1139,1950
9.1167,1926
9.1194,1924
9.1222,1915
9.1250,1891
9.1278,1895
9.1306,1891
9.1333,1890
9.1361,1915
9.1389,1911
9.1417,1895
9.1444,1877
9.1472,1869
9.1500,1863
9.1528,1848
9.1556,1843
9.1583,1840
9.1611,1811
9.1639,1786
9.1667,1768
9.1694,1765
9.1722,1751
9.1750,1757
9.1778,1756
9.1806,1721
9.1833,1704
9.1861,1700
9.1889,1686
9.1917,1684
9.1944,1699
9.1972,1709
9.2000,1702
9.2028,1682
9.2056,1660
9.2083,1655
9.2111,1663
9.2139,1666
9.2167,1670
9.2194,1674
9.2222,1656
9.2250,1647
9.2278,1642
9.2306,1659
9.2333,1663
9.2361,1690
9.2389,1685
9.2417,1660
9.2444,1650
9.2472,1667
9.2500,1661
9.2528,1678
9.2556,1681
9.2583,1678
9.2611,1661
9.2639,1670
9.2667,1667
9.2694,1673
9.2722,1680
9.2750,1691
9.2778,1689
9.2806,1682
9.2833,1664
9.2861,1675
9.2889,1675
9.2917,1703
9.2944,1704
9.2972,1710
9.3000,1715
9.3028,1692
9.3056,1681
9.3083,1687
9.3111,1675
9.3139,1673
9.3167,1682
9.3194,1667
9.3222,1670
9.3250,1666
9.3278,1668
9.3306,1672
9.3333,1674
9.3361,1696
9.3389,1683
9.3417,1686
9.3444,1666
9.3472,1673
9.3500,1681
9.3528,1682
9.3556,1687
9.3583,1690
9.3611,1678
9.3639,1663
9.3667,1670
9.3694,1657
9.3722,1685
9.3750,1690
9.3778,1691
9.3806,1675
9.3833,1678
9.3861,1667
9.3889,1681
9.3917,1674
9.3944,1688
9.3972,1688
9.4000,1675
9.4028,1675
9.4056,1678
9.4083,1682
9.4111,1679
9.4139,1687
9.4167,1695
9.4194,1689
9.4222,1673
9.4250,1672
9.4278,1671
9.4306,1661
9.4333,1672
9.4361,1671
9.4389,1676
9.4417,1664
9.4444,1671
9.4472,1674
9.4500,1681
9.4528,1681
9.4556,1677
9.4583,1690
9.4611,1682
9.4639,1671
9.4667,1674
9.4694,1676
9.4722,1685
9.4750,1681
9.4778,1688
9.4806,1679
9.4833,1673
9.4861,1666
9.4889,1658
9.4917,1677
9.4944,1690
9.4972,1708
9.5000,1710
9.5028,1721
9.5056,1727
9.5083,1731
9.5111,1745
9.5139,1736
9.5167,1737
9.5194,1738
9.5222,1728
9.5250,1726
9.5278,1733
9.5306,1752
9.5333,1768
9.5361,1787
9.5389,1809
9.5417,1806
9.5444,1820
9.5472,1814
9.5500,1797
9.5528,1798
9.5556,1793
9.5583,1790
9.5611,1780
9.5639,1764
9.5667,1755
9.5694,1759
9.5722,1750
9.5750,1734
9.5778,1728
9.5806,1716
9.5833,1715
9.5861,1690
9.5889,1678
9.5917,1667
9.5944,1653
9.5972,1655
9.6000,1634
9.6028,1607
9.6056,1602
9.6083,1604
9.6111,1608
9.6139,1604
9.6167,1616
9.6194,1622
9.6222,1611
9.6250,1618
9.6278,1610
9.6306,1605
9.6333,1602
9.6361,1620
9.6389,1615
9.6417,1606
9.6444,1595
9.6472,1617
9.6500,1607
9.6528,1616
9.6556,1623
9.6583,1643
9.6611,1667
9.6639,1692
9.6667,1727
9.6694,1749
9.6722,1755
9.6750,1739
9.6778,1740
9.6806,1718
9.6833,1736
9.6861,1794
9.6889,1906
9.6917,2044
9.6944,2042
9.6972,1898
9.7000,1654
9.7028,1418
9.7056,1236
9.7083,1126
9.7111,1127
9.7139,1184
9.7167,1324
9.7194,1457
9.7222,1542
9.7250,1622
9.7278,1668
9.7306,1664
9.7333,1664
9.7361,1669
9.7389,1681
9.7417,1688
9.7444,1682
9.7472,1686
9.7500,1684
9.7528,1684
9.7556,1675
9.7583,1688
9.7611,1687
9.7639,1692
9.7667,1693
9.7694,1697
9.7722,1695
9.7750,1703
9.7778,1709
9.7806,1703
9.7833,1705
9.7861,1716
9.7889,1705
9.7917,1710
9.7944,1715
9.7972,1717
9.8000,1717
9.8028,1725
9.8056,1730
9.8083,1737
9.8111,1732
9.8139,1724
9.8167,1739
9.8194,1748
9.8222,1758
9.8250,1762
9.8278,1759
9.8306,1738
9.8333,1740
9.8361,1754
9.8389,1770
9.8417,1759
9.8444,1759
9.8472,1770
9.8500,1760
9.8528,1765
9.8556,1760
9.8583,1753
9.8611,1755
9.8639,1759
9.8667,1777
9.8694,1777
9.8722,1767
9.8750,1789
9.8778,1810
9.8806,1796
9.8833,1812
9.8861,1821
9.8889,1813
9.8917,1832
9.8944,1821
9.8972,1910
9.9000,1895
9.9028,1889
9.9056,1905
9.9083,1905
9.9111,1908
9.9139,1908
9.9167,1911
9.9194,1893
9.9222,1879
9.9250,1878
9.9278,1875
9.9306,1875
9.9333,1866
9.9361,1850
9.9389,1828
9.9417,1811
9.9444,1796
9.9472,1794
9.9500,1778
9.9528,1777
9.9556,1763
9.9583,1751
9.9611,1730
9.9639,1720
9.9667,1698
9.9694,1696
9.9722,1685
9.9750,1682
9.9778,1675
9.9806,1670
9.9833,1665
9.9861,1666
9.9889,1682
9.9917,1691
9.9944,1695
9.9972,1675
10.0000,1666
10.0028,1642
10.0056,1643
10.0083,1659
10.0111,1655
10.0139,1665
10.0167,1662
10.0194,1643
10.0222,1647
10.0250,1653
10.0278,1655
10.0306,1664
10.0333,1657
10.0361,1664
10.0389,1643
10.0417,1627
10.0444,1635
10.0472,1646
10.0500,1671
10.0528,1672
10.0556,1681
10.0583,1669
10.0611,1651
10.0639,1656
10.0667,1665
10.0694,1659
10.0722,1663
10.0750,1670
10.0778,1662
10.0806,1650
10.0833,1656
10.0861,1658
10.0889,1664
10.0917,1678
10.0944,1688
10.0972,1697
10.1000,1677
10.1028,1664
10.1056,1668
10.1083,1672
10.1111,1657
10.1139,1668
10.1167,1658
10.1194,1658
10.1222,1652
10.1250,1650
10.1278,1647
10.1306,1647
10.1333,1664
10.1361,1666
10.1389,1668
10.1417,1659
10.1444,1668
10.1472,1667
10.1500,1662
10.1528,1682
10.1556,1671
10.1583,1680
10.1611,1682
10.1639,1694
10.1667,1702
10.1694,1696
10.1722,1697
10.1750,1693
10.1778,1678
10.1806,1670
10.1833,1666
10.1861,1665
10.1889,1663
10.1917,1673
10.1944,1673
10.1972,1682
10.2000,1665
10.2028,1662
10.2056,1659
10.2083,1654
10.2111,1662
10.2139,1669
10.2167,1672
10.2194,1674
10.2222,1683
10.2250,1688
10.2278,1696
10.2306,1704
10.2333,1712
10.2361,1704
10.2389,1710
10.2417,1702
10.2444,1700
10.2472,1709
10.2500,1701
10.2528,1704
10.2556,1700
10.2583,1691
10.2611,1691
10.2639,1683
10.2667,1688
10.2694,1708
10.2722,1716
10.2750,1721
10.2778,1725
10.2806,1716
10.2833,1734
10.2861,1756
10.2889,1759
10.2917,1765
10.2944,1766
10.2972,1755
10.3000,1766
10.3028,1772
10.3056,1776
10.3083,1771
10.3111,1789
10.3139,1806
10.3167,1826
10.3194,1832
10.3222,1821
10.3250,1826
10.3278,1801
10.3306,1815
10.3333,1831
10.3361,1825
10.3389,1807
10.3417,1805
10.3444,1796
10.3472,1787
10.3500,1776
10.3528,1768
10.3556,1776
10.3583,1744
10.3611,1727
10.3639,1705
10.3667,1693
10.3694,1697
10.3722,1696
10.3750,1672
10.3778,1672
10.3806,1645
10.3833,1642
10.3861,1631
10.3889,1625
10.3917,1613
10.3944,1625
10.3972,1611
10.4000,1606
10.4028,1608
10.4056,1621
10.4083,1628
10.4111,1634
10.4139,1656
10.4167,1665
10.4194,1653
10.4222,1661
10.4250,1666
10.4278,1676
10.4306,1664
10.4333,1674
10.4361,1713
10.4389,1730
10.4417,1739
10.4444,1774
10.4472,1761
10.4500,1754
10.4528,1735
10.4556,1724
10.4583,1726
10.4611,1771
10.4639,1856
10.4667,2006
10.4694,2102
10.4722,2021
10.4750,1828
10.4778,1603
10.4806,1413
10.4833,1293
10.4861,1227
10.4889,1256
10.4917,1327
10.4944,1449
10.4972,1536
10.5000,1606
10.5028,1646
10.5056,1647
10.5083,1651
10.5111,1632
10.5139,1656
10.5167,1674
10.5194,1696
10.5222,1711
10.5250,1714
10.5278,1706
10.5306,1730
10.5333,1720
10.5361,1715
10.5389,1701
10.5417,1686
10.5444,1687
10.5472,1685
10.5500,1687
10.5528,1690
10.5556,1703
10.5583,1686
10.5611,1705
10.5639,1730
10.5667,1724
10.5694,1727
10.5722,1741
10.5750,1746
10.5778,1774
10.5806,1773
10.5833,1776
10.5861,1770
10.5889,1761
10.5917,1750
10.5944,1751
10.5972,1737
10.6000,1735
10.6028,1736
10.6056,1723
10.6083,1717
10.6111,1717
10.6139,1726
10.6167,1741
10.6194,1757
10.6222,1746
10.6250,1764
10.6278,1763
10.6306,1759
10.6333,1759
10.6361,1771
10.6389,1785
10.6417,1794
10.6444,1798
10.6472,1810
10.6500,1816
10.6528,1820
10.6556,1839
10.6583,1830
10.6611,1828
10.6639,1823
10.6667,1806
10.6694,1813
10.6722,1827
10.6750,1929
10.6778,1915
10.6806,1894
10.6833,1901
10.6861,1908
10.6889,1914
10.6917,1923
10.6944,1922
10.6972,1906
10.7000,1885
10.7028,1884
10.7056,1881
10.7083,1877
10.7111,1883
10.7139,1872
10.7167,1841
10.7194,1823
10.7222,1793
10.7250,1771
10.7278,1763
10.7306,1747
10.7333,1744
10.7361,1736
10.7389,1730
10.7417,1722
10.7444,1716
10.7472,1707
10.7500,1702
10.7528,1706
10.7556,1680
10.7583,1659
10.7611,1637
10.7639,1657
10.7667,1655
10.7694,1659
10.7722,1664
10.7750,1667
10.7778,1649
10.7806,1642
10.7833,1643
10.7861,1655
10.7889,1650
10.7917,1658
10.7944,1662
10.7972,1656
10.8000,1656
10.8028,1656
10.8056,1667
10.8083,1677
10.8111,1693
10.8139,1696
10.8167,1695
10.8194,1688
10.8222,1668
10.8250,1669
10.8278,1657
10.8306,1661
10.8333,1665
10.8361,1654
10.8389,1649
10.8417,1644
10.8444,1662
10.8472,1678
10.8500,1686
10.8528,1688
10.8556,1688
10.8583,1679
10.8611,1664
10.8639,1657
10.8667,1646
10.8694,1653
10.8722,1665
10.8750,1681
10.8778,1681
10.8806,1687
10.8833,1696
10.8861,1709
10.8889,1704
10.8917,1712
10.8944,1704
10.8972,1673
10.9000,1674
10.9028,1660
10.9056,1651
10.9083,1653
10.9111,1649
10.9139,1639
10.9167,1637
10.9194,1638
10.9222,1655
10.9250,1665
10.9278,1678
10.9306,1686
10.9333,1692
10.9361,1678
10.9389,1666
10.9417,1671
10.9444,1665
10.9472,1672
10.9500,1688
10.9528,1695
10.9556,1696
10.9583,1673
10.9611,1682
10.9639,1681
10.9667,1681
10.9694,1676
10.9722,1662
10.9750,1656
10.9778,1651
10.9806,1641
10.9833,1640
10.9861,1649
10.9889,1657
10.9917,1673
10.9944,1684
10.9972,1692
11.0000,1674
11.0028,1687
11.0056,1687
11.0083,1668
11.0111,1667
11.0139,1672
11.0167,1657
11.0194,1669
11.0222,1678
11.0250,1683
11.0278,1685
11.0306,1673
11.0333,1674
11.0361,1661
11.0389,1652
11.0417,1644
11.0444,1658
11.0472,1686
11.0500,1712
11.0528,1736
11.0556,1736
11.0583,1735
11.0611,1739
11.0639,1730
11.0667,1715
11.0694,1726
11.0722,1730
11.0750,1730
11.0778,1740
11.0806,1743
11.0833,1767
11.0861,1780
11.0889,1802
11.0917,1823
11.0944,1822
11.0972,1832
11.1000,1826
11.1028,1815
11.1056,1813
11.1083,1809
11.1111,1803
11.1139,1817
11.1167,1801
11.1194,1792
11.1222,1784
11.1250,1757
11.1278,1756
11.1306,1748
11.1333,1742
11.1361,1725
11.1389,1711
11.1417,1689
11.1444,1663
11.1472,1637
11.1500,1628
11.1528,1626
11.1556,1605
11.1583,1605
11.1611,1604
11.1639,1612
11.1667,1608
11.1694,1610
11.1722,1612
11.1750,1608
11.1778,1597
11.1806,1606
11.1833,1623
11.1861,1642
11.1889,1642
11.1917,1646
11.1944,1636
11.1972,1615
11.2000,1601
11.2028,1586
11.2056,1593
11.2083,1611
11.2111,1648
11.2139,1695
11.2167,1739
11.2194,1749
11.2222,1759
11.2250,1753
11.2278,1735
11.2306,1740
11.2333,1764
11.2361,1803
11.2389,1916
11.2417,2061
11.2444,2124
11.2472,2012
11.2500,1810
11.2528,1621
11.2556,1440
11.2583,1302
11.2611,1244
11.2639,1267
11.2667,1329
11.2694,1442
11.2722,1545
11.2750,1598
11.2778,1634
11.2806,1628
11.2833,1638
11.2861,1656
11.2889,1657
11.2917,1675
11.2944,1681
11.2972,1668
11.3000,1670
11.3028,1662
11.3056,1666
11.3083,1666
11.3111,1672
11.3139,1698
11.3167,1697
11.3194,1683
11.3222,1690
11.3250,1679
11.3278,1678
11.3306,1689
11.3333,1690
11.3361,1686
11.3389,1666
11.3417,1667
11.3444,1653
11.3472,1658
11.3500,1685
11.3528,1697
11.3556,1704
11.3583,1696
11.3611,1692
11.3639,1699
11.3667,1703
11.3694,1694
11.3722,1705
11.3750,1709
11.3778,1705
11.3806,1722
11.3833,1723
11.3861,1723
11.3889,1732
11.3917,1739
11.3944,1741
11.3972,1750
11.4000,1743
11.4028,1743
11.4056,1748
11.4083,1756
11.4111,1762
11.4139,1776
11.4167,1770
11.4194,1782
11.4222,1777
11.4250,1771
11.4278,1777
11.4306,1794
11.4333,1808
11.4361,1809
11.4389,1801
11.4417,1794
11.4444,1786
11.4472,1798
11.4500,1925
11.4528,1906
11.4556,1894
11.4583,1888
11.4611,1875
11.4639,1870
11.4667,1879
11.4694,1884
11.4722,1885
11.4750,1879
11.4778,1869
11.4806,1856
11.4833,1858
11.4861,1850
11.4889,1848
11.4917,1840
11.4944,1811
11.4972,1769
11.5000,1750
11.5028,1739
11.5056,1738
11.5083,1737
11.5111,1738
11.5139,1720
11.5167,1676
11.5194,1662
11.5222,1658
11.5250,1642
11.5278,1651
11.5306,1660
11.5333,1651
11.5361,1641
11.5389,1630
11.5417,1649
11.5444,1656
11.5472,1660
11.5500,1676
11.5528,1665
11.5556,1654
11.5583,1638
11.5611,1636
11.5639,1640
11.5667,1645
11.5694,1651
11.5722,1653
11.5750,1659
11.5778,1641
11.5806,1642
11.5833,1636
11.5861,1641
11.5889,1644
11.5917,1657
11.5944,1641
11.5972,1615
11.6000,1617
11.6028,1621
11.6056,1644
11.6083,1650
11.6111,1662
11.6139,1654
11.6167,1639
11.6194,1632
11.6222,1636
11.6250,1624
11.6278,1636
11.6306,1640
11.6333,1656
11.6361,1642
11.6389,1652
11.6417,1646
11.6444,1647
11.6472,1661
11.6500,1659
11.6528,1668
11.6556,1652
11.6583,1650
11.6611,1653
11.6639,1656
11.6667,1660
11.6694,1677
11.6722,1673
11.6750,1656
11.6778,1633
11.6806,1639
11.6833,1631
11.6861,1637
11.6889,1639
11.6917,1639
11.6944,1638
11.6972,1639
11.7000,1643
11.7028,1640
11.7056,1640
11.7083,1641
11.7111,1637
11.7139,1639
11.7167,1625
11.7194,1627
11.7222,1626
11.7250,1637
11.7278,1650
11.7306,1667
11.7333,1653
11.7361,1644
11.7389,1641
11.7417,1640
11.7444,1648
11.7472,1644
11.7500,1649
11.7528,1660
11.7556,1647
11.7583,1645
11.7611,1648
11.7639,1642
11.7667,1646
11.7694,1648
11.7722,1649
11.7750,1638
11.7778,1631
11.7806,1639
11.7833,1637
11.7861,1644
11.7889,1654
11.7917,1662
11.7944,1658
11.7972,1658
11.8000,1654
11.8028,1655
11.8056,1644
11.8083,1652
11.8111,1670
11.8139,1675
11.8167,1661
11.8194,1666
11.8222,1667
11.8250,1670
11.8278,1669
11.8306,1676
11.8333,1689
11.8361,1697
11.8389,1709
11.8417,1713
11.8444,1722
11.8472,1724
11.8500,1733
11.8528,1727
11.8556,1710
11.8583,1714
11.8611,1729
11.8639,1742
11.8667,1754
11.8694,1778
11.8722,1794
11.8750,1804
11.8778,1800
11.8806,1799
11.8833,1797
11.8861,1782
11.8889,1792
11.8917,1783
11.8944,1785
11.8972,1763
11.9000,1769
11.9028,1752
11.9056,1747
11.9083,1734
11.9111,1742
11.9139,1726
11.9167,1707
11.9194,1693
11.9222,1681
11.9250,1656
11.9278,1666
11.9306,1640
11.9333,1630
11.9361,1628
11.9389,1616
11.9417,1625
11.9444,1626
11.9472,1622
11.9500,1614
11.9528,1624
11.9556,1607
11.9583,1612
11.9611,1605
11.9639,1628
11.9667,1625
11.9694,1632
11.9722,1642
11.9750,1635
11.9778,1638
11.9806,1638
11.9833,1634
11.9861,1634
11.9889,1638
11.9917,1641
11.9944,1662
11.9972,1678
12.0000,1709
12.0028,1736
12.0056,1728
12.0083,1729
12.0111,1712
12.0139,1711
12.0167,1708
12.0194,1756
12.0222,1854
12.0250,1995
12.0278,2082
12.0306,2032
12.0333,1837
12.0361,1627
12.0389,1434
12.0417,1294
12.0444,1217
12.0472,1221
12.0500,1300
12.0528,1392
12.0556,1492
12.0583,1580
12.0611,1627
12.0639,1640
12.0667,1653
12.0694,1657
12.0722,1665
12.0750,1664
12.0778,1673
12.0806,1673
12.0833,1678
12.0861,1675
12.0889,1682
12.0917,1679
12.0944,1680
12.0972,1691
12.1000,1697
12.1028,1698
12.1056,1688
12.1083,1678
12.1111,1696
12.1139,1694
12.1167,1685
12.1194,1691
12.1222,1704
12.1250,1690
12.1278,1698
12.1306,1707
12.1333,1710
12.1361,1718
12.1389,1715
12.1417,1734
12.1444,1731
12.1472,1735
12.1500,1736
12.1528,1732
12.1556,1737
12.1583,1738
12.1611,1734
12.1639,1730
12.1667,1741
12.1694,1744
12.1722,1758
12.1750,1765
12.1778,1771
12.1806,1779
12.1833,1776
12.1861,1773
12.1889,1759
12.1917,1776
12.1944,1773
12.1972,1770
12.2000,1789
12.2028,1789
12.2056,1785
12.2083,1787
12.2111,1807
12.2139,1803
12.2167,1811
12.2194,1806
12.2222,1810
12.2250,1822
12.2278,1841
12.2306,1849
12.2333,1879
12.2361,1885
12.2389,1886
12.2417,1896
12.2444,1904
12.2472,1904
12.2500,1911
12.2528,1905
12.2556,1890
12.2583,1882
12.2611,1882
12.2639,1858
12.2667,1864
12.2694,1859
12.2722,1839
12.2750,1816
12.2778,1811
12.2806,1796
12.2833,1787
12.2861,1779
12.2889,1778
12.2917,1758
12.2944,1723
12.2972,1713
12.3000,1718
12.3028,1699
12.3056,1693
12.3083,1705
12.3111,1698
12.3139,1674
12.3167,1669
12.3194,1669
12.3222,1670
12.3250,1666
12.3278,1666
12.3306,1673
12.3333,1652
12.3361,1653
12.3389,1652
12.3417,1652
12.3444,1654
12.3472,1673
12.3500,1667
12.3528,1653
12.3556,1646
12.3583,1650
12.3611,1643
12.3639,1654
12.3667,1666
12.3694,1665
12.3722,1662
12.3750,1652
12.3778,1646
12.3806,1643
12.3833,1654
12.3861,1669
12.3889,1669
12.3917,1667
12.3944,1662
12.3972,1660
12.4000,1655
12.4028,1662
12.4056,1664
12.4083,1672
12.4111,1661
12.4139,1654
12.4167,1647
12.4194,1648
12.4222,1646
12.4250,1658
12.4278,1658
12.4306,1673
12.4333,1646
12.4361,1633
12.4389,1649
12.4417,1656
12.4444,1664
12.4472,1673
12.4500,1675
12.4528,1661
12.4556,1657
12.4583,1670
12.4611,1653
12.4639,1659
12.4667,1660
12.4694,1657
12.4722,1654
12.4750,1649
12.4778,1644
12.4806,1656
12.4833,1647
12.4861,1651
12.4889,1666
12.4917,1664
12.4944,1647
12.4972,1640
12.5000,1653
12.5028,1649
12.5056,1650
12.5083,1672
12.5111,1667
12.5139,1661
12.5167,1656
12.5194,1653
12.5222,1657
12.5250,1665
12.5278,1674
12.5306,1666
12.5333,1660
12.5361,1645
12.5389,1646
12.5417,1645
12.5444,1641
12.5472,1656
12.5500,1653
12.5528,1646
12.5556,1648
12.5583,1635
12.5611,1653
12.5639,1644
12.5667,1644
12.5694,1658
12.5722,1646
12.5750,1639
12.5778,1637
12.5806,1644
12.5833,1634
12.5861,1624
12.5889,1662
12.5917,1650
12.5944,1634
12.5972,1648
12.6000,1660
12.6028,1649
12.6056,1661
12.6083,1648
12.6111,1649
12.6139,1643
12.6167,1643
12.6194,1640
12.6222,1648
12.6250,1658
12.6278,1669
12.6306,1698
12.6333,1695
12.6361,1701
12.6389,1706
12.6417,1736
12.6444,1736
12.6472,1739
12.6500,1737
12.6528,1729
12.6556,1729
12.6583,1724
12.6611,1727
12.6639,1744
12.6667,1760
12.6694,1792
12.6722,1797
12.6750,1795
12.6778,1788
12.6806,1798
12.6833,1803
12.6861,1795
12.6889,1810
12.6917,1797
12.6944,1784
12.6972,1789
12.7000,1762
12.7028,1753
12.7056,1740
12.7083,1736
12.7111,1735
12.7139,1723
12.7167,1720
12.7194,1712
12.7222,1696
12.7250,1686
12.7278,1680
12.7306,1657
12.7333,1632
12.7361,1616
12.7389,1607
12.7417,1619
12.7444,1622
12.7472,1609
12.7500,1611
12.7528,1614
12.7556,1601
12.7583,1611
12.7611,1618
12.7639,1626
12.7667,1629
12.7694,1633
12.7722,1629
12.7750,1617
12.7778,1609
12.7806,1619
12.7833,1614
12.7861,1622
12.7889,1622
12.7917,1631
12.7944,1656
12.7972,1697
12.8000,1729
12.8028,1745
12.8056,1757
12.8083,1751
12.8111,1732
12.8139,1709
12.8167,1713
12.8194,1754
12.8222,1857
12.8250,1986
12.8278,2061
12.8306,1960
12.8333,1733
12.8361,1512
12.8389,1309
12.8417,1176
12.8444,1134
12.8472,1165
12.8500,1277
12.8528,1380
12.8556,1499
12.8583,1585
12.8611,1626
12.8639,1642
12.8667,1653
12.8694,1657
12.8722,1661
12.8750,1671
12.8778,1671
12.8806,1682
12.8833,1672
12.8861,1677
12.8889,1679
12.8917,1683
12.8944,1684
12.8972,1695
12.9000,1700
12.9028,1692
12.9056,1687
12.9083,1698
12.9111,1699
12.9139,1691
12.9167,1699
12.9194,1715
12.9222,1711
12.9250,1702
12.9278,1709
12.9306,1713
12.9333,1709
12.9361,1708
12.9389,1715
12.9417,1711
12.9444,1719
12.9472,1709
12.9500,1705
12.9528,1713
12.9556,1717
12.9583,1735
12.9611,1734
12.9639,1734
12.9667,1722
12.9694,1733
12.9722,1728
12.9750,1729
12.9778,1739
12.9806,1741
12.9833,1740
12.9861,1739
12.9889,1747
12.9917,1746
12.9944,1746
12.9972,1755
13.0000,1765
13.0028,1764
13.0056,1757
13.0083,1757
13.0111,1757
13.0139,1766
13.0167,1777
13.0194,1792
13.0222,1791
13.0250,1786
13.0278,1800
13.0306,1803
13.0333,1841
13.0361,1859
13.0389,1883
13.0417,1883
13.0444,1896
13.0472,1911
13.0500,1907
13.0528,1876
13.0556,1872
13.0583,1851
13.0611,1862
13.0639,1866
13.0667,1866
13.0694,1859
13.0722,1844
13.0750,1812
13.0778,1819
13.0806,1797
13.0833,1792
13.0861,1783
13.0889,1785
13.0917,1762
13.0944,1733
13.0972,1726
13.1000,1718
13.1028,1709
13.1056,1712
13.1083,1709
13.1111,1703
13.1139,1668
13.1167,1666
13.1194,1674
13.1222,1685
13.1250,1684
13.1278,1690
13.1306,1680
13.1333,1666
13.1361,1674
13.1389,1669
13.1417,1675
13.1444,1679
13.1472,1678
13.1500,1674
13.1528,1669
13.1556,1662
13.1583,1668
13.1611,1682
13.1639,1674
13.1667,1694
13.1694,1677
13.1722,1650
13.1750,1635
13.1778,1657
13.1806,1668
13.1833,1680
13.1861,1682
13.1889,1689
13.1917,1681
13.1944,1662
13.1972,1667
13.2000,1670
13.2028,1681
13.2056,1681
13.2083,1682
13.2111,1665
13.2139,1665
13.2167,1661
13.2194,1668
13.2222,1675
13.2250,1679
13.2278,1685
13.2306,1679
13.2333,1670
13.2361,1671
13.2389,1666
13.2417,1668
13.2444,1665
13.2472,1669
13.2500,1662
13.2528,1656
13.2556,1645
13.2583,1658
13.2611,1662
13.2639,1660
13.2667,1679
13.2694,1694
13.2722,1674
13.2750,1673
13.2778,1689
13.2806,1693
13.2833,1701
13.2861,1709
13.2889,1713
13.2917,1696
13.2944,1673
13.2972,1689
13.3000,1677
13.3028,1683
13.3056,1677
13.3083,1676
13.3111,1672
13.3139,1667
13.3167,1673
13.3194,1663
13.3222,1664
13.3250,1667
13.3278,1653
13.3306,1660
13.3333,1639
13.3361,1663
13.3389,1649
13.3417,1663
13.3444,1666
13.3472,1672
13.3500,1659
13.3528,1643
13.3556,1633
13.3583,1642
13.3611,1647
13.3639,1633
13.3667,1640
13.3694,1651
13.3722,1645
13.3750,1638
13.3778,1643
13.3806,1648
13.3833,1647
13.3861,1653
13.3889,1644
13.3917,1633
13.3944,1613
13.3972,1624
13.4000,1623
13.4028,1639
13.4056,1637
13.4083,1644
13.4111,1652
13.4139,1642
13.4167,1644
13.4194,1667
13.4222,1682
13.4250,1688
13.4278,1694
13.4306,1715
13.4333,1721
13.4361,1725
13.4389,1741
13.4417,1750
13.4444,1769
13.4472,1774
13.4500,1769
13.4528,1754
13.4556,1757
13.4583,1773
13.4611,1770
13.4639,1800
13.4667,1817
13.4694,1843
13.4722,1838
13.4750,1838
13.4778,1845
13.4806,1835
13.4833,1826
13.4861,1826
13.4889,1818
13.4917,1802
13.4944,1784
13.4972,1770
13.5000,1761
13.5028,1754
13.5056,1747
13.5083,1753
13.5111,1741
13.5139,1728
13.5167,1738
13.5194,1728
13.5222,1720
13.5250,1728
13.5278,1706
13.5306,1699
13.5333,1663
13.5361,1670
13.5389,1665
13.5417,1677
13.5444,1668
13.5472,1687
13.5500,1669
13.5528,1676
13.5556,1677
13.5583,1685
13.5611,1699
13.5639,1700
13.5667,1705
13.5694,1693
13.5722,1669
13.5750,1660
13.5778,1648
13.5806,1644
13.5833,1637
13.5861,1636
13.5889,1645
13.5917,1658
13.5944,1683
13.5972,1712
13.6000,1742
13.6028,1771
13.6056,1768
13.6083,1786
13.6111,1755
13.6139,1732
13.6167,1727
13.6194,1757
13.6222,1841
13.6250,1992
13.6278,2098
13.6306,2018
13.6333,1817
13.6361,1576
13.6389,1367
13.6417,1210
13.6444,1151
13.6472,1159
13.6500,1254
13.6528,1364
13.6556,1495
13.6583,1604
13.6611,1661
13.6639,1680
13.6667,1676
13.6694,1675
13.6722,1659
13.6750,1661
13.6778,1671
13.6806,1680
13.6833,1671
13.6861,1670
13.6889,1676
13.6917,1667
13.6944,1683
13.6972,1700
13.7000,1707
13.7028,1720
13.7056,1711
13.7083,1702
13.7111,1715
13.7139,1718
13.7167,1738
13.7194,1751
13.7222,1751
13.7250,1747
13.7278,1750
13.7306,1740
13.7333,1737
13.7361,1731
13.7389,1752
13.7417,1739
13.7444,1745
13.7472,1742
13.7500,1732
13.7528,1728
13.7556,1748
13.7583,1764
13.7611,1758
13.7639,1752
13.7667,1761
13.7694,1759
13.7722,1760
13.7750,1756
13.7778,1762
13.7806,1776
13.7833,1780
13.7861,1769
13.7889,1780
13.7917,1778
13.7944,1777
13.7972,1788
13.8000,1794
13.8028,1805
13.8056,1791
13.8083,1801
13.8111,1793
13.8139,1786
13.8167,1804
13.8194,1803
13.8222,1804
13.8250,1807
13.8278,1799
13.8306,1806
13.8333,1843
13.8361,1876
13.8389,1889
13.8417,1903
13.8444,1920
13.8472,1924
13.8500,1918
13.8528,1897
13.8556,1900
13.8583,1890
13.8611,1883
13.8639,1881
13.8667,1849
13.8694,1809
13.8722,1771
13.8750,1764
13.8778,1754
13.8806,1757
13.8833,1771
13.8861,1764
13.8889,1753
13.8917,1716
13.8944,1698
13.8972,1680
13.9000,1692
13.9028,1685
13.9056,1679
13.9083,1673
13.9111,1655
13.9139,1647
13.9167,1646
13.9194,1646
13.9222,1648
13.9250,1638
13.9278,1642
13.9306,1610
13.9333,1602
13.9361,1610
13.9389,1625
13.9417,1630
13.9444,1642
13.9472,1634
13.9500,1611
13.9528,1580
13.9556,1585
13.9583,1584
13.9611,1576
13.9639,1597
13.9667,1612
13.9694,1607
13.9722,1599
13.9750,1613
13.9778,1640
13.9806,1643
13.9833,1638
13.9861,1639
13.9889,1624
13.9917,1608
13.9944,1637
13.9972,1664
14.0000,1674
14.0028,1667
14.0056,1664
14.0083,1677
14.0111,1645
14.0139,1630
14.0167,1637
14.0194,1635
14.0222,1643
14.0250,1639
14.0278,1660
14.0306,1642
14.0333,1629
14.0361,1643
14.0389,1646
14.0417,1664
14.0444,1664
14.0472,1664
14.0500,1659
14.0528,1653
14.0556,1644
14.0583,1643
14.0611,1642
14.0639,1643
14.0667,1646
14.0694,1625
14.0722,1608
14.0750,1622
14.0778,1635
14.0806,1652
14.0833,1661
14.0861,1666
14.0889,1665
14.0917,1653
14.0944,1643
14.0972,1640
14.1000,1632
14.1028,1635
14.1056,1657
14.1083,1648
14.1111,1646
14.1139,1652
14.1167,1656
14.1194,1655
14.1222,1666
14.1250,1680
14.1278,1679
14.1306,1682
14.1333,1665
14.1361,1672
14.1389,1670
14.1417,1660
14.1444,1652
14.1472,1649
14.1500,1628
14.1528,1629
14.1556,1624
14.1583,1642
14.1611,1627
14.1639,1654
14.1667,1663
14.1694,1662
14.1722,1651
14.1750,1646
14.1778,1642
14.1806,1652
14.1833,1644
14.1861,1656
14.1889,1644
14.1917,1624
14.1944,1638
14.1972,1662
14.2000,1689
14.2028,1689
14.2056,1719
14.2083,1703
14.2111,1705
14.2139,1690
14.2167,1690
14.2194,1683
14.2222,1688
14.2250,1704
14.2278,1687
14.2306,1681
14.2333,1690
14.2361,1701
14.2389,1714
14.2417,1725
14.2444,1733
14.2472,1739
14.2500,1745
14.2528,1758
14.2556,1781
14.2583,1800
14.2611,1797
14.2639,1809
14.2667,1813
14.2694,1815
14.2722,1818
14.2750,1809
14.2778,1800
14.2806,1775
14.2833,1775
14.2861,1755
14.2889,1748
14.2917,1745
14.2944,1749
14.2972,1752
14.3000,1733
14.3028,1737
14.3056,1709
14.3083,1679
14.3111,1647
14.3139,1636
14.3167,1607
14.3194,1605
14.3222,1625
14.3250,1629
14.3278,1641
14.3306,1623
14.3333,1609
14.3361,1610
14.3389,1591
14.3417,1592
14.3444,1603
14.3472,1619
14.3500,1616
14.3528,1620
14.3556,1628
14.3583,1643
14.3611,1649
14.3639,1646
14.3667,1630
14.3694,1619
14.3722,1635
14.3750,1647
14.3778,1699
14.3806,1724
14.3833,1760
14.3861,1779
14.3889,1770
14.3917,1747
14.3944,1740
14.3972,1750
14.4000,1825
14.4028,1950
14.4056,2104
14.4083,2133
14.4111,1983
14.4139,1808
14.4167,1605
14.4194,1413
14.4222,1294
14.4250,1253
14.4278,1260
14.4306,1342
14.4333,1438
14.4361,1542
14.4389,1619
14.4417,1652
14.4444,1662
14.4472,1662
14.4500,1670
14.4528,1673
14.4556,1680
14.4583,1686
14.4611,1673
14.4639,1674
14.4667,1659
14.4694,1645
14.4722,1652
14.4750,1669
14.4778,1679
14.4806,1681
14.4833,1690
14.4861,1704
14.4889,1687
14.4917,1689
14.4944,1693
14.4972,1703
14.5000,1690
14.5028,1692
14.5056,1688
14.5083,1681
14.5111,1686
14.5139,1696
14.5167,1717
14.5194,1710
14.5222,1718
14.5250,1711
14.5278,1698
14.5306,1701
14.5333,1706
14.5361,1743
14.5389,1734
14.5417,1738
14.5444,1726
14.5472,1727
14.5500,1702
14.5528,1701
14.5556,1717
14.5583,1719
14.5611,1724
14.5639,1733
14.5667,1746
14.5694,1744
14.5722,1751
14.5750,1751
14.5778,1771
14.5806,1769
14.5833,1778
14.5861,1776
14.5889,1773
14.5917,1778
14.5944,1800
14.5972,1813
14.6000,1798
14.6028,1821
14.6056,1812
14.6083,1807
14.6111,1834
14.6139,1863
14.6167,1880
14.6194,1900
14.6222,1893
14.6250,1895
14.6278,1892
14.6306,1859
14.6333,1862
14.6361,1859
14.6389,1859
14.6417,1875
14.6444,1869
14.6472,1842
14.6500,1829
14.6528,1803
14.6556,1799
14.6583,1794
14.6611,1783
14.6639,1773
14.6667,1740
14.6694,1721
14.6722,1719
14.6750,1713
14.6778,1715
14.6806,1707
14.6833,1716
14.6861,1691
14.6889,1667
14.6917,1653
14.6944,1644
14.6972,1644
14.7000,1650
14.7028,1666
14.7056,1668
14.7083,1651
14.7111,1641
14.7139,1641
14.7167,1645
14.7194,1646
14.7222,1652
14.7250,1657
14.7278,1650
14.7306,1644
14.7333,1623
14.7361,1630
14.7389,1644
14.7417,1656
14.7444,1660
14.7472,1648
14.7500,1645
14.7528,1638
14.7556,1633
14.7583,1653
14.7611,1641
14.7639,1650
14.7667,1649
14.7694,1630
14.7722,1631
14.7750,1630
14.7778,1652
14.7806,1663
14.7833,1682
14.7861,1675
14.7889,1660
14.7917,1655
14.7944,1642
14.7972,1640
14.8000,1643
14.8028,1651
14.8056,1652
14.8083,1641
14.8111,1641
14.8139,1634
14.8167,1631
14.8194,1638
14.8222,1632
14.8250,1641
14.8278,1623
14.8306,1617
14.8333,1614
14.8361,1626
14.8389,1637
14.8417,1643
14.8444,1651
14.8472,1646
14.8500,1630
14.8528,1621
14.8556,1625
14.8583,1629
14.8611,1638
14.8639,1627
14.8667,1628
14.8694,1617
14.8722,1621
14.8750,1627
14.8778,1625
14.8806,1628
14.8833,1625
14.8861,1622
14.8889,1628
14.8917,1612
14.8944,1622
14.8972,1621
14.9000,1620
14.9028,1643
14.9056,1648
14.9083,1637
14.9111,1627
14.9139,1625
14.9167,1624
14.9194,1625
14.9222,1619
14.9250,1612
14.9278,1592
14.9306,1596
14.9333,1614
14.9361,1612
14.9389,1632
14.9417,1637
14.9444,1635
14.9472,1634
14.9500,1627
14.9528,1626
14.9556,1629
14.9583,1638
14.9611,1641
14.9639,1650
14.9667,1650
14.9694,1653
14.9722,1645
14.9750,1643
14.9778,1661
14.9806,1674
14.9833,1693
14.9861,1685
14.9889,1677
14.9917,1695
14.9944,1702
14.9972,1715
15.0000,1721
15.0028,1721
15.0056,1718
15.0083,1708
15.0111,1697
15.0139,1713
15.0167,1732
15.0194,1740
15.0222,1780
15.0250,1807
15.0278,1793
15.0306,1804
15.0333,1812
15.0361,1809
15.0389,1814
15.0417,1810
15.0444,1813
15.0472,1795
15.0500,1779
15.0528,1759
15.0556,1760
15.0583,1753
15.0611,1740
15.0639,1742
15.0667,1719
15.0694,1710
15.0722,1695
15.0750,1691
15.0778,1679
15.0806,1674
15.0833,1649
15.0861,1637
15.0889,1616
15.0917,1606
15.0944,1616
15.0972,1606
15.1000,1598
15.1028,1613
15.1056,1608
15.1083,1610
15.1111,1608
15.1139,1618
15.1167,1610
15.1194,1610
15.1222,1630
15.1250,1628
15.1278,1622
15.1306,1620
15.1333,1629
15.1361,1623
15.1389,1633
15.1417,1652
15.1444,1674
15.1472,1708
15.1500,1735
15.1528,1754
15.1556,1760
15.1583,1764
15.1611,1757
15.1639,1743
15.1667,1750
15.1694,1781
15.1722,1874
15.1750,2011
15.1778,2080
15.1806,1984
15.1833,1808
15.1861,1570
15.1889,1384
15.1917,1238
15.1944,1193
15.1972,1202
15.2000,1302
15.2028,1423
15.2056,1528
15.2083,1609
15.2111,1657
15.2139,1671
15.2167,1671
15.2194,1671
15.2222,1675
15.2250,1686
15.2278,1691
15.2306,1692
15.2333,1704
15.2361,1698
15.2389,1686
15.2417,1693
15.2444,1723
15.2472,1715
15.2500,1716
15.2528,1705
15.2556,1716
15.2583,1707
15.2611,1714
15.2639,1716
15.2667,1714
15.2694,1713
15.2722,1718
15.2750,1716
15.2778,1715
15.2806,1705
15.2833,1723
15.2861,1733
15.2889,1739
15.2917,1738
15.2944,1732
15.2972,1738
15.3000,1733
15.3028,1730
15.3056,1747
15.3083,1743
15.3111,1739
15.3139,1741
15.3167,1739
15.3194,1745
15.3222,1767
15.3250,1782
15.3278,1785
15.3306,1786
15.3333,1780
15.3361,1783
15.3389,1776
15.3417,1785
15.3444,1796
15.3472,1805
15.3500,1801
15.3528,1793
15.3556,1808
15.3583,1803
15.3611,1814
15.3639,1822
15.3667,1818
15.3694,1825
15.3722,1837
15.3750,1843
15.3778,1844
15.3806,1844
15.3833,1944
15.3861,1919
15.3889,1915
15.3917,1897
15.3944,1912
15.3972,1923
15.4000,1934
15.4028,1936
15.4056,1932
15.4083,1908
15.4111,1887
15.4139,1878
15.4167,1884
15.4194,1877
15.4222,1876
15.4250,1857
15.4278,1829
15.4306,1805
15.4333,1810
15.4361,1794
15.4389,1783
15.4417,1787
15.4444,1781
15.4472,1745
15.4500,1736
15.4528,1714
15.4556,1710
15.4583,1704
15.4611,1712
15.4639,1704
15.4667,1678
15.4694,1677
15.4722,1676
15.4750,1687
15.4778,1706
15.4806,1697
15.4833,1702
15.4861,1678
15.4889,1670
15.4917,1658
15.4944,1662
15.4972,1670
15.5000,1682
15.5028,1698
15.5056,1677
15.5083,1674
15.5111,1676
15.5139,1673
15.5167,1685
15.5194,1693
15.5222,1687
15.5250,1689
15.5278,1678
15.5306,1679
15.5333,1678
15.5361,1682
15.5389,1692
15.5417,1689
15.5444,1701
15.5472,1682
15.5500,1692
15.5528,1691
15.5556,1693
15.5583,1694
15.5611,1702
15.5639,1702
15.5667,1700
15.5694,1680
15.5722,1684
15.5750,1688
15.5778,1686
15.5806,1694
15.5833,1687
15.5861,1670
15.5889,1672
15.5917,1665
15.5944,1680
15.5972,1676
15.6000,1679
15.6028,1687
15.6056,1680
15.6083,1670
15.6111,1667
15.6139,1664
15.6167,1662
15.6194,1662
15.6222,1677
15.6250,1670
15.6278,1661
15.6306,1667
15.6333,1665
15.6361,1667
15.6389,1670
15.6417,1689
15.6444,1669
15.6472,1660
15.6500,1655
15.6528,1652
15.6556,1660
15.6583,1670
15.6611,1675
15.6639,1681
15.6667,1666
15.6694,1661
15.6722,1661
15.6750,1675
15.6778,1682
15.6806,1667
15.6833,1671
15.6861,1666
15.6889,1682
15.6917,1673
15.6944,1686
15.6972,1682
15.7000,1692
15.7028,1687
15.7056,1679
15.7083,1663
15.7111,1667
15.7139,1673
15.7167,1685
15.7194,1677
15.7222,1683
15.7250,1687
15.7278,1673
15.7306,1663
15.7333,1686
15.7361,1671
15.7389,1679
15.7417,1673
15.7444,1680
15.7472,1677
15.7500,1681
15.7528,1678
15.7556,1689
15.7583,1689
15.7611,1686
15.7639,1693
15.7667,1686
15.7694,1690
15.7722,1699
15.7750,1711
15.7778,1715
15.7806,1735
15.7833,1747
15.7861,1751
15.7889,1748
15.7917,1756
15.7944,1758
15.7972,1755
15.8000,1760
15.8028,1758
15.8056,1757
15.8083,1747
15.8111,1770
15.8139,1785
15.8167,1795
15.8194,1817
15.8222,1836
15.8250,1822
15.8278,1810
15.8306,1810
15.8333,1812
15.8361,1808
15.8389,1817
15.8417,1807
15.8444,1797
15.8472,1786
15.8500,1772
15.8528,1763
15.8556,1745
15.8583,1745
15.8611,1754
15.8639,1740
15.8667,1729
15.8694,1706
15.8722,1691
15.8750,1681
15.8778,1671
15.8806,1663
15.8833,1652
15.8861,1627
15.8889,1620
15.8917,1632
15.8944,1617
15.8972,1621
15.9000,1628
15.9028,1633
15.9056,1634
15.9083,1620
15.9111,1614
15.9139,1624
15.9167,1623
15.9194,1635
15.9222,1633
15.9250,1633
15.9278,1619
15.9306,1616
15.9333,1637
15.9361,1644
15.9389,1657
15.9417,1699
15.9444,1728
15.9472,1765
15.9500,1777
15.9528,1765
15.9556,1777
15.9583,1758
15.9611,1755
15.9639,1760
15.9667,1816
15.9694,1905
15.9722,2041
15.9750,2065
15.9778,1893
15.9806,1654
15.9833,1425
15.9861,1231
15.9889,1126
15.9917,1121
15.9944,1187
15.9972,1320
16.0000,1442
16.0028,1566
16.0056,1632
16.0083,1660
16.0111,1676
16.0139,1672
16.0167,1663
16.0194,1671
16.0222,1688
16.0250,1686
16.0278,1685
16.0306,1687
16.0333,1679
16.0361,1682
16.0389,1681
16.0417,1707
16.0444,1714
16.0472,1720
16.0500,1713
16.0528,1709
16.0556,1701
16.0583,1693
16.0611,1707
16.0639,1720
16.0667,1711
16.0694,1710
16.0722,1706
16.0750,1705
16.0778,1710
16.0806,1707
16.0833,1733
16.0861,1727
16.0889,1728
16.0917,1726
16.0944,1714
16.0972,1726
16.1000,1727
16.1028,1753
16.1056,1729
16.1083,1740
16.1111,1745
16.1139,1728
16.1167,1738
16.1194,1739
16.1222,1763
16.1250,1768
16.1278,1769
16.1306,1758
16.1333,1757
16.1361,1772
16.1389,1767
16.1417,1785
16.1444,1788
16.1472,1781
16.1500,1780
16.1528,1780
16.1556,1785
16.1583,1789
16.1611,1797
16.1639,1802
16.1667,1802
16.1694,1801
16.1722,1805
16.1750,1801
16.1778,1928
16.1806,1916
16.1833,1914
16.1861,1908
16.1889,1889
16.1917,1885
16.1944,1905
16.1972,1898
16.2000,1914
16.2028,1897
16.2056,1876
16.2083,1876
16.2111,1868
16.2139,1845
16.2167,1845
16.2194,1839
16.2222,1836
16.2250,1821
16.2278,1792
16.2306,1772
16.2333,1764
16.2361,1762
16.2389,1765
16.2417,1761
16.2444,1735
16.2472,1710
16.2500,1708
16.2528,1710
16.2556,1697
16.2583,1698
16.2611,1684
16.2639,1684
16.2667,1668
16.2694,1657
16.2722,1667
16.2750,1669
16.2778,1676
16.2806,1687
16.2833,1680
16.2861,1661
16.2889,1650
16.2917,1645
16.2944,1639
16.2972,1658
16.3000,1666
16.3028,1670
16.3056,1661
16.3083,1656
16.3111,1660
16.3139,1672
16.3167,1677
16.3194,1690
16.3222,1697
16.3250,1685
16.3278,1671
16.3306,1666
16.3333,1660
16.3361,1657
16.3389,1665
16.3417,1667
16.3444,1659
16.3472,1661
16.3500,1663
16.3528,1667
16.3556,1676
16.3583,1669
16.3611,1684
16.3639,1680
16.3667,1684
16.3694,1664
16.3722,1673
16.3750,1681
16.3778,1682
16.3806,1692
16.3833,1682
16.3861,1680
16.3889,1671
16.3917,1674
16.3944,1664
16.3972,1685
16.4000,1687
16.4028,1683
16.4056,1682
16.4083,1676
16.4111,1690
16.4139,1685
16.4167,1681
16.4194,1693
16.4222,1684
16.4250,1671
16.4278,1663
16.4306,1665
16.4333,1662
16.4361,1665
16.4389,1670
16.4417,1681
16.4444,1674
16.4472,1672
16.4500,1689
16.4528,1688
16.4556,1682
16.4583,1675
16.4611,1676
16.4639,1679
16.4667,1678
16.4694,1682
16.4722,1672
16.4750,1669
16.4778,1678
16.4806,1690
16.4833,1668
16.4861,1675
16.4889,1681
16.4917,1668
16.4944,1670
16.4972,1665
16.5000,1681
16.5028,1669
16.5056,1673
16.5083,1666
16.5111,1671
16.5139,1668
16.5167,1678
16.5194,1685
16.5222,1678
16.5250,1657
16.5278,1656
16.5306,1654
16.5333,1672
16.5361,1651
16.5389,1662
16.5417,1667
16.5444,1675
16.5472,1658
16.5500,1675
16.5528,1678
16.5556,1678
16.5583,1696
16.5611,1706
16.5639,1700
16.5667,1717
16.5694,1721
16.5722,1731
16.5750,1719
16.5778,1722
16.5806,1714
16.5833,1704
16.5861,1698
16.5889,1701
16.5917,1720
16.5944,1741
16.5972,1760
16.6000,1790
16.6028,1794
16.6056,1801
16.6083,1802
16.6111,1810
16.6139,1804
16.6167,1806
16.6194,1809
16.6222,1808
16.6250,1798
16.6278,1788
16.6306,1774
16.6333,1750
16.6361,1748
16.6389,1756
16.6417,1740
16.6444,1732
16.6472,1720
16.6500,1714
16.6528,1701
16.6556,1670
16.6583,1666
16.6611,1653
16.6639,1624
16.6667,1613
16.6694,1611
16.6722,1614
16.6750,1621
16.6778,1622
16.6806,1622
16.6833,1612
16.6861,1613
16.6889,1621
16.6917,1614
16.6944,1620
16.6972,1626
16.7000,1644
16.7028,1647
16.7056,1647
16.7083,1659
16.7111,1653
16.7139,1656
16.7167,1638
16.7194,1650
16.7222,1662
16.7250,1695
16.7278,1723
16.7306,1745
16.7333,1758
16.7361,1757
16.7389,1728
16.7417,1720
16.7444,1689
16.7472,1704
16.7500,1762
16.7528,1877
16.7556,2014
16.7583,2022
16.7611,1887
16.7639,1653
16.7667,1435
16.7694,1264
16.7722,1175
16.7750,1163
16.7778,1232
16.7806,1353
16.7833,1461
16.7861,1559
16.7889,1632
16.7917,1669
16.7944,1672
16.7972,1660
16.8000,1673
16.8028,1678
16.8056,1679
16.8083,1681
16.8111,1682
16.8139,1679
16.8167,1674
16.8194,1681
16.8222,1694
16.8250,1708
16.8278,1729
16.8306,1730
16.8333,1733
16.8361,1723
16.8389,1718
16.8417,1721
16.8444,1726
16.8472,1726
16.8500,1723
16.8528,1719
16.8556,1718
16.8583,1723
16.8611,1720
16.8639,1727
16.8667,1729
16.8694,1727
16.8722,1720
16.8750,1710
16.8778,1710
16.8806,1733
16.8833,1731
16.8861,1737
16.8889,1736
16.8917,1740
16.8944,1750
16.8972,1763
16.9000,1759
16.9028,1768
16.9056,1778
16.9083,1775
16.9111,1778
16.9139,1767
16.9167,1755
16.9194,1761
16.9222,1774
16.9250,1769
16.9278,1767
16.9306,1778
16.9333,1781
16.9361,1780
16.9389,1779
16.9417,1805
16.9444,1803
16.9472,1801
16.9500,1818
16.9528,1812
16.9556,1812
16.9583,1820
16.9611,1892
16.9639,1890
16.9667,1873
16.9694,1880
16.9722,1893
16.9750,1909
16.9778,1923
16.9806,1935
16.9833,1917
16.9861,1887
16.9889,1893
16.9917,1876
16.9944,1870
16.9972,1868
17.0000,1868
17.0028,1834
17.0056,1819
17.0083,1814
17.0111,1797
17.0139,1792
17.0167,1780
17.0194,1765
17.0222,1732
17.0250,1703
17.0278,1700
17.0306,1693
17.0333,1691
17.0361,1698
17.0389,1713
17.0417,1699
17.0444,1684
17.0472,1668
17.0500,1667
17.0528,1661
17.0556,1648
17.0583,1642
17.0611,1639
17.0639,1622
17.0667,1621
17.0694,1631
17.0722,1632
17.0750,1651
17.0778,1661
17.0806,1666
17.0833,1658
17.0861,1653
17.0889,1655
17.0917,1657
17.0944,1664
17.0972,1665
17.1000,1659
17.1028,1653
17.1056,1655
17.1083,1659
17.1111,1682
17.1139,1674
17.1167,1688
17.1194,1687
17.1222,1682
17.1250,1681
17.1278,1678
17.1306,1675
17.1333,1665
17.1361,1668
17.1389,1671
17.1417,1659
17.1444,1660
17.1472,1660
17.1500,1668
17.1528,1675
17.1556,1690
17.1583,1690
17.1611,1681
17.1639,1663
17.1667,1640
17.1694,1632
17.1722,1630
17.1750,1630
17.1778,1643
17.1806,1660
17.1833,1656
17.1861,1657
17.1889,1673
17.1917,1672
17.1944,1678
17.1972,1664
17.2000,1665
17.2028,1656
17.2056,1654
17.2083,1658
17.2111,1666
17.2139,1677
17.2167,1689
17.2194,1686
17.2222,1686
17.2250,1672
17.2278,1669
17.2306,1670
17.2333,1669
17.2361,1663
17.2389,1650
17.2417,1649
17.2444,1640
17.2472,1643
17.2500,1648
17.2528,1648
17.2556,1664
17.2583,1669
17.2611,1663
17.2639,1642
17.2667,1625
17.2694,1625
17.2722,1644
17.2750,1653
17.2778,1671
17.2806,1671
17.2833,1672
17.2861,1652
17.2889,1659
17.2917,1667
17.2944,1654
17.2972,1652
17.3000,1670
17.3028,1672
17.3056,1654
17.3083,1674
17.3111,1667
17.3139,1658
17.3167,1667
17.3194,1680
17.3222,1658
17.3250,1668
17.3278,1671
17.3306,1699
17.3333,1711
17.3361,1717
17.3389,1722
17.3417,1711
17.3444,1704
17.3472,1701
17.3500,1703
17.3528,1689
17.3556,1706
17.3583,1718
17.3611,1743
17.3639,1741
17.3667,1741
17.3694,1751
17.3722,1761
17.3750,1775
17.3778,1784
17.3806,1794
17.3833,1796
17.3861,1804
17.3889,1809
17.3917,1801
17.3944,1814
17.3972,1818
17.4000,1800
17.4028,1797
17.4056,1773
17.4083,1772
17.4111,1752
17.4139,1738
17.4167,1737
17.4194,1731
17.4222,1710
17.4250,1683
17.4278,1669
17.4306,1656
17.4333,1631
17.4361,1625
17.4389,1624
17.4417,1607
17.4444,1588
17.4472,1582
17.4500,1578
17.4528,1579
17.4556,1575
17.4583,1588
17.4611,1586
17.4639,1601
17.4667,1606
17.4694,1607
17.4722,1607
17.4750,1613
17.4778,1634
17.4806,1629
17.4833,1633
17.4861,1628
17.4889,1642
17.4917,1632
17.4944,1620
17.4972,1650
17.5000,1682
17.5028,1703
17.5056,1697
17.5083,1721
17.5111,1705
17.5139,1694
17.5167,1704
17.5194,1731
17.5222,1799
17.5250,1934
17.5278,2062
17.5306,2077
17.5333,1922
17.5361,1723
17.5389,1515
17.5417,1353
17.5444,1259
17.5472,1228
17.5500,1257
17.5528,1360
17.5556,1474
17.5583,1574
17.5611,1622
17.5639,1636
17.5667,1634
17.5694,1639
17.5722,1643
17.5750,1654
17.5778,1660
17.5806,1670
17.5833,1678
17.5861,1680
17.5889,1703
17.5917,1696
17.5944,1702
17.5972,1708
17.6000,1711
17.6028,1707
17.6056,1702
17.6083,1694
17.6111,1686
17.6139,1678
17.6167,1692
17.6194,1702
17.6222,1690
17.6250,1682
17.6278,1686
17.6306,1678
17.6333,1680
17.6361,1682
17.6389,1700
17.6417,1704
17.6444,1701
17.6472,1710
17.6500,1706
17.6528,1727
17.6556,1737
17.6583,1747
17.6611,1745
17.6639,1737
17.6667,1740
17.6694,1732
17.6722,1734
17.6750,1733
17.6778,1731
17.6806,1740
17.6833,1724
17.6861,1719
17.6889,1725
17.6917,1734
17.6944,1730
17.6972,1740
17.7000,1751
17.7028,1742
17.7056,1742
17.7083,1740
17.7111,1749
17.7139,1751
17.7167,1778
17.7194,1797
17.7222,1802
17.7250,1805
17.7278,1817
17.7306,1802
17.7333,1904
17.7361,1894
17.7389,1894
17.7417,1894
17.7444,1873
17.7472,1877
17.7500,1877
17.7528,1873
17.7556,1882
17.7583,1898
17.7611,1870
17.7639,1859
17.7667,1856
17.7694,1843
17.7722,1840
17.7750,1852
17.7778,1847
17.7806,1825
17.7833,1795
17.7861,1770
17.7889,1739
17.7917,1712
17.7944,1713
17.7972,1708
17.8000,1702
17.8028,1689
17.8056,1669
17.8083,1656
17.8111,1651
17.8139,1654
17.8167,1660
17.8194,1654
17.8222,1646
17.8250,1643
17.8278,1662
17.8306,1670
17.8333,1685
17.8361,1694
17.8389,1688
17.8417,1661
17.8444,1631
17.8472,1627
17.8500,1607
17.8528,1614
17.8556,1626
17.8583,1622
17.8611,1621
17.8639,1626
17.8667,1631
17.8694,1650
17.8722,1659
17.8750,1660
17.8778,1664
17.8806,1662
17.8833,1636
17.8861,1654
17.8889,1642
17.8917,1662
17.8944,1666
17.8972,1671
17.9000,1658
17.9028,1645
17.9056,1653
17.9083,1646
17.9111,1661
17.9139,1664
17.9167,1676
17.9194,1678
17.9222,1672
17.9250,1674
17.9278,1672
17.9306,1663
17.9333,1656
17.9361,1658
17.9389,1658
17.9417,1646
17.9444,1633
17.9472,1633
17.9500,1649
17.9528,1652
17.9556,1683
17.9583,1695
17.9611,1692
17.9639,1685
17.9667,1673
17.9694,1683
17.9722,1684
17.9750,1673
17.9778,1669
17.9806,1654
17.9833,1637
17.9861,1642
17.9889,1634
17.9917,1645
17.9944,1646
17.9972,1675
18.0000,1664
18.0028,1660
18.0056,1653
18.0083,1652
18.0111,1650
18.0139,1662
18.0167,1678
18.0194,1674
18.0222,1671
18.0250,1656
18.0278,1658
18.0306,1660
18.0333,1665
18.0361,1685
18.0389,1700
18.0417,1686
18.0444,1687
18.0472,1689
18.0500,1688
18.0528,1702
18.0556,1707
18.0583,1714
18.0611,1699
18.0639,1705
18.0667,1704
18.0694,1706
18.0722,1697
18.0750,1697
18.0778,1706
18.0806,1682
18.0833,1677
18.0861,1691
18.0889,1705
18.0917,1720
18.0944,1745
18.0972,1773
18.1000,1777
18.1028,1779
18.1056,1787
18.1083,1790
18.1111,1782
18.1139,1782
18.1167,1789
18.1194,1776
18.1222,1781
18.1250,1793
18.1278,1801
18.1306,1833
18.1333,1844
18.1361,1872
18.1389,1892
18.1417,1881
18.1444,1883
18.1472,1876
18.1500,1865
18.1528,1854
18.1556,1851
18.1583,1849
18.1611,1829
18.1639,1830
18.1667,1804
18.1694,1800
18.1722,1797
18.1750,1800
18.1778,1797
18.1806,1794
18.1833,1752
18.1861,1743
18.1889,1741
18.1917,1726
18.1944,1726
18.1972,1712
18.2000,1697
18.2028,1697
18.2056,1696
18.2083,1705
18.2111,1708
18.2139,1696
18.2167,1697
18.2194,1693
18.2222,1676
18.2250,1678
18.2278,1684
18.2306,1695
18.2333,1694
18.2361,1697
18.2389,1708
18.2417,1684
18.2444,1692
18.2472,1694
18.2500,1704
18.2528,1711
18.2556,1753
18.2583,1784
18.2611,1803
18.2639,1825
18.2667,1825
18.2694,1825
18.2722,1806
18.2750,1780
18.2778,1796
18.2806,1828
18.2833,1919
18.2861,2059
18.2889,2153
18.2917,2057
18.2944,1867
18.2972,1662
18.3000,1470
18.3028,1324
18.3056,1263
18.3083,1285
18.3111,1371
18.3139,1469
18.3167,1593
18.3194,1657
18.3222,1704
18.3250,1710
18.3278,1713
18.3306,1703
18.3333,1706
18.3361,1713
18.3389,1724
18.3417,1731
18.3444,1712
18.3472,1715
18.3500,1721
18.3528,1722
18.3556,1738
18.3583,1754
18.3611,1754
18.3639,1763
18.3667,1765
18.3694,1767
18.3722,1751
18.3750,1770
18.3778,1770
18.3806,1768
18.3833,1753
18.3861,1759
18.3889,1750
18.3917,1744
18.3944,1756
18.3972,1781
18.4000,1758
18.4028,1759
18.4056,1751
18.4083,1748
18.4111,1746
18.4139,1748
18.4167,1768
18.4194,1780
18.4222,1763
18.4250,1769
18.4278,1775
18.4306,1774
18.4333,1778
18.4361,1789
18.4389,1798
18.4417,1792
18.4444,1791
18.4472,1794
18.4500,1798
18.4528,1797
18.4556,1821
18.4583,1831
18.4611,1842
18.4639,1836
18.4667,1827
18.4694,1824
18.4722,1822
18.4750,1817
18.4778,1831
18.4806,1836
18.4833,1843
18.4861,1849
18.4889,1851
18.4917,1862
18.4944,1959
18.4972,1938
18.5000,1932
18.5028,1910
18.5056,1907
18.5083,1911
18.5111,1926
18.5139,1943
18.5167,1940
18.5194,1935
18.5222,1919
18.5250,1914
18.5278,1892
18.5306,1885
18.5333,1869
18.5361,1861
18.5389,1842
18.5417,1812
18.5444,1791
18.5472,1784
18.5500,1766
18.5528,1767
18.5556,1765
18.5583,1744
18.5611,1724
18.5639,1701
18.5667,1691
18.5694,1700
18.5722,1700
18.5750,1700
18.5778,1699
18.5806,1682
18.5833,1670
18.5861,1661
18.5889,1657
18.5917,1652
18.5944,1682
18.5972,1677
18.6000,1673
18.6028,1664
18.6056,1667
18.6083,1666
18.6111,1681
18.6139,1673
18.6167,1682
18.6194,1676
18.6222,1650
18.6250,1660
18.6278,1653
18.6306,1658
18.6333,1655
18.6361,1676
18.6389,1679
18.6417,1656
18.6444,1656
18.6472,1674
18.6500,1683
18.6528,1681
18.6556,1696
18.6583,1685
18.6611,1679
18.6639,1673
18.6667,1660
18.6694,1667
18.6722,1672
18.6750,1690
18.6778,1701
18.6806,1694
18.6833,1689
18.6861,1682
18.6889,1693
18.6917,1696
18.6944,1693
18.6972,1695
18.7000,1686
18.7028,1675
18.7056,1676
18.7083,1684
18.7111,1674
18.7139,1696
18.7167,1689
18.7194,1676
18.7222,1662
18.7250,1665
18.7278,1664
18.7306,1668
18.7333,1668
18.7361,1679
18.7389,1667
18.7417,1666
18.7444,1665
18.7472,1675
18.7500,1684
18.7528,1689
18.7556,1697
18.7583,1680
18.7611,1679
18.7639,1680
18.7667,1674
18.7694,1678
18.7722,1679
18.7750,1682
18.7778,1680
18.7806,1664
18.7833,1658
18.7861,1652
18.7889,1649
18.7917,1655
18.7944,1654
18.7972,1665
18.8000,1657
18.8028,1648
18.8056,1643
18.8083,1655
18.8111,1678
18.8139,1675
18.8167,1683
18.8194,1667
18.8222,1662
18.8250,1652
18.8278,1653
18.8306,1658
18.8333,1659
18.8361,1664
18.8389,1636
18.8417,1642
18.8444,1647
18.8472,1653
18.8500,1650
18.8528,1659
18.8556,1651
18.8583,1653
18.8611,1642
18.8639,1653
18.8667,1644
18.8694,1668
18.8722,1675
18.8750,1703
18.8778,1712
18.8806,1719
18.8833,1715
18.8861,1725
18.8889,1714
18.8917,1707
18.8944,1724
18.8972,1724
18.9000,1717
18.9028,1720
18.9056,1744
18.9083,1736
18.9111,1758
18.9139,1773
18.9167,1789
18.9194,1784
18.9222,1774
18.9250,1780
18.9278,1784
18.9306,1782
18.9333,1780
18.9361,1790
18.9389,1768
18.9417,1748
18.9444,1730
18.9472,1733
18.9500,1726
18.9528,1715
18.9556,1713
18.9583,1701
18.9611,1689
18.9639,1674
18.9667,1649
18.9694,1626
18.9722,1614
18.9750,1616
18.9778,1608
18.9806,1588
18.9833,1592
18.9861,1594
18.9889,1589
18.9917,1579
18.9944,1590
18.9972,1594
19.0000,1587
19.0028,1591
19.0056,1592
19.0083,1602
19.0111,1595
19.0139,1598
19.0167,1599
19.0194,1592
19.0222,1595
19.0250,1597
19.0278,1607
19.0306,1614
19.0333,1644
19.0361,1673
19.0389,1709
19.0417,1735
19.0444,1746
19.0472,1748
19.0500,1736
19.0528,1716
19.0556,1708
19.0583,1723
19.0611,1780
19.0639,1887
19.0667,2022
19.0694,2015
19.0722,1843
19.0750,1627
19.0778,1384
19.0806,1212
19.0833,1100
19.0861,1088
19.0889,1167
19.0917,1310
19.0944,1426
19.0972,1532
19.1000,1600
19.1028,1620
19.1056,1631
19.1083,1610
19.1111,1624
19.1139,1631
19.1167,1652
19.1194,1663
19.1222,1660
19.1250,1647
19.1278,1640
19.1306,1642
19.1333,1653
19.1361,1670
19.1389,1672
19.1417,1658
19.1444,1666
19.1472,1663
19.1500,1661
19.1528,1673
19.1556,1684
19.1583,1682
19.1611,1680
19.1639,1685
19.1667,1681
19.1694,1675
19.1722,1683
19.1750,1683
19.1778,1687
19.1806,1684
19.1833,1693
19.1861,1698
19.1889,1685
19.1917,1691
19.1944,1699
19.1972,1720
19.2000,1712
19.2028,1707
19.2056,1711
19.2083,1709
19.2111,1717
19.2139,1733
19.2167,1735
19.2194,1742
19.2222,1746
19.2250,1738
19.2278,1750
19.2306,1742
19.2333,1755
19.2361,1774
19.2389,1767
19.2417,1779
19.2444,1790
19.2472,1769
19.2500,1794
19.2528,1796
19.2556,1817
19.2583,1816
19.2611,1822
19.2639,1833
19.2667,1835
19.2694,1833
19.2722,1959
19.2750,1934
19.2778,1923
19.2806,1923
19.2833,1907
19.2861,1907
19.2889,1907
19.2917,1905
19.2944,1911
19.2972,1901
19.3000,1880
19.3028,1874
19.3056,1841
19.3083,1855
19.3111,1834
19.3139,1839
19.3167,1826
19.3194,1794
19.3222,1785
19.3250,1768
19.3278,1762
19.3306,1747
19.3333,1745
19.3361,1731
19.3389,1716
19.3417,1701
19.3444,1681
19.3472,1693
19.3500,1684
19.3528,1684
19.3556,1673
19.3583,1667
19.3611,1647
19.3639,1651
19.3667,1643
19.3694,1655
19.3722,1656
19.3750,1664
19.3778,1644
19.3806,1642
19.3833,1634
19.3861,1633
19.3889,1637
19.3917,1644
19.3944,1649
19.3972,1651
19.4000,1640
19.4028,1638
19.4056,1636
19.4083,1650
19.4111,1648
19.4139,1659
19.4167,1646
19.4194,1647
19.4222,1646
19.4250,1656
19.4278,1668
19.4306,1664
19.4333,1670
19.4361,1665
19.4389,1657
19.4417,1655
19.4444,1652
19.4472,1653
19.4500,1665
19.4528,1673
19.4556,1669
19.4583,1661
19.4611,1660
19.4639,1657
19.4667,1659
19.4694,1658
19.4722,1668
19.4750,1663
19.4778,1664
19.4806,1648
19.4833,1660
19.4861,1656
19.4889,1659
19.4917,1657
19.4944,1673
19.4972,1664
19.5000,1670
19.5028,1659
19.5056,1661
19.5083,1669
19.5111,1680
19.5139,1667
19.5167,1674
19.5194,1660
19.5222,1649
19.5250,1654
19.5278,1651
19.5306,1656
19.5333,1668
19.5361,1663
19.5389,1662
19.5417,1658
19.5444,1657
19.5472,1660
19.5500,1664
19.5528,1667
19.5556,1670
19.5583,1670
19.5611,1659
19.5639,1655
19.5667,1655
19.5694,1659
19.5722,1656
19.5750,1665
19.5778,1661
19.5806,1648
19.5833,1639
19.5861,1638
19.5889,1653
19.5917,1644
19.5944,1661
19.5972,1659
19.6000,1645
19.6028,1648
19.6056,1665
19.6083,1645
19.6111,1650
19.6139,1653
19.6167,1652
19.6194,1635
19.6222,1634
19.6250,1627
19.6278,1627
19.6306,1630
19.6333,1632
19.6361,1637
19.6389,1636
19.6417,1632
19.6444,1641
19.6472,1655
19.6500,1667
19.6528,1694
19.6556,1696
19.6583,1693
19.6611,1694
19.6639,1691
19.6667,1692
19.6694,1681
19.6722,1704
19.6750,1698
19.6778,1702
19.6806,1715
19.6833,1727
19.6861,1752
19.6889,1763
19.6917,1768
19.6944,1774
19.6972,1772
19.7000,1755
19.7028,1754
19.7056,1760
19.7083,1756
19.7111,1750
19.7139,1747
19.7167,1738
19.7194,1714
19.7222,1700
19.7250,1696
19.7278,1691
19.7306,1678
19.7333,1683
19.7361,1672
19.7389,1647
19.7417,1633
19.7444,1625
19.7472,1602
19.7500,1595
19.7528,1585
19.7556,1581
19.7583,1577
19.7611,1586
19.7639,1573
19.7667,1564
19.7694,1579
19.7722,1582
19.7750,1579
19.7778,1580
19.7806,1576
19.7833,1591
19.7861,1596
19.7889,1589
19.7917,1591
19.7944,1605
19.7972,1604
19.8000,1595
19.8028,1600
19.8056,1604
19.8083,1613
19.8111,1653
19.8139,1690
19.8167,1721
19.8194,1726
19.8222,1732
19.8250,1719
19.8278,1733
19.8306,1710
19.8333,1723
19.8361,1755
19.8389,1848
19.8417,1966
19.8444,2016
19.8472,1870
19.8500,1630
19.8528,1389
19.8556,1191
19.8583,1068
19.8611,1047
19.8639,1141
19.8667,1264
19.8694,1417
19.8722,1532
19.8750,1625
19.8778,1653
19.8806,1658
19.8833,1652
19.8861,1644
19.8889,1650
19.8917,1676
19.8944,1679
19.8972,1668
19.9000,1675
19.9028,1672
19.9056,1665
19.9083,1673
19.9111,1682
19.9139,1701
19.9167,1689
19.9194,1684
19.9222,1696
19.9250,1690
19.9278,1686
19.9306,1701
19.9333,1706
19.9361,1712
19.9389,1703
19.9417,1703
19.9444,1703
19.9472,1699
19.9500,1694
19.9528,1714
19.9556,1718
19.9583,1713
19.9611,1710
19.9639,1716
19.9667,1712
19.9694,1716
19.9722,1724
19.9750,1747
19.9778,1732
19.9806,1715
19.9833,1724
19.9861,1719
19.9889,1720
19.9917,1743
19.9944,1750
19.9972,1753
20.0000,1750
20.0028,1747
20.0056,1749
20.0083,1743
20.0111,1755
20.0139,1761
20.0167,1768
20.0194,1778
20.0222,1777
20.0250,1779
20.0278,1791
20.0306,1801
20.0333,1813
20.0361,1819
20.0389,1808
20.0417,1806
20.0444,1805
20.0472,1918
20.0500,1900
20.0528,1909
20.0556,1919
20.0583,1908
20.0611,1902
20.0639,1894
20.0667,1901
20.0694,1907
20.0722,1912
20.0750,1895
20.0778,1878
20.0806,1846
20.0833,1844
20.0861,1834
20.0889,1830
20.0917,1832
20.0944,1825
20.0972,1776
20.1000,1748
20.1028,1737
20.1056,1729
20.1083,1724
20.1111,1723
20.1139,1718
20.1167,1709
20.1194,1688
20.1222,1686
20.1250,1675
20.1278,1682
20.1306,1687
20.1333,1689
20.1361,1679
20.1389,1654
20.1417,1637
20.1444,1623
20.1472,1630
20.1500,1634
20.1528,1645
20.1556,1644
20.1583,1624
20.1611,1618
20.1639,1627
20.1667,1641
20.1694,1648
20.1722,1663
20.1750,1665
20.1778,1657
20.1806,1653
20.1833,1662
20.1861,1664
20.1889,1668
20.1917,1694
20.1944,1687
20.1972,1667
20.2000,1665
20.2028,1660
20.2056,1647
20.2083,1657
20.2111,1644
20.2139,1668
20.2167,1644
20.2194,1640
20.2222,1659
20.2250,1664
20.2278,1672
20.2306,1670
20.2333,1675
20.2361,1669
20.2389,1659
20.2417,1653
20.2444,1647
20.2472,1652
20.2500,1667
20.2528,1698
20.2556,1702
20.2583,1696
20.2611,1681
20.2639,1680
20.2667,1663
20.2694,1652
20.2722,1664
20.2750,1649
20.2778,1630
20.2806,1636
20.2833,1636
20.2861,1641
20.2889,1659
20.2917,1675
20.2944,1678
20.2972,1682
20.3000,1654
20.3028,1669
20.3056,1658
20.3083,1665
20.3111,1666
20.3139,1668
20.3167,1654
20.3194,1635
20.3222,1654
20.3250,1644
20.3278,1662
20.3306,1663
20.3333,1674
20.3361,1663
20.3389,1651
20.3417,1655
20.3444,1643
20.3472,1655
20.3500,1649
20.3528,1662
20.3556,1659
20.3583,1652
20.3611,1662
20.3639,1656
20.3667,1663
20.3694,1655
20.3722,1679
20.3750,1676
20.3778,1673
20.3806,1659
20.3833,1673
20.3861,1676
20.3889,1672
20.3917,1689
20.3944,1665
20.3972,1659
20.4000,1652
20.4028,1664
20.4056,1673
20.4083,1671
20.4111,1680
20.4139,1681
20.4167,1682
20.4194,1686
20.4222,1706
20.4250,1717
20.4278,1732
20.4306,1738
20.4333,1746
20.4361,1746
20.4389,1735
20.4417,1727
20.4444,1727
20.4472,1725
20.4500,1721
20.4528,1747
20.4556,1752
20.4583,1750
20.4611,1777
20.4639,1781
20.4667,1794
20.4694,1798
20.4722,1820
20.4750,1814
20.4778,1817
20.4806,1819
20.4833,1815
20.4861,1814
20.4889,1812
20.4917,1809
20.4944,1794
20.4972,1780
20.5000,1755
20.5028,1745
20.5056,1732
20.5083,1709
20.5111,1694
20.5139,1672
20.5167,1664
20.5194,1640
20.5222,1629
20.5250,1615
20.5278,1613
20.5306,1627
20.5333,1637
20.5361,1629
20.5389,1626
20.5417,1620
20.5444,1621
20.5472,1626
20.5500,1618
20.5528,1610
20.5556,1597
20.5583,1587
20.5611,1599
20.5639,1584
20.5667,1595
20.5694,1592
20.5722,1595
20.5750,1596
20.5778,1607
20.5806,1600
20.5833,1626
20.5861,1657
20.5889,1683
20.5917,1720
20.5944,1721
20.5972,1727
20.6000,1715
20.6028,1687
20.6056,1675
20.6083,1690
20.6111,1747
20.6139,1859
20.6167,1996
20.6194,2000
20.6222,1870
20.6250,1661
20.6278,1475
20.6306,1315
20.6333,1221
20.6361,1199
20.6389,1245
20.6417,1348
20.6444,1463
20.6472,1555
20.6500,1611
20.6528,1651
20.6556,1642
20.6583,1630
20.6611,1639
20.6639,1642
20.6667,1646
20.6694,1667
20.6722,1691
20.6750,1673
20.6778,1660
20.6806,1649
20.6833,1667
20.6861,1656
20.6889,1664
20.6917,1688
20.6944,1690
20.6972,1690
20.7000,1706
20.7028,1696
20.7056,1709
20.7083,1706
20.7111,1692
20.7139,1686
20.7167,1664
20.7194,1664
20.7222,1674
20.7250,1693
20.7278,1701
20.7306,1712
20.7333,1710
20.7361,1706
20.7389,1711
20.7417,1693
20.7444,1702
20.7472,1708
20.7500,1710
20.7528,1713
20.7556,1700
20.7583,1704
20.7611,1697
20.7639,1708
20.7667,1719
20.7694,1726
20.7722,1757
20.7750,1761
20.7778,1758
20.7806,1765
20.7833,1766
20.7861,1764
20.7889,1780
20.7917,1772
20.7944,1778
20.7972,1769
20.8000,1761
20.8028,1761
20.8056,1772
20.8083,1788
20.8111,1785
20.8139,1802
20.8167,1799
20.8194,1800
20.8222,1840
20.8250,1872
20.8278,1890
20.8306,1901
20.8333,1901
20.8361,1902
20.8389,1883
20.8417,1889
20.8444,1887
20.8472,1890
20.8500,1877
20.8528,1871
20.8556,1835
20.8583,1808
20.8611,1801
20.8639,1795
20.8667,1804
20.8694,1800
20.8722,1803
20.8750,1777
20.8778,1768
20.8806,1744
20.8833,1750
20.8861,1751
20.8889,1743
20.8917,1744
20.8944,1709
20.8972,1686
20.9000,1676
20.9028,1675
20.9056,1664
20.9083,1671
20.9111,1675
20.9139,1655
20.9167,1632
20.9194,1620
20.9222,1623
20.9250,1642
20.9278,1662
20.9306,1666
20.9333,1673
20.9361,1652
20.9389,1645
20.9417,1632
20.9444,1644
20.9472,1661
20.9500,1667
20.9528,1679
20.9556,1655
20.9583,1657
20.9611,1651
20.9639,1654
20.9667,1663
20.9694,1670
20.9722,1669
20.9750,1643
20.9778,1635
20.9806,1641
20.9833,1649
20.9861,1658
20.9889,1662
20.9917,1661
20.9944,1648
20.9972,1641
21.0000,1645
21.0028,1648
21.0056,1658
21.0083,1673
21.0111,1680
21.0139,1673
21.0167,1671
21.0194,1666
21.0222,1674
21.0250,1667
21.0278,1671
21.0306,1682
21.0333,1664
21.0361,1638
21.0389,1622
21.0417,1616
21.0444,1616
21.0472,1638
21.0500,1659
21.0528,1659
21.0556,1653
21.0583,1649
21.0611,1657
21.0639,1657
21.0667,1676
21.0694,1655
21.0722,1669
21.0750,1662
21.0778,1658
21.0806,1659
21.0833,1663
21.0861,1667
21.0889,1666
21.0917,1663
21.0944,1664
21.0972,1655
21.1000,1657
21.1028,1651
21.1056,1655
21.1083,1647
21.1111,1653
21.1139,1634
21.1167,1643
21.1194,1632
21.1222,1638
21.1250,1646
21.1278,1656
21.1306,1683
21.1333,1670
21.1361,1658
21.1389,1658
21.1417,1665
21.1444,1671
21.1472,1671
21.1500,1672
21.1528,1664
21.1556,1659
21.1583,1652
21.1611,1642
21.1639,1652
21.1667,1656
21.1694,1657
21.1722,1653
21.1750,1659
21.1778,1669
21.1806,1682
21.1833,1720
21.1861,1715
21.1889,1712
21.1917,1729
21.1944,1720
21.1972,1699
21.2000,1698
21.2028,1708
21.2056,1716
21.2083,1733
21.2111,1763
21.2139,1761
21.2167,1751
21.2194,1764
21.2222,1765
21.2250,1754
21.2278,1765
21.2306,1781
21.2333,1783
21.2361,1774
21.2389,1796
21.2417,1820
21.2444,1821
21.2472,1834
21.2500,1820
21.2528,1804
21.2556,1766
21.2583,1756
21.2611,1737
21.2639,1720
21.2667,1714
21.2694,1696
21.2722,1691
21.2750,1677
21.2778,1656
21.2806,1647
21.2833,1647
21.2861,1630
21.2889,1617
21.2917,1615
21.2944,1608
21.2972,1590
21.3000,1609
21.3028,1609
21.3056,1613
21.3083,1611
21.3111,1601
21.3139,1590
21.3167,1594
21.3194,1611
21.3222,1628
21.3250,1647
21.3278,1643
21.3306,1656
21.3333,1642
21.3361,1630
21.3389,1623
21.3417,1638
21.3444,1665
21.3472,1707
21.3500,1735
21.3528,1750
21.3556,1747
21.3583,1732
21.3611,1710
21.3639,1691
21.3667,1698
21.3694,1745
21.3722,1855
21.3750,1996
21.3778,2084
21.3806,2001
21.3833,1814
21.3861,1598
21.3889,1429
21.3917,1303
21.3944,1242
21.3972,1243
21.4000,1315
21.4028,1404
21.4056,1492
21.4083,1574
21.4111,1613
21.4139,1634
21.4167,1620
21.4194,1627
21.4222,1641
21.4250,1650
21.4278,1656
21.4306,1666
21.4333,1673
21.4361,1677
21.4389,1658
21.4417,1660
21.4444,1682
21.4472,1677
21.4500,1686
21.4528,1693
21.4556,1671
21.4583,1672
21.4611,1679
21.4639,1679
21.4667,1695
21.4694,1709
21.4722,1710
21.4750,1707
21.4778,1706
21.4806,1712
21.4833,1703
21.4861,1719
21.4889,1731
21.4917,1744
21.4944,1730
21.4972,1710
21.5000,1697
21.5028,1697
21.5056,1690
21.5083,1692
21.5111,1708
21.5139,1714
21.5167,1722
21.5194,1730
21.5222,1743
21.5250,1740
21.5278,1749
21.5306,1757
21.5333,1751
21.5361,1741
21.5389,1730
21.5417,1745
21.5444,1746
21.5472,1768
21.5500,1796
21.5528,1793
21.5556,1778
21.5583,1773
21.5611,1787
21.5639,1782
21.5667,1805
21.5694,1821
21.5722,1841
21.5750,1836
21.5778,1831
21.5806,1836
21.5833,1898
21.5861,1901
21.5889,1921
21.5917,1911
21.5944,1874
21.5972,1865
21.6000,1864
21.6028,1862
21.6056,1875
21.6083,1885
21.6111,1885
21.6139,1849
21.6167,1836
21.6194,1818
21.6222,1807
21.6250,1817
21.6278,1821
21.6306,1815
21.6333,1785
21.6361,1761
21.6389,1754
21.6417,1738
21.6444,1727
21.6472,1727
21.6500,1719
21.6528,1695
21.6556,1666
21.6583,1664
21.6611,1656
21.6639,1664
21.6667,1661
21.6694,1656
21.6722,1649
21.6750,1625
21.6778,1626
21.6806,1629
21.6833,1633
21.6861,1639
21.6889,1651
21.6917,1642
21.6944,1616
21.6972,1623
21.7000,1631
21.7028,1623
21.7056,1631
21.7083,1657
21.7111,1644
21.7139,1626
21.7167,1619
21.7194,1615
21.7222,1630
21.7250,1643
21.7278,1650
21.7306,1673
21.7333,1672
21.7361,1661
21.7389,1657
21.7417,1664
21.7444,1660
21.7472,1674
21.7500,1672
21.7528,1678
21.7556,1651
21.7583,1668
21.7611,1663
21.7639,1659
21.7667,1687
21.7694,1682
21.7722,1681
21.7750,1669
21.7778,1665
21.7806,1659
21.7833,1675
21.7861,1677
21.7889,1683
21.7917,1673
21.7944,1644
21.7972,1629
21.8000,1621
21.8028,1626
21.8056,1637
21.8083,1639
21.8111,1650
21.8139,1632
21.8167,1642
21.8194,1633
21.8222,1636
21.8250,1649
21.8278,1650
21.8306,1659
21.8333,1661
21.8361,1642
21.8389,1641
21.8417,1644
21.8444,1640
21.8472,1656
21.8500,1657
21.8528,1650
21.8556,1648
21.8583,1650
21.8611,1645
21.8639,1653
21.8667,1666
21.8694,1662
21.8722,1650
21.8750,1627
21.8778,1626
21.8806,1623
21.8833,1626
21.8861,1626
21.8889,1627
21.8917,1641
21.8944,1630
21.8972,1625
21.9000,1642
21.9028,1645
21.9056,1645
21.9083,1654
21.9111,1661
21.9139,1643
21.9167,1638
21.9194,1643
21.9222,1640
21.9250,1656
21.9278,1661
21.9306,1651
21.9333,1646
21.9361,1632
21.9389,1643
21.9417,1633
21.9444,1654
21.9472,1667
21.9500,1686
21.9528,1693
21.9556,1694
21.9583,1707
21.9611,1709
21.9639,1699
21.9667,1719
21.9694,1724
21.9722,1721
21.9750,1712
21.9778,1722
21.9806,1739
21.9833,1748
21.9861,1767
21.9889,1789
21.9917,1795
21.9944,1791
21.9972,1781
22.0000,1770
22.0028,1770
22.0056,1774
22.0083,1772
22.0111,1767
22.0139,1770
22.0167,1759
22.0194,1745
22.0222,1741
22.0250,1737
22.0278,1729
22.0306,1726
22.0333,1718
22.0361,1681
22.0389,1678
22.0417,1657
22.0444,1636
22.0472,1622
22.0500,1616
22.0528,1589
22.0556,1605
22.0583,1608
22.0611,1599
22.0639,1597
22.0667,1602
22.0694,1602
22.0722,1594
22.0750,1590
22.0778,1593
22.0806,1606
22.0833,1609
22.0861,1606
22.0889,1613
22.0917,1612
22.0944,1602
22.0972,1604
22.1000,1610
22.1028,1616
22.1056,1644
22.1083,1666
22.1111,1691
22.1139,1722
22.1167,1743
22.1194,1753
22.1222,1750
22.1250,1739
22.1278,1728
22.1306,1739
22.1333,1767
22.1361,1845
22.1389,1973
22.1417,2064
22.1444,1980
22.1472,1782
22.1500,1568
22.1528,1370
22.1556,1214
22.1583,1164
22.1611,1183
22.1639,1281
22.1667,1395
22.1694,1517
22.1722,1611
22.1750,1641
22.1778,1652
22.1806,1659
22.1833,1655
22.1861,1647
22.1889,1673
22.1917,1662
22.1944,1673
22.1972,1668
22.2000,1669
22.2028,1666
22.2056,1670
22.2083,1683
22.2111,1687
22.2139,1681
22.2167,1687
22.2194,1697
22.2222,1686
22.2250,1677
22.2278,1698
22.2306,1702
22.2333,1691
22.2361,1697
22.2389,1691
22.2417,1688
22.2444,1701
22.2472,1710
22.2500,1712
22.2528,1708
22.2556,1706
22.2583,1698
22.2611,1699
22.2639,1686
22.2667,1702
22.2694,1710
22.2722,1716
22.2750,1711
22.2778,1721
22.2806,1725
22.2833,1727
22.2861,1732
22.2889,1733
22.2917,1740
22.2944,1745
22.2972,1745
22.3000,1754
22.3028,1756
22.3056,1747
22.3083,1756
22.3111,1770
22.3139,1769
22.3167,1760
22.3194,1769
22.3222,1766
22.3250,1759
22.3278,1774
22.3306,1780
22.3333,1787
22.3361,1785
22.3389,1807
22.3417,1803
22.3444,1813
22.3472,1910
22.3500,1881
22.3528,1883
22.3556,1875
22.3583,1870
22.3611,1866
22.3639,1872
22.3667,1876
22.3694,1877
22.3722,1871
22.3750,1843
22.3778,1843
22.3806,1828
22.3833,1835
22.3861,1818
22.3889,1817
22.3917,1801
22.3944,1764
22.3972,1762
22.4000,1756
22.4028,1743
22.4056,1730
22.4083,1741
22.4111,1704
22.4139,1684
22.4167,1674
22.4194,1664
22.4222,1659
22.4250,1680
22.4278,1667
22.4306,1669
22.4333,1647
22.4361,1638
22.4389,1654
22.4417,1646
22.4444,1647
22.4472,1661
22.4500,1661
22.4528,1646
22.4556,1644
22.4583,1646
22.4611,1637
22.4639,1637
22.4667,1647
22.4694,1646
22.4722,1632
22.4750,1630
22.4778,1635
22.4806,1640
22.4833,1641
22.4861,1650
22.4889,1665
22.4917,1655
22.4944,1645
22.4972,1642
22.5000,1643
22.5028,1641
22.5056,1662
22.5083,1663
22.5111,1660
22.5139,1656
22.5167,1644
22.5194,1653
22.5222,1651
22.5250,1656
22.5278,1662
22.5306,1660
22.5333,1657
22.5361,1655
22.5389,1661
22.5417,1656
22.5444,1666
22.5472,1662
22.5500,1677
22.5528,1656
22.5556,1652
22.5583,1662
22.5611,1661
22.5639,1662
22.5667,1666
22.5694,1667
22.5722,1661
22.5750,1666
22.5778,1664
22.5806,1659
22.5833,1662
22.5861,1672
22.5889,1661
22.5917,1663
22.5944,1658
22.5972,1661
22.6000,1657
22.6028,1663
22.6056,1665
22.6083,1674
22.6111,1667
22.6139,1668
22.6167,1657
22.6194,1663
22.6222,1659
22.6250,1659
22.6278,1668
22.6306,1671
22.6333,1655
22.6361,1658
22.6389,1671
22.6417,1668
22.6444,1682
22.6472,1688
22.6500,1679
22.6528,1660
22.6556,1667
22.6583,1665
22.6611,1661
22.6639,1666
22.6667,1667
22.6694,1671
22.6722,1668
22.6750,1651
22.6778,1659
22.6806,1674
22.6833,1671
22.6861,1684
22.6889,1683
22.6917,1678
22.6944,1667
22.6972,1669
22.7000,1673
22.7028,1673
22.7056,1675
22.7083,1682
22.7111,1678
22.7139,1667
22.7167,1695
22.7194,1707
22.7222,1718
22.7250,1737
22.7278,1741
22.7306,1758
22.7333,1753
22.7361,1744
22.7389,1742
22.7417,1725
22.7444,1736
22.7472,1733
22.7500,1739
22.7528,1753
22.7556,1784
22.7583,1780
22.7611,1798
22.7639,1812
22.7667,1817
22.7694,1825
22.7722,1807
22.7750,1808
22.7778,1805
22.7806,1791
22.7833,1795
22.7861,1793
22.7889,1791
22.7917,1760
22.7944,1747
22.7972,1738
22.8000,1738
22.8028,1719
22.8056,1711
22.8083,1703
22.8111,1687
22.8139,1673
22.8167,1654
22.8194,1641
22.8222,1632
22.8250,1631
22.8278,1634
22.8306,1626
22.8333,1618
22.8361,1608
22.8389,1624
22.8417,1622
22.8444,1625
22.8472,1635
22.8500,1639
22.8528,1634
22.8556,1629
22.8583,1625
22.8611,1638
22.8639,1649
22.8667,1649
22.8694,1646
22.8722,1651
22.8750,1622
22.8778,1669
22.8806,1680
22.8833,1709
22.8861,1754
22.8889,1787
22.8917,1771
22.8944,1773
22.8972,1757
22.9000,1760
22.9028,1752
22.9056,1784
22.9083,1869
22.9111,1992
22.9139,2076
22.9167,1962
22.9194,1733
22.9222,1471
22.9250,1256
22.9278,1113
22.9306,1077
22.9333,1109
22.9361,1247
22.9389,1391
22.9417,1513
22.9444,1622
22.9472,1684
22.9500,1688
22.9528,1681
22.9556,1681
22.9583,1680
22.9611,1701
22.9639,1710
22.9667,1731
22.9694,1736
22.9722,1728
22.9750,1713
22.9778,1716
22.9806,1714
22.9833,1724
22.9861,1734
22.9889,1738
22.9917,1728
22.9944,1722
22.9972,1731
23.0000,1733
23.0028,1737
23.0056,1746
23.0083,1752
23.0111,1748
23.0139,1734
23.0167,1745
23.0194,1753
23.0222,1773
23.0250,1770
23.0278,1775
23.0306,1771
23.0333,1764
23.0361,1763
23.0389,1769
23.0417,1776
23.0444,1777
23.0472,1784
23.0500,1776
23.0528,1763
23.0556,1771
23.0583,1777
23.0611,1781
23.0639,1786
23.0667,1800
23.0694,1792
23.0722,1785
23.0750,1793
23.0778,1798
23.0806,1803
23.0833,1825
23.0861,1821
23.0889,1834
23.0917,1826
23.0944,1816
23.0972,1820
23.1000,1839
23.1028,1852
23.1056,1857
23.1083,1858
23.1111,1860
23.1139,1854
23.1167,1866
23.1194,1905
23.1222,1911
23.1250,1938
23.1278,1933
23.1306,1922
23.1333,1912
23.1361,1905
23.1389,1910
23.1417,1915
23.1444,1917
23.1472,1911
23.1500,1912
23.1528,1864
23.1556,1853
23.1583,1845
23.1611,1834
23.1639,1835
23.1667,1840
23.1694,1805
23.1722,1773
23.1750,1762
23.1778,1750
23.1806,1735
23.1833,1753
23.1861,1754
23.1889,1734
23.1917,1717
23.1944,1688
23.1972,1681
23.2000,1690
23.2028,1692
23.2056,1692
23.2083,1694
23.2111,1688
23.2139,1671
23.2167,1658
23.2194,1676
23.2222,1673
23.2250,1690
23.2278,1692
23.2306,1675
23.2333,1659
23.2361,1660
23.2389,1656
23.2417,1652
23.2444,1675
23.2472,1674
23.2500,1662
23.2528,1653
23.2556,1657
23.2583,1667
23.2611,1670
23.2639,1674
23.2667,1689
23.2694,1685
23.2722,1679
23.2750,1683
23.2778,1682
23.2806,1680
23.2833,1697
23.2861,1706
23.2889,1689
23.2917,1684
23.2944,1669
23.2972,1671
23.3000,1673
23.3028,1682
23.3056,1695
23.3083,1698
23.3111,1693
23.3139,1669
23.3167,1685
23.3194,1687
23.3222,1698
23.3250,1688
23.3278,1695
23.3306,1677
23.3333,1677
23.3361,1679
23.3389,1679
23.3417,1694
23.3444,1694
23.3472,1696
23.3500,1684
23.3528,1676
23.3556,1670
23.3583,1680
23.3611,1685
23.3639,1696
23.3667,1691
23.3694,1691
23.3722,1663
23.3750,1668
23.3778,1670
23.3806,1678
23.3833,1687
23.3861,1686
23.3889,1677
23.3917,1669
23.3944,1674
23.3972,1672
23.4000,1683
23.4028,1681
23.4056,1688
23.4083,1694
23.4111,1676
23.4139,1674
23.4167,1672
23.4194,1667
23.4222,1674
23.4250,1686
23.4278,1681
23.4306,1664
23.4333,1656
23.4361,1663
23.4389,1673
23.4417,1680
23.4444,1686
23.4472,1682
23.4500,1698
23.4528,1673
23.4556,1671
23.4583,1663
23.4611,1666
23.4639,1669
23.4667,1677
23.4694,1671
23.4722,1650
23.4750,1666
23.4778,1668
23.4806,1666
23.4833,1679
23.4861,1681
23.4889,1681
23.4917,1684
23.4944,1700
23.4972,1717
23.5000,1727
23.5028,1755
23.5056,1754
23.5083,1754
23.5111,1749
23.5139,1737
23.5167,1753
23.5194,1745
23.5222,1741
23.5250,1757
23.5278,1760
23.5306,1764
23.5333,1777
23.5361,1798
23.5389,1801
23.5417,1804
23.5444,1809
23.5472,1816
23.5500,1781
23.5528,1787
23.5556,1771
23.5583,1782
23.5611,1784
23.5639,1781
23.5667,1768
23.5694,1755
23.5722,1748
23.5750,1734
23.5778,1740
23.5806,1735
23.5833,1721
23.5861,1708
23.5889,1702
23.5917,1675
23.5944,1643
23.5972,1639
23.6000,1630
23.6028,1618
23.6056,1624
23.6083,1620
23.6111,1616
23.6139,1601
23.6167,1609
23.6194,1617
23.6222,1605
23.6250,1613
23.6278,1609
23.6306,1619
23.6333,1614
23.6361,1617
23.6389,1612
23.6417,1622
23.6444,1633
23.6472,1628
23.6500,1623
23.6528,1614
23.6556,1632
23.6583,1648
23.6611,1674
23.6639,1724
23.6667,1751
23.6694,1767
23.6722,1764
23.6750,1733
23.6778,1717
23.6806,1692
23.6833,1700
23.6861,1752
23.6889,1844
23.6917,1962
23.6944,1966
23.6972,1793
23.7000,1558
23.7028,1323
23.7056,1167
23.7083,1074
23.7111,1075
23.7139,1166
23.7167,1305
23.7194,1451
23.7222,1567
23.7250,1651
23.7278,1672
23.7306,1671
23.7333,1652
23.7361,1653
23.7389,1661
23.7417,1667
23.7444,1671
23.7472,1686
23.7500,1683
23.7528,1683
23.7556,1690
23.7583,1700
23.7611,1719
23.7639,1726
23.7667,1734
23.7694,1722
23.7722,1710
23.7750,1722
23.7778,1721
23.7806,1715
23.7833,1725
23.7861,1713
23.7889,1693
23.7917,1694
23.7944,1683
23.7972,1698
23.8000,1706
23.8028,1715
23.8056,1739
23.8083,1750
23.8111,1737
23.8139,1730
23.8167,1727
23.8194,1722
23.8222,1736
23.8250,1736
23.8278,1740
23.8306,1738
23.8333,1717
23.8361,1724
23.8389,1732
23.8417,1743
23.8444,1747
23.8472,1757
23.8500,1741
23.8528,1733
23.8556,1735
23.8583,1728
23.8611,1741
23.8639,1759
23.8667,1769
23.8694,1775
23.8722,1768
23.8750,1778
23.8778,1793
23.8806,1805
23.8833,1809
23.8861,1822
23.8889,1823
23.8917,1816
23.8944,1822
23.8972,1864
23.9000,1892
23.9028,1913
23.9056,1930
23.9083,1932
23.9111,1913
23.9139,1884
23.9167,1886
23.9194,1881
23.9222,1896
23.9250,1898
23.9278,1883
23.9306,1862
23.9333,1827
23.9361,1817
23.9389,1805
23.9417,1796
23.9444,1795
23.9472,1768
23.9500,1749
23.9528,1723
23.9556,1712
23.9583,1717
23.9611,1702
23.9639,1716
23.9667,1705
23.9694,1678
23.9722,1664
23.9750,1653
23.9778,1655
23.9806,1649
23.9833,1645
23.9861,1656
23.9889,1622
23.9917,1609
23.9944,1613
23.9972,1609
24.0000,1616
24.0028,1643
24.0056,1651
24.0083,1645
24.0111,1630
24.0139,1613
24.0167,1614
24.0194,1642
24.0222,1641
24.0250,1663
24.0278,1651
24.0306,1626
24.0333,1622
24.0361,1612
24.0389,1623
24.0417,1626
24.0444,1637
24.0472,1629
24.0500,1632
24.0528,1612
24.0556,1627
24.0583,1631
24.0611,1643
24.0639,1648
24.0667,1649
24.0694,1641
24.0722,1640
24.0750,1644
24.0778,1651
24.0806,1647
24.0833,1650
24.0861,1654
24.0889,1661
24.0917,1651
24.0944,1642
24.0972,1652
24.1000,1654
24.1028,1661
24.1056,1656
24.1083,1646
24.1111,1617
24.1139,1614
24.1167,1605
24.1194,1612
24.1222,1623
24.1250,1620
24.1278,1640
24.1306,1629
24.1333,1631
24.1361,1639
24.1389,1650
24.1417,1650
24.1444,1662
24.1472,1645
24.1500,1644
24.1528,1641
24.1556,1642
24.1583,1650
24.1611,1667
24.1639,1671
24.1667,1675
24.1694,1648
24.1722,1636
24.1750,1628
24.1778,1641
24.1806,1640
24.1833,1657
24.1861,1657
24.1889,1650
24.1917,1630
24.1944,1630
24.1972,1619
24.2000,1608
24.2028,1630
24.2056,1628
24.2083,1618
24.2111,1616
24.2139,1625
24.2167,1634
24.2194,1655
24.2222,1666
24.2250,1678
24.2278,1684
24.2306,1680
24.2333,1663
24.2361,1654
24.2389,1652
24.2417,1641
24.2444,1640
24.2472,1635
24.2500,1627
24.2528,1629
24.2556,1639
24.2583,1664
24.2611,1686
24.2639,1713
24.2667,1734
24.2694,1743
24.2722,1739
24.2750,1738
24.2778,1732
24.2806,1699
24.2833,1702
24.2861,1692
24.2889,1705
24.2917,1714
24.2944,1742
24.2972,1769
24.3000,1793
24.3028,1811
24.3056,1826
24.3083,1828
24.3111,1801
24.3139,1793
24.3167,1786
24.3194,1789
24.3222,1802
24.3250,1811
24.3278,1794
24.3306,1762
24.3333,1766
24.3361,1743
24.3389,1750
24.3417,1759
24.3444,1775
24.3472,1752
24.3500,1745
24.3528,1733
24.3556,1728
24.3583,1699
24.3611,1678
24.3639,1656
24.3667,1629
24.3694,1628
24.3722,1605
24.3750,1611
24.3778,1618
24.3806,1610
24.3833,1620
24.3861,1619
24.3889,1631
24.3917,1624
24.3944,1637
24.3972,1652
24.4000,1645
24.4028,1652
24.4056,1660
24.4083,1651
24.4111,1644
24.4139,1639
24.4167,1645
24.4194,1655
24.4222,1679
24.4250,1715
24.4278,1737
24.4306,1772
24.4333,1780
24.4361,1761
24.4389,1737
24.4417,1720
24.4444,1714
24.4472,1732
24.4500,1803
24.4528,1936
24.4556,2057
24.4583,2004
24.4611,1843
24.4639,1650
24.4667,1499
24.4694,1353
24.4722,1285
24.4750,1272
24.4778,1328
24.4806,1413
24.4833,1531
24.4861,1612
24.4889,1665
24.4917,1677
24.4944,1699
24.4972,1693
24.5000,1684
24.5028,1688
24.5056,1697
24.5083,1698
24.5111,1697
24.5139,1675
24.5167,1682
24.5194,1690
24.5222,1687
24.5250,1714
24.5278,1707
24.5306,1708
24.5333,1704
24.5361,1717
24.5389,1722
24.5417,1715
24.5444,1714
24.5472,1720
24.5500,1703
24.5528,1705
24.5556,1707
24.5583,1707
24.5611,1722
24.5639,1737
24.5667,1733
24.5694,1754
24.5722,1744
24.5750,1746
24.5778,1742
24.5806,1742
24.5833,1756
24.5861,1756
24.5889,1751
24.5917,1739
24.5944,1749
24.5972,1753
24.6000,1767
24.6028,1764
24.6056,1759
24.6083,1760
24.6111,1736
24.6139,1733
24.6167,1723
24.6194,1725
24.6222,1740
24.6250,1773
24.6278,1767
24.6306,1766
24.6333,1777
24.6361,1791
24.6389,1802
24.6417,1812
24.6444,1835
24.6472,1845
24.6500,1830
24.6528,1822
24.6556,1809
24.6583,1806
24.6611,1930
24.6639,1912
24.6667,1910
24.6694,1905
24.6722,1904
24.6750,1904
24.6778,1903
24.6806,1897
24.6833,1887
24.6861,1888
24.6889,1866
24.6917,1852
24.6944,1839
24.6972,1810
24.7000,1799
24.7028,1798
24.7056,1787
24.7083,1770
24.7111,1769
24.7139,1769
24.7167,1754
24.7194,1744
24.7222,1746
24.7250,1727
24.7278,1710
24.7306,1692
24.7333,1687
24.7361,1673
24.7389,1681
24.7417,1679
24.7444,1675
24.7472,1657
24.7500,1644
24.7528,1630
24.7556,1634
24.7583,1630
24.7611,1640
24.7639,1649
24.7667,1637
24.7694,1639
24.7722,1647
24.7750,1650
24.7778,1651
24.7806,1649
24.7833,1655
24.7861,1652
24.7889,1635
24.7917,1633
24.7944,1644
24.7972,1650
24.8000,1665
24.8028,1674
24.8056,1680
24.8083,1670
24.8111,1649
24.8139,1648
24.8167,1639
24.8194,1652
24.8222,1651
24.8250,1656
24.8278,1653
24.8306,1635
24.8333,1644
24.8361,1646
24.8389,1656
24.8417,1671
24.8444,1671
24.8472,1665
24.8500,1662
24.8528,1653
24.8556,1645
24.8583,1642
24.8611,1643
24.8639,1651
24.8667,1648
24.8694,1631
24.8722,1636
24.8750,1626
24.8778,1639
24.8806,1651
24.8833,1674
24.8861,1679
24.8889,1662
24.8917,1663
24.8944,1666
24.8972,1658
24.9000,1655
24.9028,1644
24.9056,1638
24.9083,1609
24.9111,1614
24.9139,1614
24.9167,1609
24.9194,1633
24.9222,1628
24.9250,1650
24.9278,1638
24.9306,1631
24.9333,1644
24.9361,1645
24.9389,1666
24.9417,1670
24.9444,1670
24.9472,1657
24.9500,1645
24.9528,1634
24.9556,1638
24.9583,1623
24.9611,1623
24.9639,1639
24.9667,1629
24.9694,1613
24.9722,1630
24.9750,1636
24.9778,1640
24.9806,1647
24.9833,1659
24.9861,1665
24.9889,1656
24.9917,1648
24.9944,1668
24.9972,1674
25.0000,1664
25.0028,1679
25.0056,1668
25.0083,1654
25.0111,1650
25.0139,1642
25.0167,1658
25.0194,1652
25.0222,1671
25.0250,1693
25.0278,1700
25.0306,1715
25.0333,1718
25.0361,1725
25.0389,1725
25.0417,1721
25.0444,1701
25.0472,1701
25.0500,1690
25.0528,1707
25.0556,1714
25.0583,1712
25.0611,1734
25.0639,1753
25.0667,1779
25.0694,1780
25.0722,1797
25.0750,1818
25.0778,1797
25.0806,1796
25.0833,1804
25.0861,1801
25.0889,1793
25.0917,1783
25.0944,1770
25.0972,1767
25.1000,1753
25.1028,1744
25.1056,1746
25.1083,1733
25.1111,1719
25.1139,1713
25.1167,1686
25.1194,1674
25.1222,1651
25.1250,1646
25.1278,1626
25.1306,1621
25.1333,1622
25.1361,1622
25.1389,1619
25.1417,1605
25.1444,1614
25.1472,1612
25.1500,1605
25.1528,1620
25.1556,1600
25.1583,1604
25.1611,1603
25.1639,1611
25.1667,1616
25.1694,1619
25.1722,1607
25.1750,1624
25.1778,1630
25.1806,1628
25.1833,1643
25.1861,1637
25.1889,1657
25.1917,1694
25.1944,1729
25.1972,1753
25.2000,1751
25.2028,1741
25.2056,1732
25.2083,1712
25.2111,1733
25.2139,1777
25.2167,1892
25.2194,2025
25.2222,2070
25.2250,1932
25.2278,1709
25.2306,1511
25.2333,1333
25.2361,1237
25.2389,1196
25.2417,1229
25.2444,1330
25.2472,1443
25.2500,1530
25.2528,1603
25.2556,1636
25.2583,1644
25.2611,1647
25.2639,1639
25.2667,1664
25.2694,1650
25.2722,1666
25.2750,1657
25.2778,1659
25.2806,1643
25.2833,1661
25.2861,1675
25.2889,1674
25.2917,1696
25.2944,1699
25.2972,1682
25.3000,1672
25.3028,1684
25.3056,1695
25.3083,1685
25.3111,1695
25.3139,1701
25.3167,1674
25.3194,1675
25.3222,1693
25.3250,1692
25.3278,1697
25.3306,1704
25.3333,1716
25.3361,1720
25.3389,1726
25.3417,1722
25.3444,1723
25.3472,1725
25.3500,1730
25.3528,1726
25.3556,1741
25.3583,1732
25.3611,1727
25.3639,1723
25.3667,1728
25.3694,1732
25.3722,1738
25.3750,1740
25.3778,1750
25.3806,1740
25.3833,1759
25.3861,1760
25.3889,1753
25.3917,1759
25.3944,1768
25.3972,1752
25.4000,1764
25.4028,1771
25.4056,1782
25.4083,1786
25.4111,1791
25.4139,1807
25.4167,1815
25.4194,1818
25.4222,1828
25.4250,1872
25.4278,1850
25.4306,1868
25.4333,1875
25.4361,1885
25.4389,1877
25.4417,1899
25.4444,1885
25.4472,1868
25.4500,1845
25.4528,1847
25.4556,1829
25.4583,1841
25.4611,1832
25.4639,1810
25.4667,1792
25.4694,1780
25.4722,1768
25.4750,1750
25.4778,1749
25.4806,1758
25.4833,1746
25.4861,1716
25.4889,1703
25.4917,1696
25.4944,1686
25.4972,1692
25.5000,1674
25.5028,1682
25.5056,1652
25.5083,1625
25.5111,1628
25.5139,1617
25.5167,1636
25.5194,1619
25.5222,1629
25.5250,1615
25.5278,1606
25.5306,1615
25.5333,1623
25.5361,1625
25.5389,1634
25.5417,1637
25.5444,1632
25.5472,1632
25.5500,1629
25.5528,1636
25.5556,1653
25.5583,1638
25.5611,1645
25.5639,1647
25.5667,1632
25.5694,1631
25.5722,1647
25.5750,1647
25.5778,1650
25.5806,1651
25.5833,1663
25.5861,1648
25.5889,1633
25.5917,1649
25.5944,1645
25.5972,1645
25.6000,1651
25.6028,1675
25.6056,1660
25.6083,1649
25.6111,1646
25.6139,1648
25.6167,1655
25.6194,1650
25.6222,1655
25.6250,1654
25.6278,1646
25.6306,1629
25.6333,1635
25.6361,1643
25.6389,1648
25.6417,1635
25.6444,1654
25.6472,1644
25.6500,1634
25.6528,1642
25.6556,1645
25.6583,1656
25.6611,1642
25.6639,1658
25.6667,1643
25.6694,1628
25.6722,1634
25.6750,1621
25.6778,1633
25.6806,1630
25.6833,1651
25.6861,1640
25.6889,1639
25.6917,1647
25.6944,1640
25.6972,1644
25.7000,1650
25.7028,1643
25.7056,1641
25.7083,1628
25.7111,1633
25.7139,1624
25.7167,1627
25.7194,1633
25.7222,1636
25.7250,1635
25.7278,1631
25.7306,1632
25.7333,1636
25.7361,1629
25.7389,1639
25.7417,1633
25.7444,1637
25.7472,1627
25.7500,1631
25.7528,1632
25.7556,1633
25.7583,1633
25.7611,1631
25.7639,1639
25.7667,1642
25.7694,1645
25.7722,1643
25.7750,1657
25.7778,1650
25.7806,1656
25.7833,1655
25.7861,1659
25.7889,1645
25.7917,1648
25.7944,1652
25.7972,1657
25.8000,1682
25.8028,1685
25.8056,1702
25.8083,1708
25.8111,1704
25.8139,1717
25.8167,1708
25.8194,1700
25.8222,1711
25.8250,1702
25.8278,1702
25.8306,1710
25.8333,1729
25.8361,1744
25.8389,1772
25.8417,1792
25.8444,1792
25.8472,1784
25.8500,1784
25.8528,1779
25.8556,1779
25.8583,1789
25.8611,1790
25.8639,1780
25.8667,1755
25.8694,1742
25.8722,1723
25.8750,1707
25.8778,1720
25.8806,1696
25.8833,1702
25.8861,1694
25.8889,1688
25.8917,1672
25.8944,1659
25.8972,1641
25.9000,1626
25.9028,1612
25.9056,1610
25.9083,1601
25.9111,1579
25.9139,1580
25.9167,1586
25.9194,1583
25.9222,1603
25.9250,1598
25.9278,1596
25.9306,1599
25.9333,1594
25.9361,1595
25.9389,1596
25.9417,1601
25.9444,1600
25.9472,1599
25.9500,1598
25.9528,1613
25.9556,1622
25.9583,1621
25.9611,1627
25.9639,1655
25.9667,1692
25.9694,1724
25.9722,1733
25.9750,1732
25.9778,1731
25.9806,1718
25.9833,1720
25.9861,1736
25.9889,1790
25.9917,1915
25.9944,2042
25.9972,2011
26.0000,1820
26.0028,1585
26.0056,1358
26.0083,1193
26.0111,1116
26.0139,1130
26.0167,1221
26.0194,1352
26.0222,1485
26.0250,1581
26.0278,1639
26.0306,1660
26.0333,1678
26.0361,1672
26.0389,1661
26.0417,1667
26.0444,1684
26.0472,1691
26.0500,1694
26.0528,1695
26.0556,1692
26.0583,1702
26.0611,1704
26.0639,1718
26.0667,1703
26.0694,1701
26.0722,1719
26.0750,1717
26.0778,1732
26.0806,1737
26.0833,1759
26.0861,1756
26.0889,1740
26.0917,1745
26.0944,1754
26.0972,1754
26.1000,1747
26.1028,1762
26.1056,1765
26.1083,1767
26.1111,1775
26.1139,1778
26.1167,1761
26.1194,1762
26.1222,1780
26.1250,1780
26.1278,1779
26.1306,1795
26.1333,1775
26.1361,1779
26.1389,1781
26.1417,1793
26.1444,1797
26.1472,1805
26.1500,1810
26.1528,1802
26.1556,1815
26.1583,1810
26.1611,1816
26.1639,1821
26.1667,1825
26.1694,1829
26.1722,1835
26.1750,1831
26.1778,1825
26.1806,1836
26.1833,1852
26.1861,1856
26.1889,1859
26.1917,1862
26.1944,1858
26.1972,1850
26.2000,1971
26.2028,1955
26.2056,1934
26.2083,1932
26.2111,1923
26.2139,1929
26.2167,1932
26.2194,1931
26.2222,1945
26.2250,1922
26.2278,1907
26.2306,1911
26.2333,1893
26.2361,1890
26.2389,1886
26.2417,1874
26.2444,1851
26.2472,1832
26.2500,1821
26.2528,1802
26.2556,1787
26.2583,1791
26.2611,1785
26.2639,1765
26.2667,1745
26.2694,1728
26.2722,1732
26.2750,1715
26.2778,1726
26.2806,1729
26.2833,1713
26.2861,1698
26.2889,1693
26.2917,1681
26.2944,1686
26.2972,1688
26.3000,1680
26.3028,1701
26.3056,1689
26.3083,1687
26.3111,1690
26.3139,1679
26.3167,1690
26.3194,1674
26.3222,1686
26.3250,1688
26.3278,1684
26.3306,1687
26.3333,1684
26.3361,1695
26.3389,1699
26.3417,1700
26.3444,1692
26.3472,1682
26.3500,1685
26.3528,1696
26.3556,1705
26.3583,1706
26.3611,1722
26.3639,1709
26.3667,1697
26.3694,1727
26.3722,1712
26.3750,1715
26.3778,1718
26.3806,1730
26.3833,1730
26.3861,1714
26.3889,1716
26.3917,1708
26.3944,1711
26.3972,1712
26.4000,1715
26.4028,1717
26.4056,1703
