Tiempo(s),Valor_ADC
0.0028,1679
0.0056,1688
0.0083,1711
0.0111,1720
0.0139,1726
0.0167,1730
0.0194,1710
0.0222,1697
0.0250,1712
0.0278,1736
0.0306,1739
0.0333,1753
0.0361,1744
0.0389,1738
0.0417,1747
0.0444,1745
0.0472,1742
0.0500,1747
0.0528,1757
0.0556,1764
0.0583,1765
0.0611,1747
0.0639,1750
0.0667,1754
0.0694,1751
0.0722,1733
0.0750,1732
0.0778,1704
0.0806,1690
0.0833,1689
0.0861,1699
0.0889,1698
0.0917,1697
0.0944,1703
0.0972,1697
0.1000,1684
0.1028,1680
0.1056,1683
0.1083,1686
0.1111,1692
0.1139,1702
0.1167,1692
0.1194,1658
0.1222,1632
0.1250,1638
0.1278,1653
0.1306,1661
0.1333,1662
0.1361,1652
0.1389,1653
0.1417,1651
0.1444,1654
0.1472,1651
0.1500,1658
0.1528,1661
0.1556,1673
0.1583,1676
0.1611,1672
0.1639,1665
0.1667,1650
0.1694,1649
0.1722,1640
0.1750,1648
0.1778,1662
0.1806,1665
0.1833,1673
0.1861,1695
0.1889,1701
0.1917,1704
0.1944,1700
0.1972,1685
0.2000,1654
0.2028,1641
0.2056,1637
0.2083,1651
0.2111,1652
0.2139,1660
0.2167,1662
0.2194,1656
0.2222,1656
0.2250,1655
0.2278,1648
0.2306,1650
0.2333,1662
0.2361,1655
0.2389,1653
0.2417,1645
0.2444,1646
0.2472,1665
0.2500,1663
0.2528,1669
0.2556,1678
0.2583,1678
0.2611,1676
0.2639,1682
0.2667,1692
0.2694,1694
0.2722,1699
0.2750,1708
0.2778,1714
0.2806,1728
0.2833,1734
0.2861,1741
0.2889,1736
0.2917,1731
0.2944,1737
0.2972,1750
0.3000,1759
0.3028,1771
0.3056,1776
0.3083,1783
0.3111,1771
0.3139,1757
0.3167,1760
0.3194,1759
0.3222,1748
0.3250,1733
0.3278,1722
0.3306,1693
0.3333,1680
0.3361,1662
0.3389,1648
0.3417,1642
0.3444,1642
0.3472,1653
0.3500,1655
0.3528,1645
0.3556,1640
0.3583,1636
0.3611,1631
0.3639,1642
0.3667,1656
0.3694,1655
0.3722,1657
0.3750,1661
0.3778,1664
0.3806,1649
0.3833,1638
0.3861,1635
0.3889,1645
0.3917,1655
0.3944,1665
0.3972,1675
0.4000,1671
0.4028,1663
0.4056,1651
0.4083,1627
0.4111,1617
0.4139,1612
0.4167,1601
0.4194,1591
0.4222,1622
0.4250,1665
0.4278,1716
0.4306,1764
0.4333,1846
0.4361,1990
0.4389,2156
0.4417,2368
0.4444,2558
0.4472,2623
0.4500,2518
0.4528,2312
0.4556,2125
0.4583,2000
0.4611,1926
0.4639,1897
0.4667,1886
0.4694,1892
0.4722,1878
0.4750,1865
0.4778,1838
0.4806,1768
0.4833,1692
0.4861,1652
0.4889,1632
0.4917,1638
0.4944,1653
0.4972,1675
0.5000,1666
0.5028,1654
0.5056,1647
0.5083,1657
0.5111,1657
0.5139,1662
0.5167,1657
0.5194,1629
0.5222,1623
0.5250,1617
0.5278,1626
0.5306,1643
0.5333,1651
0.5361,1664
0.5389,1670
0.5417,1661
0.5444,1654
0.5472,1637
0.5500,1631
0.5528,1633
0.5556,1645
0.5583,1669
0.5611,1680
0.5639,1692
0.5667,1690
0.5694,1698
0.5722,1698
0.5750,1697
0.5778,1689
0.5806,1680
0.5833,1671
0.5861,1675
0.5889,1684
0.5917,1680
0.5944,1675
0.5972,1688
0.6000,1693
0.6028,1697
0.6056,1697
0.6083,1694
0.6111,1691
0.6139,1705
0.6167,1715
0.6194,1716
0.6222,1709
0.6250,1718
0.6278,1717
0.6306,1726
0.6333,1744
0.6361,1766
0.6389,1753
0.6417,1740
0.6444,1755
0.6472,1752
0.6500,1753
0.6528,1754
0.6556,1766
0.6583,1756
0.6611,1767
0.6639,1765
0.6667,1761
0.6694,1747
0.6722,1752
0.6750,1778
0.6778,1783
0.6806,1776
0.6833,1772
0.6861,1759
0.6889,1750
0.6917,1732
0.6944,1728
0.6972,1717
0.7000,1714
0.7028,1711
0.7056,1717
0.7083,1716
0.7111,1697
0.7139,1696
0.7167,1703
0.7194,1699
0.7222,1700
0.7250,1699
0.7278,1713
0.7306,1727
0.7333,1741
0.7361,1759
0.7389,1737
0.7417,1710
0.7444,1684
0.7472,1685
0.7500,1681
0.7528,1694
0.7556,1708
0.7583,1713
0.7611,1711
0.7639,1712
0.7667,1700
0.7694,1690
0.7722,1683
0.7750,1702
0.7778,1713
0.7806,1708
0.7833,1691
0.7861,1691
0.7889,1687
0.7917,1687
0.7944,1700
0.7972,1697
0.8000,1700
0.8028,1694
0.8056,1692
0.8083,1694
0.8111,1698
0.8139,1717
0.8167,1719
0.8194,1699
0.8222,1687
0.8250,1688
0.8278,1692
0.8306,1687
0.8333,1702
0.8361,1709
0.8389,1717
0.8417,1701
0.8444,1709
0.8472,1722
0.8500,1730
0.8528,1738
0.8556,1738
0.8583,1737
0.8611,1746
0.8639,1771
0.8667,1773
0.8694,1772
0.8722,1757
0.8750,1758
0.8778,1783
0.8806,1798
0.8833,1802
0.8861,1801
0.8889,1777
0.8917,1781
0.8944,1777
0.8972,1779
0.9000,1783
0.9028,1767
0.9056,1743
0.9083,1702
0.9111,1668
0.9139,1655
0.9167,1662
0.9194,1644
0.9222,1647
0.9250,1648
0.9278,1654
0.9306,1656
0.9333,1665
0.9361,1663
0.9389,1655
0.9417,1649
0.9444,1646
0.9472,1635
0.9500,1650
0.9528,1647
0.9556,1641
0.9583,1644
0.9611,1658
0.9639,1662
0.9667,1658
0.9694,1661
0.9722,1664
0.9750,1668
0.9778,1674
0.9806,1660
0.9833,1656
0.9861,1675
0.9889,1688
0.9917,1676
0.9944,1662
0.9972,1642
1.0000,1628
1.0028,1634
1.0056,1669
1.0083,1717
1.0111,1772
1.0139,1839
1.0167,1953
1.0194,2114
1.0222,2348
1.0250,2569
1.0278,2659
1.0306,2592
1.0333,2424
1.0361,2252
1.0389,2113
1.0417,2032
1.0444,1994
1.0472,1964
1.0500,1964
1.0528,1953
1.0556,1946
1.0583,1899
1.0611,1828
1.0639,1749
1.0667,1689
1.0694,1678
1.0722,1674
1.0750,1698
1.0778,1708
1.0806,1692
1.0833,1677
1.0861,1667
1.0889,1647
1.0917,1640
1.0944,1654
1.0972,1667
1.1000,1663
1.1028,1663
1.1056,1661
1.1083,1646
1.1111,1646
1.1139,1666
1.1167,1695
1.1194,1687
1.1222,1674
1.1250,1671
1.1278,1665
1.1306,1664
1.1333,1671
1.1361,1694
1.1389,1707
1.1417,1707
1.1444,1718
1.1472,1734
1.1500,1721
1.1528,1704
1.1556,1672
1.1583,1665
1.1611,1656
1.1639,1677
1.1667,1706
1.1694,1718
1.1722,1736
1.1750,1761
1.1778,1757
1.1806,1747
1.1833,1735
1.1861,1730
1.1889,1739
1.1917,1735
1.1944,1740
1.1972,1754
1.2000,1742
1.2028,1739
1.2056,1731
1.2083,1743
1.2111,1753
1.2139,1769
1.2167,1782
1.2194,1777
1.2222,1773
1.2250,1769
1.2278,1780
1.2306,1783
1.2333,1808
1.2361,1805
1.2389,1800
1.2417,1789
1.2444,1785
1.2472,1789
1.2500,1773
1.2528,1787
1.2556,1806
1.2583,1817
1.2611,1806
1.2639,1786
1.2667,1772
1.2694,1744
1.2722,1735
1.2750,1747
1.2778,1772
1.2806,1794
1.2833,1787
1.2861,1773
1.2889,1746
1.2917,1747
1.2944,1759
1.2972,1761
1.3000,1752
1.3028,1740
1.3056,1737
1.3083,1729
1.3111,1727
1.3139,1730
1.3167,1752
1.3194,1760
1.3222,1756
1.3250,1762
1.3278,1752
1.3306,1749
1.3333,1742
1.3361,1754
1.3389,1759
1.3417,1768
1.3444,1766
1.3472,1758
1.3500,1740
1.3528,1734
1.3556,1728
1.3583,1705
1.3611,1687
1.3639,1695
1.3667,1708
1.3694,1715
1.3722,1720
1.3750,1733
1.3778,1729
1.3806,1724
1.3833,1728
1.3861,1740
1.3889,1741
1.3917,1734
1.3944,1738
1.3972,1744
1.4000,1737
1.4028,1747
1.4056,1762
1.4083,1784
1.4111,1784
1.4139,1804
1.4167,1806
1.4194,1799
1.4222,1790
1.4250,1781
1.4278,1783
1.4306,1778
1.4333,1786
1.4361,1782
1.4389,1799
1.4417,1807
1.4444,1821
1.4472,1821
1.4500,1814
1.4528,1797
1.4556,1802
1.4583,1803
1.4611,1769
1.4639,1753
1.4667,1745
1.4694,1718
1.4722,1694
1.4750,1695
1.4778,1691
1.4806,1677
1.4833,1679
1.4861,1675
1.4889,1674
1.4917,1669
1.4944,1680
1.4972,1688
1.5000,1681
1.5028,1672
1.5056,1676
1.5083,1668
1.5111,1682
1.5139,1692
1.5167,1708
1.5194,1693
1.5222,1672
1.5250,1675
1.5278,1686
1.5306,1686
1.5333,1701
1.5361,1698
1.5389,1674
1.5417,1667
1.5444,1671
1.5472,1675
1.5500,1675
1.5528,1672
1.5556,1671
1.5583,1675
1.5611,1684
1.5639,1721
1.5667,1767
1.5694,1797
1.5722,1862
1.5750,1961
1.5778,2132
1.5806,2341
1.5833,2539
1.5861,2607
1.5889,2536
1.5917,2402
1.5944,2316
1.5972,2252
1.6000,2202
1.6028,2140
1.6056,2090
1.6083,2036
1.6111,1987
1.6139,1934
1.6167,1881
1.6194,1824
1.6222,1750
1.6250,1694
1.6278,1663
1.6306,1640
1.6333,1641
1.6361,1659
1.6389,1658
1.6417,1676
1.6444,1664
1.6472,1657
1.6500,1651
1.6528,1654
1.6556,1667
1.6583,1646
1.6611,1630
1.6639,1609
1.6667,1606
1.6694,1623
1.6722,1643
1.6750,1654
1.6778,1642
1.6806,1618
1.6833,1622
1.6861,1624
1.6889,1628
1.6917,1625
1.6944,1646
1.6972,1683
1.7000,1687
1.7028,1666
1.7056,1646
1.7083,1643
1.7111,1630
1.7139,1629
1.7167,1645
1.7194,1655
1.7222,1669
1.7250,1675
1.7278,1676
1.7306,1668
1.7333,1666
1.7361,1684
1.7389,1683
1.7417,1691
1.7444,1698
1.7472,1707
1.7500,1708
1.7528,1703
1.7556,1701
1.7583,1673
1.7611,1644
1.7639,1618
1.7667,1647
1.7694,1671
1.7722,1676
1.7750,1733
1.7778,1725
1.7806,1725
1.7833,1731
1.7861,1743
1.7889,1734
1.7917,1738
1.7944,1718
1.7972,1704
1.8000,1700
1.8028,1681
1.8056,1679
1.8083,1679
1.8111,1687
1.8139,1713
1.8167,1724
1.8194,1706
1.8222,1700
1.8250,1710
1.8278,1707
1.8306,1692
1.8333,1701
1.8361,1695
1.8389,1662
1.8417,1627
1.8444,1611
1.8472,1634
1.8500,1647
1.8528,1677
1.8556,1676
1.8583,1669
1.8611,1649
1.8639,1633
1.8667,1619
1.8694,1606
1.8722,1627
1.8750,1670
1.8778,1682
1.8806,1680
1.8833,1676
1.8861,1645
1.8889,1606
1.8917,1599
1.8944,1634
1.8972,1643
1.9000,1661
1.9028,1664
1.9056,1635
1.9083,1599
1.9111,1579
1.9139,1602
1.9167,1631
1.9194,1644
1.9222,1650
1.9250,1633
1.9278,1607
1.9306,1607
1.9333,1622
1.9361,1637
1.9389,1641
1.9417,1647
1.9444,1652
1.9472,1653
1.9500,1665
1.9528,1668
1.9556,1681
1.9583,1687
1.9611,1689
1.9639,1703
1.9667,1705
1.9694,1697
1.9722,1685
1.9750,1702
1.9778,1712
1.9806,1727
1.9833,1741
1.9861,1758
1.9889,1760
1.9917,1763
1.9944,1752
1.9972,1703
2.0000,1655
2.0028,1627
2.0056,1651
2.0083,1676
2.0111,1681
2.0139,1692
2.0167,1683
2.0194,1655
2.0222,1641
2.0250,1647
2.0278,1644
2.0306,1657
2.0333,1655
2.0361,1647
2.0389,1629
2.0417,1627
2.0444,1637
2.0472,1642
2.0500,1621
2.0528,1634
2.0556,1637
2.0583,1633
2.0611,1636
2.0639,1671
2.0667,1705
2.0694,1694
2.0722,1685
2.0750,1673
2.0778,1653
2.0806,1641
2.0833,1653
2.0861,1664
2.0889,1655
2.0917,1655
2.0944,1641
2.0972,1621
2.1000,1619
2.1028,1657
2.1056,1718
2.1083,1760
2.1111,1796
2.1139,1879
2.1167,2040
2.1194,2242
2.1222,2461
2.1250,2591
2.1278,2537
2.1306,2405
2.1333,2308
2.1361,2278
2.1389,2254
2.1417,2208
2.1444,2153
2.1472,2092
2.1500,2034
2.1528,1999
2.1556,1958
2.1583,1882
2.1611,1791
2.1639,1717
2.1667,1681
2.1694,1655
2.1722,1654
2.1750,1671
2.1778,1688
2.1806,1676
2.1833,1682
2.1861,1693
2.1889,1677
2.1917,1657
2.1944,1657
2.1972,1659
2.2000,1652
2.2028,1664
2.2056,1678
2.2083,1670
2.2111,1642
2.2139,1650
2.2167,1669
2.2194,1660
2.2222,1665
2.2250,1697
2.2278,1698
2.2306,1668
2.2333,1649
2.2361,1639
2.2389,1626
2.2417,1630
2.2444,1674
2.2472,1719
2.2500,1724
2.2528,1723
2.2556,1727
2.2583,1702
2.2611,1694
2.2639,1709
2.2667,1735
2.2694,1718
2.2722,1721
2.2750,1725
2.2778,1730
2.2806,1722
2.2833,1743
2.2861,1768
2.2889,1765
2.2917,1750
2.2944,1757
2.2972,1731
2.3000,1703
2.3028,1712
2.3056,1744
2.3083,1745
2.3111,1747
2.3139,1750
2.3167,1730
2.3194,1708
2.3222,1732
2.3250,1748
2.3278,1758
2.3306,1751
2.3333,1748
2.3361,1748
2.3389,1745
2.3417,1752
2.3444,1766
2.3472,1760
2.3500,1736
2.3528,1736
2.3556,1738
2.3583,1733
2.3611,1719
2.3639,1719
2.3667,1713
2.3694,1702
2.3722,1727
2.3750,1750
2.3778,1745
2.3806,1736
2.3833,1740
2.3861,1731
2.3889,1722
2.3917,1722
2.3944,1737
2.3972,1729
2.4000,1710
2.4028,1701
2.4056,1708
2.4083,1685
2.4111,1676
2.4139,1695
2.4167,1704
2.4194,1692
2.4222,1690
2.4250,1700
2.4278,1690
2.4306,1671
2.4333,1674
2.4361,1679
2.4389,1672
2.4417,1667
2.4444,1686
2.4472,1689
2.4500,1662
2.4528,1663
2.4556,1681
2.4583,1670
2.4611,1671
2.4639,1687
2.4667,1701
2.4694,1673
2.4722,1667
2.4750,1678
2.4778,1668
2.4806,1661
2.4833,1669
2.4861,1671
2.4889,1649
2.4917,1634
2.4944,1646
2.4972,1667
2.5000,1673
2.5028,1702
2.5056,1727
2.5083,1725
2.5111,1724
2.5139,1747
2.5167,1753
2.5194,1733
2.5222,1732
2.5250,1746
2.5278,1737
2.5306,1739
2.5333,1762
2.5361,1769
2.5389,1760
2.5417,1755
2.5444,1772
2.5472,1755
2.5500,1740
2.5528,1750
2.5556,1754
2.5583,1722
2.5611,1686
2.5639,1688
2.5667,1669
2.5694,1646
2.5722,1612
2.5750,1617
2.5778,1602
2.5806,1600
2.5833,1616
2.5861,1633
2.5889,1613
2.5917,1611
2.5944,1624
2.5972,1624
2.6000,1617
2.6028,1625
2.6056,1638
2.6083,1622
2.6111,1602
2.6139,1613
2.6167,1609
2.6194,1595
2.6222,1609
2.6250,1634
2.6278,1628
2.6306,1626
2.6333,1630
2.6361,1641
2.6389,1629
2.6417,1616
2.6444,1617
2.6472,1620
2.6500,1604
2.6528,1589
2.6556,1571
2.6583,1554
2.6611,1589
2.6639,1668
2.6667,1731
2.6694,1760
2.6722,1833
2.6750,1972
2.6778,2197
2.6806,2471
2.6833,2755
2.6861,2884
2.6889,2808
2.6917,2612
2.6944,2378
2.6972,2159
2.7000,2003
2.7028,1928
2.7056,1914
2.7083,1899
2.7111,1873
2.7139,1840
2.7167,1762
2.7194,1687
2.7222,1643
2.7250,1639
2.7278,1626
2.7306,1627
2.7333,1649
2.7361,1659
2.7389,1636
2.7417,1622
2.7444,1607
2.7472,1586
2.7500,1579
2.7528,1585
2.7556,1615
2.7583,1609
2.7611,1601
2.7639,1607
2.7667,1606
2.7694,1595
2.7722,1599
2.7750,1629
2.7778,1617
2.7806,1621
2.7833,1624
2.7861,1627
2.7889,1619
2.7917,1609
2.7944,1636
2.7972,1633
2.8000,1621
2.8028,1605
2.8056,1613
2.8083,1600
2.8111,1598
2.8139,1616
2.8167,1640
2.8194,1642
2.8222,1659
2.8250,1670
2.8278,1655
2.8306,1638
2.8333,1644
2.8361,1652
2.8389,1640
2.8417,1649
2.8444,1662
2.8472,1655
2.8500,1647
2.8528,1672
2.8556,1695
2.8583,1695
2.8611,1679
2.8639,1686
2.8667,1694
2.8694,1694
2.8722,1704
2.8750,1731
2.8778,1719
2.8806,1718
2.8833,1723
2.8861,1723
2.8889,1710
2.8917,1721
2.8944,1741
2.8972,1736
2.9000,1740
2.9028,1741
2.9056,1732
2.9083,1707
2.9111,1719
2.9139,1749
2.9167,1762
2.9194,1749
2.9222,1737
2.9250,1705
2.9278,1689
2.9306,1693
2.9333,1716
2.9361,1736
2.9389,1724
2.9417,1734
2.9444,1737
2.9472,1723
2.9500,1713
2.9528,1736
2.9556,1736
2.9583,1720
2.9611,1716
2.9639,1718
2.9667,1712
2.9694,1694
2.9722,1702
2.9750,1728
2.9778,1716
2.9806,1716
2.9833,1707
2.9861,1701
2.9889,1689
2.9917,1689
2.9944,1716
2.9972,1723
3.0000,1719
3.0028,1722
3.0056,1728
3.0083,1700
3.0111,1706
3.0139,1722
3.0167,1726
3.0194,1704
3.0222,1693
3.0250,1686
3.0278,1679
3.0306,1682
3.0333,1711
3.0361,1722
3.0389,1719
3.0417,1713
3.0444,1723
3.0472,1718
3.0500,1705
3.0528,1722
3.0556,1726
3.0583,1704
3.0611,1705
3.0639,1732
3.0667,1744
3.0694,1740
3.0722,1774
3.0750,1803
3.0778,1809
3.0806,1812
3.0833,1823
3.0861,1819
3.0889,1784
3.0917,1789
3.0944,1819
3.0972,1825
3.1000,1830
3.1028,1861
3.1056,1858
3.1083,1826
3.1111,1807
3.1139,1824
3.1167,1828
3.1194,1802
3.1222,1777
3.1250,1727
3.1278,1693
3.1306,1683
3.1333,1689
3.1361,1665
3.1389,1651
3.1417,1657
3.1444,1668
3.1472,1669
3.1500,1667
3.1528,1671
3.1556,1651
3.1583,1621
3.1611,1602
3.1639,1613
3.1667,1628
3.1694,1629
3.1722,1655
3.1750,1687
3.1778,1676
3.1806,1674
3.1833,1676
3.1861,1664
3.1889,1654
3.1917,1667
3.1944,1686
3.1972,1682
3.2000,1668
3.2028,1665
3.2056,1658
3.2083,1637
3.2111,1638
3.2139,1636
3.2167,1608
3.2194,1570
3.2222,1580
3.2250,1629
3.2278,1678
3.2306,1748
3.2333,1833
3.2361,1949
3.2389,2150
3.2417,2427
3.2444,2743
3.2472,2973
3.2500,3034
3.2528,2872
3.2556,2593
3.2583,2269
3.2611,2026
3.2639,1911
3.2667,1868
3.2694,1878
3.2722,1906
3.2750,1908
3.2778,1844
3.2806,1737
3.2833,1679
3.2861,1648
3.2889,1620
3.2917,1656
3.2944,1678
3.2972,1683
3.3000,1671
3.3028,1658
3.3056,1636
3.3083,1606
3.3111,1612
3.3139,1637
3.3167,1643
3.3194,1645
3.3222,1649
3.3250,1639
3.3278,1619
3.3306,1606
3.3333,1623
3.3361,1629
3.3389,1644
3.3417,1645
3.3444,1654
3.3472,1635
3.3500,1622
3.3528,1647
3.3556,1680
3.3583,1677
3.3611,1681
3.3639,1681
3.3667,1658
3.3694,1628
3.3722,1644
3.3750,1686
3.3778,1691
3.3806,1699
3.3833,1706
3.3861,1699
3.3889,1672
3.3917,1661
3.3944,1683
3.3972,1681
3.4000,1684
3.4028,1685
3.4056,1686
3.4083,1661
3.4111,1666
3.4139,1689
3.4167,1694
3.4194,1683
3.4222,1683
3.4250,1683
3.4278,1655
3.4306,1655
3.4333,1696
3.4361,1725
3.4389,1751
3.4417,1726
3.4444,1727
3.4472,1706
3.4500,1704
3.4528,1716
3.4556,1710
3.4583,1703
3.4611,1710
3.4639,1709
3.4667,1676
3.4694,1684
3.4722,1709
3.4750,1734
3.4778,1747
3.4806,1750
3.4833,1755
3.4861,1717
3.4889,1692
3.4917,1686
3.4944,1706
3.4972,1715
3.5000,1724
3.5028,1739
3.5056,1723
3.5083,1696
3.5111,1687
3.5139,1702
3.5167,1703
3.5194,1682
3.5222,1680
3.5250,1676
3.5278,1673
3.5306,1690
3.5333,1720
3.5361,1729
3.5389,1720
3.5417,1719
3.5444,1710
3.5472,1678
3.5500,1665
3.5528,1685
3.5556,1691
3.5583,1691
3.5611,1686
3.5639,1680
3.5667,1661
3.5694,1667
3.5722,1684
3.5750,1713
3.5778,1726
3.5806,1712
3.5833,1713
3.5861,1711
3.5889,1697
3.5917,1704
3.5944,1710
3.5972,1695
3.6000,1688
3.6028,1701
3.6056,1691
3.6083,1670
3.6111,1684
3.6139,1710
3.6167,1690
3.6194,1686
3.6222,1699
3.6250,1693
3.6278,1685
3.6306,1687
3.6333,1707
3.6361,1716
3.6389,1726
3.6417,1735
3.6444,1731
3.6472,1706
3.6500,1694
3.6528,1701
3.6556,1710
3.6583,1718
3.6611,1718
3.6639,1735
3.6667,1735
3.6694,1737
3.6722,1771
3.6750,1794
3.6778,1810
3.6806,1805
3.6833,1814
3.6861,1804
3.6889,1789
3.6917,1796
3.6944,1793
3.6972,1788
3.7000,1778
3.7028,1795
3.7056,1814
3.7083,1815
3.7111,1825
3.7139,1813
3.7167,1762
3.7194,1722
3.7222,1706
3.7250,1688
3.7278,1675
3.7306,1671
3.7333,1664
3.7361,1646
3.7389,1633
3.7417,1628
3.7444,1637
3.7472,1641
3.7500,1635
3.7528,1658
3.7556,1670
3.7583,1652
3.7611,1635
3.7639,1631
3.7667,1621
3.7694,1612
3.7722,1632
3.7750,1639
3.7778,1640
3.7806,1636
3.7833,1651
3.7861,1659
3.7889,1652
3.7917,1670
3.7944,1664
3.7972,1667
3.8000,1647
3.8028,1652
3.8056,1626
3.8083,1577
3.8111,1549
3.8139,1595
3.8167,1639
3.8194,1691
3.8222,1738
3.8250,1799
3.8278,1917
3.8306,2126
3.8333,2401
3.8361,2664
3.8389,2866
3.8417,2932
3.8444,2786
3.8472,2513
3.8500,2238
3.8528,2050
3.8556,1931
3.8583,1874
3.8611,1870
3.8639,1888
3.8667,1864
3.8694,1811
3.8722,1746
3.8750,1695
3.8778,1647
3.8806,1629
3.8833,1641
3.8861,1642
3.8889,1643
3.8917,1648
3.8944,1646
3.8972,1600
3.9000,1597
3.9028,1600
3.9056,1596
3.9083,1582
3.9111,1581
3.9139,1587
3.9167,1577
3.9194,1567
3.9222,1578
3.9250,1586
3.9278,1590
3.9306,1606
3.9333,1625
3.9361,1614
3.9389,1595
3.9417,1601
3.9444,1603
3.9472,1593
3.9500,1594
3.9528,1608
3.9556,1620
3.9583,1611
3.9611,1618
3.9639,1612
3.9667,1597
3.9694,1583
3.9722,1587
3.9750,1595
3.9778,1587
3.9806,1599
3.9833,1610
3.9861,1607
3.9889,1595
3.9917,1600
3.9944,1609
3.9972,1577
4.0000,1567
4.0028,1576
4.0056,1581
4.0083,1594
4.0111,1628
4.0139,1660
4.0167,1649
4.0194,1633
4.0222,1632
4.0250,1626
4.0278,1623
4.0306,1603
4.0333,1610
4.0361,1609
4.0389,1592
4.0417,1585
4.0444,1572
4.0472,1566
4.0500,1587
4.0528,1616
4.0556,1618
4.0583,1611
4.0611,1607
4.0639,1593
4.0667,1583
4.0694,1588
4.0722,1599
4.0750,1584
4.0778,1566
4.0806,1566
4.0833,1565
4.0861,1558
4.0889,1554
4.0917,1575
4.0944,1581
4.0972,1555
4.1000,1537
4.1028,1527
4.1056,1519
4.1083,1508
4.1111,1520
4.1139,1525
4.1167,1514
4.1194,1509
4.1222,1528
4.1250,1515
4.1278,1499
4.1306,1492
4.1333,1507
4.1361,1521
4.1389,1526
4.1417,1541
4.1444,1522
4.1472,1494
4.1500,1498
4.1528,1523
4.1556,1511
4.1583,1510
4.1611,1495
4.1639,1500
4.1667,1485
4.1694,1490
4.1722,1507
4.1750,1520
4.1778,1501
4.1806,1497
4.1833,1487
4.1861,1479
4.1889,1485
4.1917,1513
4.1944,1520
4.1972,1505
4.2000,1497
4.2028,1501
4.2056,1487
4.2083,1469
4.2111,1474
4.2139,1479
4.2167,1484
4.2194,1477
4.2222,1473
4.2250,1467
4.2278,1480
4.2306,1504
4.2333,1515
4.2361,1509
4.2389,1494
4.2417,1475
4.2444,1465
4.2472,1458
4.2500,1475
4.2528,1490
4.2556,1468
4.2583,1449
4.2611,1461
4.2639,1466
4.2667,1467
4.2694,1474
4.2722,1481
4.2750,1475
4.2778,1460
4.2806,1445
4.2833,1452
4.2861,1440
4.2889,1440
4.2917,1466
4.2944,1480
4.2972,1485
4.3000,1501
4.3028,1522
4.3056,1533
4.3083,1540
4.3111,1548
4.3139,1562
4.3167,1553
4.3194,1536
4.3222,1538
4.3250,1525
4.3278,1517
4.3306,1562
4.3333,1591
4.3361,1595
4.3389,1573
4.3417,1560
4.3444,1545
4.3472,1522
4.3500,1518
4.3528,1493
4.3556,1448
4.3583,1401
4.3611,1386
4.3639,1391
4.3667,1389
4.3694,1398
4.3722,1408
4.3750,1414
4.3778,1408
4.3806,1412
4.3833,1407
4.3861,1394
4.3889,1376
4.3917,1405
4.3944,1408
4.3972,1394
4.4000,1381
4.4028,1385
4.4056,1386
4.4083,1385
4.4111,1379
4.4139,1377
4.4167,1366
4.4194,1350
4.4222,1362
4.4250,1369
4.4278,1352
4.4306,1348
4.4333,1356
4.4361,1337
4.4389,1321
4.4417,1323
4.4444,1305
4.4472,1283
4.4500,1326
4.4528,1376
4.4556,1416
4.4583,1443
4.4611,1515
4.4639,1643
4.4667,1833
4.4694,2094
4.4722,2357
4.4750,2494
4.4778,2461
4.4806,2280
4.4833,2036
4.4861,1823
4.4889,1674
4.4917,1617
4.4944,1597
4.4972,1593
4.5000,1589
4.5028,1574
4.5056,1520
4.5083,1443
4.5111,1370
4.5139,1332
4.5167,1319
4.5194,1324
4.5222,1357
4.5250,1373
4.5278,1354
4.5306,1354
4.5333,1339
4.5361,1326
4.5389,1313
4.5417,1332
4.5444,1348
4.5472,1345
4.5500,1355
4.5528,1354
4.5556,1333
4.5583,1316
4.5611,1317
4.5639,1332
4.5667,1330
4.5694,1351
4.5722,1363
4.5750,1355
4.5778,1343
4.5806,1336
4.5833,1370
4.5861,1368
4.5889,1360
4.5917,1368
4.5944,1366
4.5972,1352
4.6000,1354
4.6028,1377
4.6056,1375
4.6083,1377
4.6111,1370
4.6139,1372
4.6167,1362
4.6194,1375
4.6222,1396
4.6250,1409
4.6278,1403
4.6306,1414
4.6333,1419
4.6361,1399
4.6389,1395
4.6417,1406
4.6444,1425
4.6472,1424
4.6500,1429
4.6528,1428
4.6556,1425
4.6583,1421
4.6611,1433
4.6639,1447
4.6667,1455
4.6694,1471
4.6722,1486
4.6750,1480
4.6778,1475
4.6806,1490
4.6833,1506
4.6861,1498
4.6889,1496
4.6917,1516
4.6944,1515
4.6972,1500
4.7000,1496
4.7028,1506
4.7056,1492
4.7083,1491
4.7111,1500
4.7139,1478
4.7167,1469
4.7194,1465
4.7222,1479
4.7250,1477
4.7278,1474
4.7306,1485
4.7333,1496
4.7361,1493
4.7389,1486
4.7417,1480
4.7444,1467
4.7472,1466
4.7500,1484
4.7528,1487
4.7556,1472
4.7583,1459
4.7611,1470
4.7639,1479
4.7667,1461
4.7694,1479
4.7722,1498
4.7750,1474
4.7778,1465
4.7806,1479
4.7833,1478
4.7861,1469
4.7889,1469
4.7917,1482
4.7944,1491
4.7972,1483
4.8000,1481
4.8028,1492
4.8056,1480
4.8083,1466
4.8111,1470
4.8139,1470
4.8167,1459
4.8194,1476
4.8222,1493
4.8250,1501
4.8278,1496
4.8306,1498
4.8333,1496
4.8361,1477
4.8389,1471
4.8417,1474
4.8444,1468
4.8472,1476
4.8500,1482
4.8528,1477
4.8556,1484
4.8583,1477
4.8611,1490
4.8639,1496
4.8667,1502
4.8694,1512
4.8722,1526
4.8750,1513
4.8778,1500
4.8806,1505
4.8833,1506
4.8861,1493
4.8889,1491
4.8917,1504
4.8944,1508
4.8972,1511
4.9000,1517
4.9028,1537
4.9056,1524
4.9083,1521
4.9111,1526
4.9139,1513
4.9167,1492
4.9194,1492
4.9222,1508
4.9250,1520
4.9278,1530
4.9306,1547
4.9333,1556
4.9361,1550
4.9389,1548
4.9417,1551
4.9444,1549
4.9472,1550
4.9500,1574
4.9528,1600
4.9556,1618
4.9583,1621
4.9611,1630
4.9639,1640
4.9667,1614
4.9694,1621
4.9722,1621
4.9750,1626
4.9778,1620
4.9806,1633
4.9833,1650
4.9861,1653
4.9889,1671
4.9917,1681
4.9944,1659
4.9972,1641
5.0000,1640
5.0028,1637
5.0056,1618
5.0083,1590
5.0111,1574
5.0139,1557
5.0167,1515
5.0194,1506
5.0222,1510
5.0250,1504
5.0278,1501
5.0306,1517
5.0333,1524
5.0361,1515
5.0389,1514
5.0417,1519
5.0444,1513
5.0472,1499
5.0500,1510
5.0528,1517
5.0556,1507
5.0583,1509
5.0611,1514
5.0639,1509
5.0667,1502
5.0694,1516
5.0722,1529
5.0750,1525
5.0778,1517
5.0806,1529
5.0833,1529
5.0861,1521
5.0889,1501
5.0917,1498
5.0944,1457
5.0972,1427
5.1000,1443
5.1028,1487
5.1056,1531
5.1083,1573
5.1111,1623
5.1139,1695
5.1167,1825
5.1194,2031
5.1222,2316
5.1250,2555
5.1278,2660
5.1306,2608
5.1333,2399
5.1361,2141
5.1389,1937
5.1417,1817
5.1444,1749
5.1472,1736
5.1500,1745
5.1528,1748
5.1556,1709
5.1583,1659
5.1611,1609
5.1639,1574
5.1667,1521
5.1694,1515
5.1722,1531
5.1750,1553
5.1778,1555
5.1806,1561
5.1833,1549
5.1861,1512
5.1889,1506
5.1917,1517
5.1944,1536
5.1972,1540
5.2000,1533
5.2028,1538
5.2056,1512
5.2083,1505
5.2111,1527
5.2139,1556
5.2167,1563
5.2194,1560
5.2222,1557
5.2250,1539
5.2278,1519
5.2306,1534
5.2333,1562
5.2361,1571
5.2389,1587
5.2417,1603
5.2444,1590
5.2472,1579
5.2500,1580
5.2528,1592
5.2556,1602
5.2583,1610
5.2611,1618
5.2639,1612
5.2667,1592
5.2694,1593
5.2722,1599
5.2750,1618
5.2778,1628
5.2806,1638
5.2833,1631
5.2861,1609
5.2889,1608
5.2917,1636
5.2944,1647
5.2972,1652
5.3000,1658
5.3028,1662
5.3056,1648
5.3083,1643
5.3111,1669
5.3139,1671
5.3167,1727
5.3194,1710
5.3222,1714
5.3250,1704
5.3278,1708
5.3306,1727
5.3333,1751
5.3361,1744
5.3389,1748
5.3417,1758
5.3444,1749
5.3472,1746
5.3500,1748
5.3528,1753
5.3556,1761
5.3583,1757
5.3611,1748
5.3639,1738
5.3667,1721
5.3694,1731
5.3722,1749
5.3750,1756
5.3778,1750
5.3806,1757
5.3833,1751
5.3861,1732
5.3889,1735
5.3917,1740
5.3944,1741
5.3972,1737
5.4000,1748
5.4028,1746
5.4056,1732
5.4083,1716
5.4111,1723
5.4139,1728
5.4167,1723
5.4194,1745
5.4222,1754
5.4250,1733
5.4278,1729
5.4306,1743
5.4333,1742
5.4361,1741
5.4389,1746
5.4417,1759
5.4444,1741
5.4472,1743
5.4500,1752
5.4528,1762
5.4556,1759
5.4583,1745
5.4611,1746
5.4639,1746
5.4667,1739
5.4694,1741
5.4722,1748
5.4750,1750
5.4778,1731
5.4806,1748
5.4833,1745
5.4861,1731
5.4889,1743
5.4917,1754
5.4944,1760
5.4972,1751
5.5000,1753
5.5028,1746
5.5056,1725
5.5083,1726
5.5111,1743
5.5139,1752
5.5167,1746
5.5194,1739
5.5222,1746
5.5250,1737
5.5278,1743
5.5306,1752
5.5333,1761
5.5361,1762
5.5389,1760
5.5417,1750
5.5444,1737
5.5472,1732
5.5500,1742
5.5528,1757
5.5556,1752
5.5583,1768
5.5611,1775
5.5639,1760
5.5667,1748
5.5694,1742
5.5722,1753
5.5750,1749
5.5778,1737
5.5806,1755
5.5833,1762
5.5861,1748
5.5889,1746
5.5917,1759
5.5944,1751
5.5972,1729
5.6000,1751
5.6028,1759
5.6056,1765
5.6083,1761
5.6111,1782
5.6139,1792
5.6167,1817
5.6194,1827
5.6222,1843
5.6250,1834
5.6278,1838
5.6306,1839
5.6333,1831
5.6361,1812
5.6389,1808
5.6417,1818
5.6444,1843
5.6472,1855
5.6500,1886
5.6528,1892
5.6556,1875
5.6583,1865
5.6611,1861
5.6639,1845
5.6667,1822
5.6694,1801
5.6722,1774
5.6750,1755
5.6778,1736
5.6806,1732
5.6833,1728
5.6861,1706
5.6889,1711
5.6917,1719
5.6944,1717
5.6972,1706
5.7000,1711
5.7028,1704
5.7056,1695
5.7083,1689
5.7111,1709
5.7139,1710
5.7167,1707
5.7194,1700
5.7222,1708
5.7250,1706
5.7278,1713
5.7306,1726
5.7333,1741
5.7361,1731
5.7389,1727
5.7417,1733
5.7444,1712
5.7472,1708
5.7500,1711
5.7528,1697
5.7556,1663
5.7583,1640
5.7611,1657
5.7639,1677
5.7667,1715
5.7694,1766
5.7722,1834
5.7750,1931
5.7778,2078
5.7806,2315
5.7833,2572
5.7861,2772
5.7889,2851
5.7917,2748
5.7944,2508
5.7972,2243
5.8000,2077
5.8028,1987
5.8056,1939
5.8083,1934
5.8111,1951
5.8139,1944
5.8167,1914
5.8194,1846
5.8222,1789
5.8250,1723
5.8278,1696
5.8306,1723
5.8333,1730
5.8361,1734
5.8389,1734
5.8417,1729
5.8444,1719
5.8472,1697
5.8500,1685
5.8528,1700
5.8556,1706
5.8583,1713
5.8611,1727
5.8639,1717
5.8667,1708
5.8694,1700
5.8722,1703
5.8750,1700
5.8778,1717
5.8806,1723
5.8833,1720
5.8861,1686
5.8889,1672
5.8917,1688
5.8944,1706
5.8972,1714
5.9000,1726
5.9028,1723
5.9056,1720
5.9083,1723
5.9111,1732
5.9139,1741
5.9167,1744
5.9194,1733
5.9222,1727
5.9250,1723
5.9278,1697
5.9306,1729
5.9333,1737
5.9361,1748
5.9389,1760
5.9417,1761
5.9444,1757
5.9472,1740
5.9500,1735
5.9528,1746
5.9556,1762
5.9583,1766
5.9611,1784
5.9639,1792
5.9667,1774
5.9694,1769
5.9722,1769
5.9750,1762
5.9778,1806
5.9806,1800
5.9833,1785
5.9861,1766
5.9889,1791
5.9917,1806
5.9944,1819
5.9972,1827
6.0000,1829
6.0028,1820
6.0056,1807
6.0083,1805
6.0111,1817
6.0139,1818
6.0167,1815
6.0194,1812
6.0222,1808
6.0250,1788
6.0278,1779
6.0306,1791
6.0333,1789
6.0361,1791
6.0389,1801
6.0417,1789
6.0444,1775
6.0472,1757
6.0500,1773
6.0528,1762
6.0556,1760
6.0583,1752
6.0611,1770
6.0639,1766
6.0667,1756
6.0694,1769
6.0722,1774
6.0750,1774
6.0778,1763
6.0806,1768
6.0833,1750
6.0861,1723
6.0889,1707
6.0917,1725
6.0944,1729
6.0972,1740
6.1000,1760
6.1028,1749
6.1056,1729
6.1083,1730
6.1111,1746
6.1139,1736
6.1167,1730
6.1194,1738
6.1222,1753
6.1250,1740
6.1278,1721
6.1306,1729
6.1333,1731
6.1361,1730
6.1389,1744
6.1417,1744
6.1444,1742
6.1472,1745
6.1500,1754
6.1528,1749
6.1556,1736
6.1583,1739
6.1611,1738
6.1639,1733
6.1667,1719
6.1694,1732
6.1722,1743
6.1750,1748
6.1778,1746
6.1806,1749
6.1833,1742
6.1861,1737
6.1889,1737
6.1917,1742
6.1944,1739
6.1972,1738
6.2000,1744
6.2028,1734
6.2056,1718
6.2083,1712
6.2111,1721
6.2139,1722
6.2167,1721
6.2194,1735
6.2222,1734
6.2250,1716
6.2278,1714
6.2306,1719
6.2333,1732
6.2361,1737
6.2389,1753
6.2417,1751
6.2444,1739
6.2472,1724
6.2500,1735
6.2528,1722
6.2556,1729
6.2583,1728
6.2611,1729
6.2639,1727
6.2667,1722
6.2694,1733
6.2722,1742
6.2750,1728
6.2778,1721
6.2806,1745
6.2833,1739
6.2861,1739
6.2889,1759
6.2917,1793
6.2944,1807
6.2972,1807
6.3000,1797
6.3028,1789
6.3056,1789
6.3083,1808
6.3111,1829
6.3139,1828
6.3167,1818
6.3194,1824
6.3222,1836
6.3250,1844
6.3278,1853
6.3306,1865
6.3333,1862
6.3361,1843
6.3389,1849
6.3417,1833
6.3444,1808
6.3472,1772
6.3500,1765
6.3528,1758
6.3556,1755
6.3583,1734
6.3611,1732
6.3639,1694
6.3667,1680
6.3694,1673
6.3722,1673
6.3750,1679
6.3778,1687
6.3806,1698
6.3833,1692
6.3861,1684
6.3889,1708
6.3917,1711
6.3944,1688
6.3972,1689
6.4000,1702
6.4028,1706
6.4056,1702
6.4083,1704
6.4111,1713
6.4139,1708
6.4167,1702
6.4194,1710
6.4222,1722
6.4250,1696
6.4278,1687
6.4306,1674
6.4333,1650
6.4361,1626
6.4389,1640
6.4417,1677
6.4444,1708
6.4472,1762
6.4500,1829
6.4528,1932
6.4556,2087
6.4583,2329
6.4611,2582
6.4639,2745
6.4667,2748
6.4694,2599
6.4722,2351
6.4750,2131
6.4778,1989
6.4806,1928
6.4833,1894
6.4861,1889
6.4889,1917
6.4917,1925
6.4944,1901
6.4972,1836
6.5000,1782
6.5028,1730
6.5056,1687
6.5083,1670
6.5111,1700
6.5139,1697
6.5167,1711
6.5194,1714
6.5222,1716
6.5250,1689
6.5278,1674
6.5306,1680
6.5333,1701
6.5361,1679
6.5389,1682
6.5417,1690
6.5444,1675
6.5472,1677
6.5500,1696
6.5528,1718
6.5556,1710
6.5583,1694
6.5611,1695
6.5639,1670
6.5667,1667
6.5694,1677
6.5722,1706
6.5750,1703
6.5778,1696
6.5806,1712
6.5833,1694
6.5861,1696
6.5889,1713
6.5917,1734
6.5944,1718
6.5972,1723
6.6000,1732
6.6028,1735
6.6056,1727
6.6083,1728
6.6111,1743
6.6139,1752
6.6167,1733
6.6194,1746
6.6222,1740
6.6250,1728
6.6278,1733
6.6306,1754
6.6333,1761
6.6361,1756
6.6389,1760
6.6417,1764
6.6444,1744
6.6472,1732
6.6500,1751
6.6528,1770
6.6556,1814
6.6583,1795
6.6611,1781
6.6639,1756
6.6667,1765
6.6694,1787
6.6722,1801
6.6750,1791
6.6778,1793
6.6806,1795
6.6833,1778
6.6861,1785
6.6889,1801
6.6917,1799
6.6944,1793
6.6972,1781
6.7000,1789
6.7028,1782
6.7056,1771
6.7083,1771
6.7111,1785
6.7139,1781
6.7167,1771
6.7194,1776
6.7222,1761
6.7250,1743
6.7278,1747
6.7306,1757
6.7333,1762
6.7361,1747
6.7389,1745
6.7417,1726
6.7444,1716
6.7472,1721
6.7500,1733
6.7528,1740
6.7556,1726
6.7583,1729
6.7611,1719
6.7639,1706
6.7667,1697
6.7694,1719
6.7722,1728
6.7750,1732
6.7778,1731
6.7806,1735
6.7833,1708
6.7861,1701
6.7889,1705
6.7917,1721
6.7944,1716
6.7972,1710
6.8000,1709
6.8028,1709
6.8056,1697
6.8083,1698
6.8111,1699
6.8139,1681
6.8167,1694
6.8194,1701
6.8222,1708
6.8250,1719
6.8278,1741
6.8306,1742
6.8333,1724
6.8361,1702
6.8389,1699
6.8417,1688
6.8444,1685
6.8472,1683
6.8500,1713
6.8528,1734
6.8556,1740
6.8583,1739
6.8611,1720
6.8639,1699
6.8667,1691
6.8694,1680
6.8722,1667
6.8750,1654
6.8778,1665
6.8806,1695
6.8833,1687
6.8861,1704
6.8889,1719
6.8917,1730
6.8944,1719
6.8972,1694
6.9000,1687
6.9028,1679
6.9056,1659
6.9083,1668
6.9111,1679
6.9139,1689
6.9167,1708
6.9194,1725
6.9222,1711
6.9250,1692
6.9278,1706
6.9306,1719
6.9333,1704
6.9361,1687
6.9389,1702
6.9417,1707
6.9444,1678
6.9472,1684
6.9500,1696
6.9528,1708
6.9556,1701
6.9583,1713
6.9611,1726
6.9639,1720
6.9667,1731
6.9694,1750
6.9722,1736
6.9750,1725
6.9778,1725
6.9806,1747
6.9833,1766
6.9861,1790
6.9889,1803
6.9917,1783
6.9944,1761
6.9972,1731
7.0000,1761
7.0028,1789
7.0056,1800
7.0083,1820
7.0111,1830
7.0139,1826
7.0167,1820
7.0194,1823
7.0222,1785
7.0250,1745
7.0278,1716
7.0306,1706
7.0333,1686
7.0361,1674
7.0389,1673
7.0417,1674
7.0444,1664
7.0472,1656
7.0500,1678
7.0528,1666
7.0556,1644
7.0583,1651
7.0611,1650
7.0639,1645
7.0667,1647
7.0694,1653
7.0722,1652
7.0750,1659
7.0778,1655
7.0806,1665
7.0833,1656
7.0861,1637
7.0889,1608
7.0917,1618
7.0944,1622
7.0972,1640
7.1000,1657
7.1028,1637
7.1056,1598
7.1083,1562
7.1111,1572
7.1139,1587
7.1167,1618
7.1194,1666
7.1222,1721
7.1250,1789
7.1278,1930
7.1306,2142
7.1333,2391
7.1361,2617
7.1389,2754
7.1417,2679
7.1444,2463
7.1472,2223
7.1500,2032
7.1528,1897
7.1556,1825
7.1583,1807
7.1611,1832
7.1639,1841
7.1667,1842
7.1694,1803
7.1722,1735
7.1750,1657
7.1778,1603
7.1806,1589
7.1833,1593
7.1861,1605
7.1889,1635
7.1917,1642
7.1944,1618
7.1972,1595
7.2000,1603
7.2028,1599
7.2056,1612
7.2083,1629
7.2111,1620
7.2139,1613
7.2167,1620
7.2194,1636
7.2222,1641
7.2250,1634
7.2278,1645
7.2306,1662
7.2333,1641
7.2361,1619
7.2389,1612
7.2417,1613
7.2444,1619
7.2472,1631
7.2500,1653
7.2528,1653
7.2556,1623
7.2583,1627
7.2611,1641
7.2639,1638
7.2667,1633
7.2694,1658
7.2722,1668
7.2750,1664
7.2778,1664
7.2806,1669
7.2833,1668
7.2861,1653
7.2889,1659
7.2917,1679
7.2944,1671
7.2972,1666
7.3000,1681
7.3028,1682
7.3056,1676
7.3083,1685
7.3111,1692
7.3139,1688
7.3167,1682
7.3194,1696
7.3222,1711
7.3250,1723
7.3278,1738
7.3306,1742
7.3333,1727
7.3361,1716
7.3389,1739
7.3417,1735
7.3444,1735
7.3472,1754
7.3500,1780
7.3528,1769
7.3556,1768
7.3583,1780
7.3611,1762
7.3639,1731
7.3667,1737
7.3694,1747
7.3722,1746
7.3750,1732
7.3778,1716
7.3806,1717
7.3833,1725
7.3861,1735
7.3889,1757
7.3917,1745
7.3944,1723
7.3972,1727
7.4000,1728
7.4028,1725
7.4056,1715
7.4083,1731
7.4111,1718
7.4139,1700
7.4167,1701
7.4194,1709
7.4222,1701
7.4250,1699
7.4278,1721
7.4306,1728
7.4333,1729
7.4361,1718
7.4389,1717
7.4417,1709
7.4444,1695
7.4472,1702
7.4500,1717
7.4528,1705
7.4556,1700
7.4583,1715
7.4611,1716
7.4639,1702
7.4667,1711
7.4694,1707
7.4722,1702
7.4750,1698
7.4778,1708
7.4806,1718
7.4833,1711
7.4861,1712
7.4889,1723
7.4917,1731
7.4944,1724
7.4972,1721
7.5000,1717
7.5028,1702
7.5056,1690
7.5083,1707
7.5111,1714
7.5139,1712
7.5167,1706
7.5194,1715
7.5222,1715
7.5250,1710
7.5278,1706
7.5306,1707
7.5333,1694
7.5361,1689
7.5389,1700
7.5417,1691
7.5444,1690
7.5472,1686
7.5500,1709
7.5528,1706
7.5556,1705
7.5583,1703
7.5611,1708
7.5639,1695
7.5667,1690
7.5694,1696
7.5722,1704
7.5750,1698
7.5778,1704
7.5806,1704
7.5833,1689
7.5861,1691
7.5889,1709
7.5917,1713
7.5944,1699
7.5972,1697
7.6000,1710
7.6028,1696
7.6056,1707
7.6083,1730
7.6111,1753
7.6139,1757
7.6167,1761
7.6194,1777
7.6222,1767
7.6250,1755
7.6278,1764
7.6306,1776
7.6333,1768
7.6361,1772
7.6389,1761
7.6417,1753
7.6444,1756
7.6472,1786
7.6500,1817
7.6528,1816
7.6556,1807
7.6583,1810
7.6611,1817
7.6639,1777
7.6667,1771
7.6694,1746
7.6722,1720
7.6750,1696
7.6778,1676
7.6806,1655
7.6833,1638
7.6861,1627
7.6889,1645
7.6917,1654
7.6944,1645
7.6972,1655
7.7000,1670
7.7028,1669
7.7056,1657
7.7083,1656
7.7111,1664
7.7139,1646
7.7167,1625
7.7194,1627
7.7222,1613
7.7250,1620
7.7278,1643
7.7306,1644
7.7333,1650
7.7361,1636
7.7389,1635
7.7417,1623
7.7444,1603
7.7472,1598
7.7500,1595
7.7528,1578
7.7556,1557
7.7583,1560
7.7611,1571
7.7639,1586
7.7667,1618
7.7694,1674
7.7722,1726
7.7750,1837
7.7778,2028
7.7806,2272
7.7833,2487
7.7861,2612
7.7889,2602
7.7917,2432
7.7944,2171
7.7972,1964
7.8000,1828
7.8028,1751
7.8056,1729
7.8083,1746
7.8111,1757
7.8139,1763
7.8167,1735
7.8194,1681
7.8222,1616
7.8250,1550
7.8278,1548
7.8306,1565
7.8333,1562
7.8361,1562
7.8389,1565
7.8417,1535
7.8444,1511
7.8472,1486
7.8500,1499
7.8528,1504
7.8556,1527
7.8583,1543
7.8611,1530
7.8639,1498
7.8667,1506
7.8694,1514
7.8722,1522
7.8750,1521
7.8778,1530
7.8806,1525
7.8833,1494
7.8861,1480
7.8889,1497
7.8917,1496
7.8944,1487
7.8972,1510
7.9000,1510
7.9028,1491
7.9056,1477
7.9083,1476
7.9111,1486
7.9139,1482
7.9167,1477
7.9194,1491
7.9222,1479
7.9250,1463
7.9278,1471
7.9306,1490
7.9333,1491
7.9361,1490
7.9389,1508
7.9417,1510
7.9444,1481
7.9472,1478
7.9500,1487
7.9528,1493
7.9556,1504
7.9583,1539
7.9611,1547
7.9639,1520
7.9667,1500
7.9694,1502
7.9722,1492
7.9750,1490
7.9778,1531
7.9806,1528
7.9833,1498
7.9861,1486
7.9889,1488
7.9917,1491
7.9944,1511
7.9972,1512
8.0000,1517
8.0028,1513
8.0056,1506
8.0083,1518
8.0111,1537
8.0139,1532
8.0167,1513
8.0194,1484
8.0222,1457
8.0250,1455
8.0278,1470
8.0306,1472
8.0333,1449
8.0361,1456
8.0389,1475
8.0417,1480
8.0444,1480
8.0472,1476
8.0500,1484
8.0528,1476
8.0556,1490
8.0583,1516
8.0611,1502
8.0639,1464
8.0667,1427
8.0694,1431
8.0722,1462
8.0750,1484
8.0778,1499
8.0806,1484
8.0833,1504
8.0861,1500
8.0889,1511
8.0917,1489
8.0944,1463
8.0972,1437
8.1000,1422
8.1028,1415
8.1056,1448
8.1083,1510
8.1111,1535
8.1139,1549
8.1167,1547
8.1194,1533
8.1222,1500
8.1250,1472
8.1278,1465
8.1306,1461
8.1333,1453
8.1361,1451
8.1389,1445
8.1417,1441
8.1444,1448
8.1472,1461
8.1500,1479
8.1528,1478
8.1556,1464
8.1583,1458
8.1611,1447
8.1639,1423
8.1667,1422
8.1694,1422
8.1722,1441
8.1750,1460
8.1778,1475
8.1806,1471
8.1833,1432
8.1861,1425
8.1889,1425
8.1917,1422
8.1944,1411
8.1972,1434
8.2000,1450
8.2028,1436
8.2056,1437
8.2083,1433
8.2111,1420
8.2139,1425
8.2167,1439
8.2194,1450
8.2222,1437
8.2250,1434
8.2278,1453
8.2306,1462
8.2333,1453
8.2361,1452
8.2389,1465
8.2417,1470
8.2444,1475
8.2472,1460
8.2500,1443
8.2528,1451
8.2556,1435
8.2583,1448
8.2611,1457
8.2639,1442
8.2667,1452
8.2694,1460
8.2722,1413
8.2750,1369
8.2778,1339
8.2806,1305
8.2833,1269
8.2861,1231
8.2889,1227
8.2917,1222
8.2944,1222
8.2972,1237
8.3000,1252
8.3028,1259
8.3056,1271
8.3083,1252
8.3111,1238
8.3139,1221
8.3167,1238
8.3194,1265
8.3222,1269
8.3250,1282
8.3278,1294
8.3306,1283
8.3333,1249
8.3361,1230
8.3389,1221
8.3417,1221
8.3444,1219
8.3472,1224
8.3500,1232
8.3528,1229
8.3556,1217
8.3583,1221
8.3611,1200
8.3639,1188
8.3667,1203
8.3694,1217
8.3722,1242
8.3750,1286
8.3778,1357
8.3806,1461
8.3833,1613
8.3861,1847
8.3889,2111
8.3917,2314
8.3944,2383
8.3972,2283
8.4000,2056
8.4028,1788
8.4056,1595
8.4083,1497
8.4111,1457
8.4139,1442
8.4167,1462
8.4194,1478
8.4222,1463
8.4250,1435
8.4278,1384
8.4306,1321
8.4333,1264
8.4361,1250
8.4389,1268
8.4417,1265
8.4444,1284
8.4472,1292
8.4500,1292
8.4528,1253
8.4556,1230
8.4583,1249
8.4611,1268
8.4639,1292
8.4667,1308
8.4694,1306
8.4722,1285
8.4750,1237
8.4778,1226
8.4806,1228
8.4833,1248
8.4861,1283
8.4889,1305
8.4917,1293
8.4944,1298
8.4972,1337
8.5000,1367
8.5028,1376
8.5056,1387
8.5083,1385
8.5111,1365
8.5139,1355
8.5167,1360
8.5194,1373
8.5222,1374
8.5250,1365
8.5278,1367
8.5306,1371
8.5333,1385
8.5361,1399
8.5389,1427
8.5417,1434
8.5444,1430
8.5472,1419
8.5500,1413
8.5528,1401
8.5556,1402
8.5583,1413
8.5611,1433
8.5639,1435
8.5667,1447
8.5694,1457
8.5722,1458
8.5750,1445
8.5778,1459
8.5806,1469
8.5833,1552
8.5861,1571
8.5889,1603
8.5917,1601
8.5944,1606
8.5972,1604
8.6000,1595
8.6028,1576
8.6056,1582
8.6083,1591
8.6111,1579
8.6139,1582
8.6167,1597
8.6194,1617
8.6222,1592
8.6250,1573
8.6278,1560
8.6306,1562
8.6333,1571
8.6361,1576
8.6389,1590
8.6417,1581
8.6444,1547
8.6472,1540
8.6500,1525
8.6528,1549
8.6556,1554
8.6583,1551
8.6611,1566
8.6639,1582
8.6667,1602
8.6694,1617
8.6722,1625
8.6750,1630
8.6778,1633
8.6806,1624
8.6833,1616
8.6861,1616
8.6889,1624
8.6917,1616
8.6944,1604
8.6972,1610
8.7000,1614
8.7028,1617
8.7056,1618
8.7083,1633
8.7111,1624
8.7139,1623
8.7167,1620
8.7194,1632
8.7222,1626
8.7250,1615
8.7278,1601
8.7306,1585
8.7333,1564
8.7361,1565
8.7389,1570
8.7417,1581
8.7444,1583
8.7472,1595
8.7500,1581
8.7528,1567
8.7556,1568
8.7583,1572
8.7611,1578
8.7639,1592
8.7667,1611
8.7694,1622
8.7722,1610
8.7750,1599
8.7778,1606
8.7806,1579
8.7833,1543
8.7861,1526
8.7889,1533
8.7917,1531
8.7944,1545
8.7972,1580
8.8000,1610
8.8028,1611
8.8056,1611
8.8083,1612
8.8111,1573
8.8139,1519
8.8167,1486
8.8194,1495
8.8222,1512
8.8250,1550
8.8278,1619
8.8306,1687
8.8333,1724
8.8361,1735
8.8389,1728
8.8417,1709
8.8444,1690
8.8472,1674
8.8500,1666
8.8528,1670
8.8556,1688
8.8583,1704
8.8611,1715
8.8639,1693
8.8667,1666
8.8694,1641
8.8722,1649
8.8750,1654
8.8778,1651
8.8806,1606
8.8833,1509
8.8861,1405
8.8889,1382
8.8917,1458
8.8944,1500
8.8972,1469
8.9000,1453
8.9028,1485
8.9056,1530
8.9083,1592
8.9111,1618
8.9139,1590
8.9167,1596
8.9194,1624
8.9222,1616
8.9250,1592
8.9278,1543
8.9306,1481
8.9333,1440
8.9361,1469
8.9389,1551
8.9417,1637
8.9444,1716
8.9472,1741
8.9500,1725
8.9528,1668
8.9556,1577
8.9583,1518
8.9611,1518
8.9639,1538
8.9667,1525
8.9694,1458
8.9722,1426
8.9750,1437
8.9778,1525
8.9806,1587
8.9833,1671
8.9861,1735
8.9889,1808
8.9917,1911
8.9944,2111
8.9972,2371
9.0000,2621
9.0028,2756
9.0056,2725
9.0083,2520
9.0111,2237
9.0139,2013
9.0167,1863
9.0194,1766
9.0222,1724
9.0250,1747
9.0278,1796
9.0306,1808
9.0333,1770
9.0361,1680
9.0389,1593
9.0417,1531
9.0444,1508
9.0472,1544
9.0500,1581
9.0528,1628
9.0556,1665
9.0583,1670
9.0611,1647
9.0639,1605
9.0667,1637
9.0694,1649
9.0722,1647
9.0750,1642
9.0778,1634
9.0806,1607
9.0833,1590
9.0861,1617
9.0889,1668
9.0917,1677
9.0944,1654
9.0972,1656
9.1000,1613
9.1028,1588
9.1056,1603
9.1083,1654
9.1111,1687
9.1139,1673
9.1167,1665
9.1194,1667
9.1222,1670
9.1250,1678
9.1278,1686
9.1306,1694
9.1333,1704
9.1361,1702
9.1389,1705
9.1417,1688
9.1444,1687
9.1472,1683
9.1500,1669
9.1528,1649
9.1556,1656
9.1583,1664
9.1611,1636
9.1639,1636
9.1667,1700
9.1694,1728
9.1722,1697
9.1750,1712
9.1778,1752
9.1806,1793
9.1833,1801
9.1861,1823
9.1889,1840
9.1917,1843
9.1944,1760
9.1972,1744
9.2000,1682
9.2028,1634
9.2056,1689
9.2083,1814
9.2111,1922
9.2139,1969
9.2167,1972
9.2194,1917
9.2222,1869
9.2250,1861
9.2278,1862
9.2306,1848
9.2333,1837
9.2361,1838
9.2389,1846
9.2417,1857
9.2444,1855
9.2472,1851
9.2500,1832
9.2528,1807
9.2556,1789
9.2583,1792
9.2611,1775
9.2639,1761
9.2667,1747
9.2694,1731
9.2722,1734
9.2750,1773
9.2778,1827
9.2806,1836
9.2833,1801
9.2861,1769
9.2889,1767
9.2917,1789
9.2944,1828
9.2972,1854
9.3000,1842
9.3028,1798
9.3056,1779
9.3083,1790
9.3111,1789
9.3139,1774
9.3167,1780
9.3194,1802
9.3222,1833
9.3250,1859
9.3278,1884
9.3306,1862
9.3333,1821
9.3361,1791
9.3389,1759
9.3417,1719
9.3444,1713
9.3472,1756
9.3500,1781
9.3528,1764
9.3556,1768
9.3583,1784
9.3611,1731
9.3639,1694
9.3667,1690
9.3694,1719
9.3722,1780
9.3750,1813
9.3778,1798
9.3806,1776
9.3833,1794
9.3861,1841
9.3889,1888
9.3917,1897
9.3944,1853
9.3972,1816
9.4000,1808
9.4028,1809
9.4056,1826
9.4083,1851
9.4111,1862
9.4139,1866
9.4167,1885
9.4194,1867
9.4222,1840
9.4250,1831
9.4278,1852
9.4306,1887
9.4333,1907
9.4361,1903
9.4389,1897
9.4417,1903
9.4444,1918
9.4472,1919
9.4500,1905
9.4528,1911
9.4556,1894
9.4583,1901
9.4611,1902
9.4639,1905
9.4667,1923
9.4694,1938
9.4722,1942
9.4750,1953
9.4778,1968
9.4806,1943
9.4833,1897
9.4861,1841
9.4889,1815
9.4917,1790
9.4944,1777
9.4972,1794
9.5000,1801
9.5028,1796
9.5056,1789
9.5083,1763
9.5111,1740
9.5139,1735
9.5167,1758
9.5194,1781
9.5222,1800
9.5250,1793
9.5278,1791
9.5306,1769
9.5333,1790
9.5361,1790
9.5389,1808
9.5417,1800
9.5444,1797
9.5472,1802
9.5500,1820
9.5528,1841
9.5556,1826
9.5583,1826
9.5611,1805
9.5639,1789
9.5667,1787
9.5694,1792
9.5722,1771
9.5750,1744
9.5778,1728
9.5806,1686
9.5833,1671
9.5861,1714
9.5889,1790
9.5917,1952
9.5944,2172
9.5972,2443
9.6000,2726
9.6028,2957
9.6056,3017
9.6083,2871
9.6111,2557
9.6139,2225
9.6167,2007
9.6194,1921
9.6222,1924
9.6250,1978
9.6278,2025
9.6306,2051
9.6333,2052
9.6361,2031
9.6389,1951
9.6417,1863
9.6444,1826
9.6472,1823
9.6500,1813
9.6528,1821
9.6556,1834
9.6583,1859
9.6611,1845
9.6639,1826
9.6667,1805
9.6694,1814
9.6722,1809
9.6750,1804
9.6778,1813
9.6806,1800
9.6833,1793
9.6861,1788
9.6889,1789
9.6917,1809
9.6944,1817
9.6972,1825
9.7000,1822
9.7028,1808
9.7056,1792
9.7083,1781
9.7111,1780
9.7139,1796
9.7167,1831
9.7194,1840
9.7222,1825
9.7250,1822
9.7278,1835
9.7306,1864
9.7333,1868
9.7361,1834
9.7389,1791
9.7417,1794
9.7444,1830
9.7472,1896
9.7500,1909
9.7528,1915
9.7556,1906
9.7583,1923
9.7611,1932
9.7639,1911
9.7667,1886
9.7694,1884
9.7722,1879
9.7750,1879
9.7778,1910
9.7806,1895
9.7833,1879
9.7861,1895
9.7889,1884
9.7917,1863
9.7944,1881
9.7972,1881
9.8000,1860
9.8028,1847
9.8056,1848
9.8083,1842
9.8111,1859
9.8139,1878
9.8167,1893
9.8194,1898
9.8222,1889
9.8250,1896
9.8278,1885
9.8306,1872
9.8333,1853
9.8361,1862
9.8389,1848
9.8417,1830
9.8444,1827
9.8472,1832
9.8500,1831
9.8528,1822
9.8556,1824
9.8583,1823
9.8611,1808
9.8639,1801
9.8667,1818
9.8694,1824
9.8722,1819
9.8750,1807
9.8778,1803
9.8806,1794
9.8833,1776
9.8861,1789
9.8889,1801
9.8917,1798
9.8944,1797
9.8972,1805
9.9000,1814
9.9028,1811
9.9056,1818
9.9083,1813
9.9111,1809
9.9139,1808
9.9167,1817
9.9194,1810
9.9222,1800
9.9250,1807
9.9278,1815
9.9306,1807
9.9333,1799
9.9361,1810
9.9389,1797
9.9417,1781
9.9444,1778
9.9472,1791
9.9500,1793
9.9528,1794
9.9556,1803
9.9583,1799
9.9611,1791
9.9639,1763
9.9667,1760
9.9694,1753
9.9722,1750
9.9750,1778
9.9778,1806
9.9806,1780
9.9833,1767
9.9861,1757
9.9889,1767
9.9917,1767
9.9944,1763
9.9972,1768
10.0000,1767
10.0028,1765
10.0056,1771
10.0083,1782
10.0111,1776
10.0139,1789
10.0167,1804
10.0194,1795
10.0222,1787
10.0250,1813
10.0278,1821
10.0306,1843
10.0333,1845
10.0361,1848
10.0389,1855
10.0417,1839
10.0444,1847
10.0472,1846
10.0500,1848
10.0528,1845
10.0556,1852
10.0583,1867
10.0611,1860
10.0639,1861
10.0667,1869
10.0694,1871
10.0722,1865
10.0750,1853
10.0778,1835
10.0806,1788
10.0833,1756
10.0861,1751
10.0889,1738
10.0917,1732
10.0944,1735
10.0972,1729
10.1000,1719
10.1028,1704
10.1056,1714
10.1083,1719
10.1111,1710
10.1139,1716
10.1167,1724
10.1194,1721
10.1222,1725
10.1250,1729
10.1278,1748
10.1306,1741
10.1333,1742
10.1361,1741
10.1389,1731
10.1417,1728
10.1444,1722
10.1472,1729
10.1500,1731
10.1528,1724
10.1556,1750
10.1583,1737
10.1611,1726
10.1639,1712
10.1667,1693
10.1694,1662
10.1722,1645
10.1750,1673
10.1778,1712
10.1806,1755
10.1833,1804
10.1861,1885
10.1889,2027
10.1917,2228
10.1944,2474
10.1972,2691
10.2000,2747
10.2028,2633
10.2056,2401
10.2083,2170
10.2111,1988
10.2139,1895
10.2167,1864
10.2194,1866
10.2222,1885
10.2250,1914
10.2278,1912
10.2306,1866
10.2333,1791
10.2361,1742
10.2389,1716
10.2417,1709
10.2444,1727
10.2472,1754
10.2500,1755
10.2528,1737
10.2556,1721
10.2583,1712
10.2611,1690
10.2639,1680
10.2667,1700
10.2694,1713
10.2722,1722
10.2750,1740
10.2778,1744
10.2806,1721
10.2833,1710
10.2861,1720
10.2889,1727
10.2917,1731
10.2944,1732
10.2972,1742
10.3000,1731
10.3028,1726
10.3056,1735
10.3083,1744
10.3111,1743
10.3139,1724
10.3167,1717
10.3194,1727
10.3222,1717
10.3250,1744
10.3278,1774
10.3306,1785
10.3333,1785
10.3361,1789
10.3389,1764
10.3417,1749
10.3444,1751
10.3472,1764
10.3500,1757
10.3528,1757
10.3556,1768
10.3583,1780
10.3611,1776
10.3639,1772
10.3667,1771
10.3694,1784
10.3722,1778
10.3750,1790
10.3778,1798
10.3806,1798
10.3833,1805
10.3861,1800
10.3889,1784
10.3917,1785
10.3944,1786
10.3972,1794
10.4000,1781
10.4028,1793
10.4056,1830
10.4083,1831
10.4111,1814
10.4139,1789
10.4167,1769
10.4194,1744
10.4222,1725
10.4250,1734
10.4278,1763
10.4306,1765
10.4333,1765
10.4361,1764
10.4389,1752
10.4417,1730
10.4444,1728
10.4472,1749
10.4500,1746
10.4528,1727
10.4556,1710
10.4583,1700
10.4611,1667
10.4639,1687
10.4667,1709
10.4694,1718
10.4722,1711
10.4750,1720
10.4778,1708
10.4806,1683
10.4833,1688
10.4861,1711
10.4889,1703
10.4917,1708
10.4944,1699
10.4972,1711
10.5000,1698
10.5028,1699
10.5056,1717
10.5083,1720
10.5111,1697
10.5139,1697
10.5167,1701
10.5194,1709
10.5222,1688
10.5250,1697
10.5278,1688
10.5306,1689
10.5333,1685
10.5361,1690
10.5389,1674
10.5417,1668
10.5444,1680
10.5472,1681
10.5500,1688
10.5528,1685
10.5556,1686
10.5583,1699
10.5611,1681
10.5639,1684
10.5667,1698
10.5694,1693
10.5722,1692
10.5750,1704
10.5778,1699
10.5806,1677
10.5833,1674
10.5861,1678
10.5889,1676
10.5917,1666
10.5944,1676
10.5972,1673
10.6000,1667
10.6028,1663
10.6056,1669
10.6083,1674
10.6111,1675
10.6139,1687
10.6167,1717
10.6194,1736
10.6222,1739
10.6250,1756
10.6278,1772
10.6306,1763
10.6333,1752
10.6361,1755
10.6389,1741
10.6417,1733
10.6444,1729
10.6472,1748
10.6500,1751
10.6528,1749
10.6556,1766
10.6583,1765
10.6611,1765
10.6639,1778
10.6667,1793
10.6694,1790
10.6722,1762
10.6750,1738
10.6778,1716
10.6806,1687
10.6833,1663
10.6861,1658
10.6889,1643
10.6917,1641
10.6944,1639
10.6972,1637
10.7000,1631
10.7028,1630
10.7056,1639
10.7083,1640
10.7111,1632
10.7139,1627
10.7167,1639
10.7194,1620
10.7222,1629
10.7250,1652
10.7278,1655
10.7306,1636
10.7333,1622
10.7361,1631
10.7389,1627
10.7417,1631
10.7444,1653
10.7472,1655
10.7500,1641
10.7528,1643
10.7556,1651
10.7583,1629
10.7611,1603
10.7639,1576
10.7667,1580
10.7694,1597
10.7722,1620
10.7750,1660
10.7778,1719
10.7806,1762
10.7833,1869
10.7861,2062
10.7889,2290
10.7917,2507
10.7944,2633
10.7972,2579
10.8000,2379
10.8028,2136
10.8056,1966
10.8083,1850
10.8111,1797
10.8139,1781
10.8167,1803
10.8194,1817
10.8222,1829
10.8250,1815
10.8278,1778
10.8306,1714
10.8333,1678
10.8361,1669
10.8389,1659
10.8417,1644
10.8444,1660
10.8472,1681
10.8500,1662
10.8528,1647
10.8556,1643
10.8583,1640
10.8611,1642
10.8639,1643
10.8667,1668
10.8694,1657
10.8722,1645
10.8750,1643
10.8778,1653
10.8806,1667
10.8833,1686
10.8861,1699
10.8889,1683
10.8917,1662
10.8944,1657
10.8972,1653
10.9000,1653
10.9028,1647
10.9056,1665
10.9083,1675
10.9111,1674
10.9139,1679
10.9167,1691
10.9194,1686
10.9222,1693
10.9250,1711
10.9278,1726
10.9306,1709
10.9333,1705
10.9361,1712
10.9389,1724
10.9417,1712
10.9444,1732
10.9472,1752
10.9500,1733
10.9528,1714
10.9556,1702
10.9583,1732
10.9611,1751
10.9639,1765
10.9667,1787
10.9694,1783
10.9722,1762
10.9750,1752
10.9778,1760
10.9806,1761
10.9833,1775
10.9861,1791
10.9889,1769
10.9917,1763
10.9944,1760
10.9972,1778
11.0000,1787
11.0028,1798
11.0056,1810
11.0083,1802
11.0111,1788
11.0139,1788
11.0167,1789
11.0194,1794
11.0222,1790
11.0250,1783
11.0278,1760
11.0306,1735
11.0333,1734
11.0361,1724
11.0389,1723
11.0417,1731
11.0444,1749
11.0472,1757
11.0500,1741
11.0528,1730
11.0556,1734
11.0583,1734
11.0611,1730
11.0639,1732
11.0667,1737
11.0694,1719
11.0722,1719
11.0750,1717
11.0778,1727
11.0806,1727
11.0833,1729
11.0861,1739
11.0889,1735
11.0917,1724
11.0944,1731
11.0972,1745
11.1000,1729
11.1028,1739
11.1056,1751
11.1083,1749
11.1111,1725
11.1139,1732
11.1167,1741
11.1194,1735
11.1222,1733
11.1250,1736
11.1278,1736
11.1306,1719
11.1333,1715
11.1361,1720
11.1389,1723
11.1417,1731
11.1444,1753
11.1472,1761
11.1500,1763
11.1528,1755
11.1556,1759
11.1583,1740
11.1611,1726
11.1639,1724
11.1667,1719
11.1694,1725
11.1722,1724
11.1750,1730
11.1778,1735
11.1806,1731
11.1833,1726
11.1861,1739
11.1889,1738
11.1917,1737
11.1944,1733
11.1972,1724
11.2000,1698
11.2028,1704
11.2056,1725
11.2083,1737
11.2111,1755
11.2139,1773
11.2167,1797
11.2194,1793
11.2222,1780
11.2250,1783
11.2278,1802
11.2306,1800
11.2333,1800
11.2361,1803
11.2389,1800
11.2417,1789
11.2444,1804
11.2472,1820
11.2500,1821
11.2528,1826
11.2556,1835
11.2583,1833
11.2611,1827
11.2639,1835
11.2667,1839
11.2694,1807
11.2722,1767
11.2750,1745
11.2778,1723
11.2806,1697
11.2833,1681
11.2861,1689
11.2889,1668
11.2917,1662
11.2944,1684
11.2972,1688
11.3000,1686
11.3028,1690
11.3056,1691
11.3083,1689
11.3111,1668
11.3139,1677
11.3167,1697
11.3194,1688
11.3222,1689
11.3250,1683
11.3278,1679
11.3306,1661
11.3333,1676
11.3361,1691
11.3389,1689
11.3417,1684
11.3444,1701
11.3472,1696
11.3500,1687
11.3528,1682
11.3556,1674
11.3583,1649
11.3611,1615
11.3639,1613
11.3667,1637
11.3694,1668
11.3722,1702
11.3750,1754
11.3778,1835
11.3806,1929
11.3833,2112
11.3861,2337
11.3889,2533
11.3917,2647
11.3944,2603
11.3972,2412
11.4000,2171
11.4028,1995
11.4056,1890
11.4083,1831
11.4111,1817
11.4139,1839
11.4167,1864
11.4194,1872
11.4222,1848
11.4250,1797
11.4278,1728
11.4306,1682
11.4333,1672
11.4361,1675
11.4389,1686
11.4417,1687
11.4444,1691
11.4472,1684
11.4500,1668
11.4528,1659
11.4556,1675
11.4583,1673
11.4611,1678
11.4639,1686
11.4667,1688
11.4694,1665
11.4722,1654
11.4750,1656
11.4778,1667
11.4806,1679
11.4833,1693
11.4861,1700
11.4889,1694
11.4917,1688
11.4944,1694
11.4972,1692
11.5000,1688
11.5028,1687
11.5056,1689
11.5083,1691
11.5111,1684
11.5139,1693
11.5167,1720
11.5194,1716
11.5222,1722
11.5250,1732
11.5278,1742
11.5306,1729
11.5333,1713
11.5361,1714
11.5389,1728
11.5417,1714
11.5444,1731
11.5472,1739
11.5500,1730
11.5528,1728
11.5556,1747
11.5583,1748
11.5611,1747
11.5639,1752
11.5667,1762
11.5694,1745
11.5722,1734
11.5750,1750
11.5778,1759
11.5806,1775
11.5833,1782
11.5861,1786
11.5889,1781
11.5917,1755
11.5944,1740
11.5972,1742
11.6000,1734
11.6028,1739
11.6056,1759
11.6083,1761
11.6111,1753
11.6139,1771
11.6167,1774
11.6194,1768
11.6222,1767
11.6250,1766
11.6278,1737
11.6306,1715
11.6333,1705
11.6361,1701
11.6389,1704
11.6417,1700
11.6444,1698
11.6472,1677
11.6500,1665
11.6528,1671
11.6556,1675
11.6583,1670
11.6611,1675
11.6639,1687
11.6667,1699
11.6694,1685
11.6722,1687
11.6750,1693
11.6778,1694
11.6806,1688
11.6833,1698
11.6861,1699
11.6889,1685
11.6917,1683
11.6944,1693
11.6972,1685
11.7000,1684
11.7028,1685
11.7056,1703
11.7083,1694
11.7111,1686
11.7139,1679
11.7167,1676
11.7194,1676
11.7222,1684
11.7250,1691
11.7278,1705
11.7306,1698
11.7333,1692
11.7361,1691
11.7389,1665
11.7417,1661
11.7444,1672
11.7472,1695
11.7500,1675
11.7528,1676
11.7556,1686
11.7583,1684
11.7611,1682
11.7639,1698
11.7667,1696
11.7694,1685
11.7722,1676
11.7750,1685
11.7778,1679
11.7806,1669
11.7833,1667
11.7861,1685
11.7889,1665
11.7917,1667
11.7944,1668
11.7972,1677
11.8000,1669
11.8028,1670
11.8056,1676
11.8083,1665
11.8111,1656
11.8139,1657
11.8167,1674
11.8194,1672
11.8222,1689
11.8250,1724
11.8278,1725
11.8306,1728
11.8333,1739
11.8361,1756
11.8389,1741
11.8417,1749
11.8444,1766
11.8472,1755
11.8500,1728
11.8528,1732
11.8556,1730
11.8583,1736
11.8611,1751
11.8639,1765
11.8667,1759
11.8694,1753
11.8722,1752
11.8750,1760
11.8778,1754
11.8806,1721
11.8833,1702
11.8861,1705
11.8889,1692
11.8917,1676
11.8944,1666
11.8972,1638
11.9000,1607
11.9028,1586
11.9056,1594
11.9083,1573
11.9111,1549
11.9139,1538
11.9167,1567
11.9194,1598
11.9222,1633
11.9250,1677
11.9278,1690
11.9306,1683
11.9333,1669
11.9361,1655
11.9389,1651
11.9417,1660
11.9444,1680
11.9472,1698
11.9500,1684
11.9528,1682
11.9556,1685
11.9583,1668
11.9611,1663
11.9639,1657
11.9667,1656
11.9694,1631
11.9722,1613
11.9750,1609
11.9778,1602
11.9806,1613
11.9833,1648
11.9861,1691
11.9889,1741
11.9917,1833
11.9944,1996
11.9972,2210
12.0000,2440
12.0028,2607
12.0056,2660
12.0083,2524
12.0111,2286
12.0139,2063
12.0167,1921
12.0194,1827
12.0222,1795
12.0250,1797
12.0278,1826
12.0306,1843
12.0333,1841
12.0361,1822
12.0389,1754
12.0417,1692
12.0444,1664
12.0472,1659
12.0500,1673
12.0528,1699
12.0556,1724
12.0583,1709
12.0611,1683
12.0639,1661
12.0667,1658
12.0694,1657
12.0722,1665
12.0750,1694
12.0778,1688
12.0806,1668
12.0833,1662
12.0861,1661
12.0889,1656
12.0917,1663
12.0944,1686
12.0972,1687
12.1000,1671
12.1028,1661
12.1056,1657
12.1083,1674
12.1111,1680
12.1139,1702
12.1167,1709
12.1194,1702
12.1222,1687
12.1250,1699
12.1278,1708
12.1306,1704
12.1333,1706
12.1361,1713
12.1389,1704
12.1417,1706
12.1444,1716
12.1472,1725
12.1500,1727
12.1528,1747
12.1556,1745
12.1583,1738
12.1611,1721
12.1639,1726
12.1667,1731
12.1694,1732
12.1722,1736
12.1750,1750
12.1778,1758
12.1806,1746
12.1833,1747
12.1861,1752
12.1889,1743
12.1917,1749
12.1944,1729
12.1972,1736
12.2000,1709
12.2028,1715
12.2056,1727
12.2083,1732
12.2111,1741
12.2139,1761
12.2167,1753
12.2194,1744
12.2222,1739
12.2250,1753
12.2278,1743
12.2306,1741
12.2333,1745
12.2361,1745
12.2389,1713
12.2417,1696
12.2444,1692
12.2472,1686
12.2500,1684
12.2528,1696
12.2556,1687
12.2583,1673
12.2611,1652
12.2639,1657
12.2667,1665
12.2694,1651
12.2722,1639
12.2750,1645
12.2778,1642
12.2806,1648
12.2833,1660
12.2861,1652
12.2889,1643
12.2917,1636
12.2944,1656
12.2972,1659
12.3000,1655
12.3028,1667
12.3056,1685
12.3083,1682
12.3111,1685
12.3139,1691
12.3167,1680
12.3194,1658
12.3222,1658
12.3250,1670
12.3278,1659
12.3306,1662
12.3333,1682
12.3361,1688
12.3389,1676
12.3417,1681
12.3444,1688
12.3472,1665
12.3500,1649
12.3528,1661
12.3556,1664
12.3583,1656
12.3611,1657
12.3639,1671
12.3667,1675
12.3694,1664
12.3722,1660
12.3750,1671
12.3778,1661
12.3806,1639
12.3833,1639
12.3861,1650
12.3889,1650
12.3917,1662
12.3944,1682
12.3972,1695
12.4000,1678
12.4028,1666
12.4056,1655
12.4083,1633
12.4111,1635
12.4139,1657
12.4167,1668
12.4194,1664
12.4222,1682
12.4250,1689
12.4278,1675
12.4306,1654
12.4333,1658
12.4361,1655
12.4389,1635
12.4417,1641
12.4444,1662
12.4472,1668
12.4500,1672
12.4528,1692
12.4556,1707
12.4583,1704
12.4611,1711
12.4639,1723
12.4667,1735
12.4694,1729
12.4722,1728
12.4750,1739
12.4778,1743
12.4806,1730
12.4833,1752
12.4861,1764
12.4889,1755
12.4917,1758
12.4944,1761
12.4972,1750
12.5000,1741
12.5028,1748
12.5056,1774
12.5083,1774
12.5111,1752
12.5139,1743
12.5167,1725
12.5194,1690
12.5222,1662
12.5250,1645
12.5278,1618
12.5306,1606
12.5333,1617
12.5361,1618
12.5389,1617
12.5417,1615
12.5444,1628
12.5472,1623
12.5500,1619
12.5528,1623
12.5556,1630
12.5583,1620
12.5611,1619
12.5639,1616
12.5667,1619
12.5694,1605
12.5722,1616
12.5750,1630
12.5778,1641
12.5806,1640
12.5833,1642
12.5861,1647
12.5889,1626
12.5917,1632
12.5944,1641
12.5972,1636
12.6000,1616
12.6028,1577
12.6056,1562
12.6083,1544
12.6111,1574
12.6139,1628
12.6167,1698
12.6194,1767
12.6222,1885
12.6250,2077
12.6278,2306
12.6306,2523
12.6333,2697
12.6361,2711
12.6389,2527
12.6417,2268
12.6444,2037
12.6472,1868
12.6500,1782
12.6528,1781
12.6556,1829
12.6583,1843
12.6611,1845
12.6639,1827
12.6667,1776
12.6694,1697
12.6722,1653
12.6750,1632
12.6778,1618
12.6806,1624
12.6833,1642
12.6861,1653
12.6889,1649
12.6917,1639
12.6944,1633
12.6972,1624
12.7000,1629
12.7028,1648
12.7056,1658
12.7083,1647
12.7111,1645
12.7139,1638
12.7167,1636
12.7194,1619
12.7222,1615
12.7250,1631
12.7278,1642
12.7306,1653
12.7333,1664
12.7361,1668
12.7389,1638
12.7417,1648
12.7444,1660
12.7472,1670
12.7500,1668
12.7528,1676
12.7556,1675
12.7583,1666
12.7611,1680
12.7639,1688
12.7667,1684
12.7694,1668
12.7722,1659
12.7750,1656
12.7778,1670
12.7806,1682
12.7833,1706
12.7861,1718
12.7889,1705
12.7917,1695
12.7944,1714
12.7972,1721
12.8000,1712
12.8028,1716
12.8056,1721
12.8083,1722
12.8111,1715
12.8139,1720
12.8167,1714
12.8194,1731
12.8222,1746
12.8250,1762
12.8278,1751
12.8306,1745
12.8333,1747
12.8361,1750
12.8389,1752
12.8417,1760
12.8444,1780
12.8472,1784
12.8500,1768
12.8528,1758
12.8556,1729
12.8583,1700
12.8611,1703
12.8639,1712
12.8667,1717
12.8694,1709
12.8722,1715
12.8750,1707
12.8778,1684
12.8806,1679
12.8833,1700
12.8861,1692
12.8889,1681
12.8917,1672
12.8944,1673
12.8972,1663
12.9000,1660
12.9028,1677
12.9056,1695
12.9083,1687
12.9111,1682
12.9139,1683
12.9167,1666
12.9194,1665
12.9222,1679
12.9250,1688
12.9278,1686
12.9306,1681
12.9333,1679
12.9361,1675
12.9389,1676
12.9417,1679
12.9444,1704
12.9472,1705
12.9500,1691
12.9528,1686
12.9556,1686
12.9583,1677
12.9611,1665
12.9639,1685
12.9667,1683
12.9694,1671
12.9722,1673
12.9750,1671
12.9778,1669
12.9806,1674
12.9833,1692
12.9861,1691
12.9889,1685
12.9917,1691
12.9944,1695
12.9972,1698
13.0000,1679
13.0028,1691
13.0056,1685
13.0083,1683
13.0111,1683
13.0139,1682
13.0167,1685
13.0194,1687
13.0222,1693
13.0250,1708
13.0278,1695
13.0306,1682
13.0333,1677
13.0361,1671
13.0389,1666
13.0417,1675
13.0444,1695
13.0472,1700
13.0500,1678
13.0528,1678
13.0556,1666
13.0583,1673
13.0611,1670
13.0639,1681
13.0667,1690
13.0694,1678
13.0722,1670
13.0750,1674
13.0778,1660
13.0806,1643
13.0833,1667
13.0861,1697
13.0889,1726
13.0917,1746
13.0944,1767
13.0972,1765
13.1000,1759
13.1028,1767
13.1056,1768
13.1083,1754
13.1111,1739
13.1139,1735
13.1167,1727
13.1194,1732
13.1222,1771
13.1250,1797
13.1278,1801
13.1306,1784
13.1333,1801
13.1361,1794
13.1389,1778
13.1417,1778
13.1444,1769
13.1472,1738
13.1500,1699
13.1528,1674
13.1556,1667
13.1583,1649
13.1611,1638
13.1639,1639
13.1667,1634
13.1694,1631
13.1722,1638
13.1750,1651
13.1778,1644
13.1806,1639
13.1833,1636
13.1861,1632
13.1889,1625
13.1917,1631
13.1944,1646
13.1972,1655
13.2000,1647
13.2028,1652
13.2056,1654
13.2083,1642
13.2111,1633
13.2139,1646
13.2167,1633
13.2194,1633
13.2222,1646
13.2250,1666
13.2278,1658
13.2306,1645
13.2333,1627
13.2361,1593
13.2389,1562
13.2417,1581
13.2444,1629
13.2472,1671
13.2500,1706
13.2528,1766
13.2556,1876
13.2583,2049
13.2611,2295
13.2639,2546
13.2667,2727
13.2694,2738
13.2722,2578
13.2750,2338
13.2778,2071
13.2806,1885
13.2833,1823
13.2861,1794
13.2889,1812
13.2917,1847
13.2944,1861
13.2972,1837
13.3000,1760
13.3028,1686
13.3056,1631
13.3083,1612
13.3111,1619
13.3139,1641
13.3167,1658
13.3194,1664
13.3222,1661
13.3250,1656
13.3278,1634
13.3306,1621
13.3333,1641
13.3361,1652
13.3389,1653
13.3417,1651
13.3444,1655
13.3472,1652
13.3500,1639
13.3528,1647
13.3556,1666
13.3583,1658
13.3611,1658
13.3639,1650
13.3667,1630
13.3694,1629
13.3722,1642
13.3750,1653
13.3778,1659
13.3806,1671
13.3833,1668
13.3861,1656
13.3889,1657
13.3917,1652
13.3944,1677
13.3972,1682
13.4000,1701
13.4028,1699
13.4056,1684
13.4083,1660
13.4111,1673
13.4139,1685
13.4167,1697
13.4194,1702
13.4222,1701
13.4250,1707
13.4278,1705
13.4306,1707
13.4333,1727
13.4361,1728
13.4389,1730
13.4417,1734
13.4444,1735
13.4472,1728
13.4500,1724
13.4528,1737
13.4556,1748
13.4583,1749
13.4611,1757
13.4639,1781
13.4667,1768
13.4694,1758
13.4722,1757
13.4750,1750
13.4778,1751
13.4806,1744
13.4833,1758
13.4861,1744
13.4889,1747
13.4917,1751
13.4944,1747
13.4972,1740
13.5000,1735
13.5028,1726
13.5056,1707
13.5083,1699
13.5111,1692
13.5139,1697
13.5167,1684
13.5194,1678
13.5222,1687
13.5250,1695
13.5278,1679
13.5306,1692
13.5333,1693
13.5361,1681
13.5389,1663
13.5417,1650
13.5444,1653
13.5472,1647
13.5500,1643
13.5528,1664
13.5556,1672
13.5583,1681
13.5611,1690
13.5639,1702
13.5667,1697
13.5694,1686
13.5722,1686
13.5750,1698
13.5778,1702
13.5806,1691
13.5833,1698
13.5861,1689
13.5889,1677
13.5917,1679
13.5944,1700
13.5972,1709
13.6000,1712
13.6028,1714
13.6056,1705
13.6083,1683
13.6111,1677
13.6139,1690
13.6167,1677
13.6194,1681
13.6222,1684
13.6250,1688
13.6278,1673
13.6306,1668
13.6333,1677
13.6361,1679
13.6389,1677
13.6417,1678
13.6444,1690
13.6472,1679
13.6500,1677
13.6528,1688
13.6556,1684
13.6583,1689
13.6611,1696
13.6639,1707
13.6667,1693
13.6694,1684
13.6722,1680
13.6750,1687
13.6778,1686
13.6806,1701
13.6833,1716
13.6861,1698
13.6889,1686
13.6917,1695
13.6944,1708
13.6972,1692
13.7000,1689
13.7028,1683
13.7056,1672
13.7083,1654
13.7111,1656
13.7139,1680
13.7167,1686
13.7194,1686
13.7222,1703
13.7250,1701
13.7278,1687
13.7306,1684
13.7333,1692
13.7361,1698
13.7389,1693
13.7417,1703
13.7444,1707
13.7472,1700
13.7500,1685
13.7528,1685
13.7556,1679
13.7583,1676
13.7611,1705
13.7639,1732
13.7667,1756
13.7694,1762
13.7722,1771
13.7750,1779
13.7778,1780
13.7806,1789
13.7833,1788
13.7861,1783
13.7889,1773
13.7917,1778
13.7944,1775
13.7972,1769
13.8000,1776
13.8028,1794
13.8056,1795
13.8083,1790
13.8111,1801
13.8139,1827
13.8167,1801
13.8194,1766
13.8222,1739
13.8250,1724
13.8278,1703
13.8306,1681
13.8333,1681
13.8361,1670
13.8389,1649
13.8417,1654
13.8444,1661
13.8472,1652
13.8500,1650
13.8528,1661
13.8556,1654
13.8583,1641
13.8611,1657
13.8639,1675
13.8667,1675
13.8694,1665
13.8722,1669
13.8750,1674
13.8778,1666
13.8806,1652
13.8833,1654
13.8861,1659
13.8889,1649
13.8917,1660
13.8944,1675
13.8972,1659
13.9000,1639
13.9028,1653
13.9056,1644
13.9083,1626
13.9111,1601
13.9139,1604
13.9167,1614
13.9194,1650
13.9222,1715
13.9250,1785
13.9278,1861
13.9306,2004
13.9333,2224
13.9361,2468
13.9389,2675
13.9417,2765
13.9444,2672
13.9472,2431
13.9500,2167
13.9528,1980
13.9556,1862
13.9583,1818
13.9611,1825
13.9639,1847
13.9667,1860
13.9694,1843
13.9722,1802
13.9750,1760
13.9778,1704
13.9806,1674
13.9833,1659
13.9861,1647
13.9889,1653
13.9917,1666
13.9944,1676
13.9972,1644
14.0000,1643
14.0028,1662
14.0056,1671
14.0083,1678
14.0111,1674
14.0139,1681
14.0167,1666
14.0194,1654
14.0222,1648
14.0250,1664
14.0278,1672
14.0306,1682
14.0333,1700
14.0361,1683
14.0389,1661
14.0417,1661
14.0444,1676
14.0472,1689
14.0500,1701
14.0528,1716
14.0556,1708
14.0583,1689
14.0611,1678
14.0639,1681
14.0667,1691
14.0694,1709
14.0722,1729
14.0750,1735
14.0778,1711
14.0806,1707
14.0833,1703
14.0861,1704
14.0889,1710
14.0917,1724
14.0944,1740
14.0972,1733
14.1000,1735
14.1028,1743
14.1056,1745
14.1083,1740
14.1111,1729
14.1139,1744
14.1167,1748
14.1194,1746
14.1222,1759
14.1250,1766
14.1278,1761
14.1306,1792
14.1333,1784
14.1361,1770
14.1389,1757
14.1417,1765
14.1444,1768
14.1472,1764
14.1500,1771
14.1528,1776
14.1556,1762
14.1583,1743
14.1611,1739
14.1639,1744
14.1667,1737
14.1694,1740
14.1722,1743
14.1750,1749
14.1778,1737
14.1806,1739
14.1833,1742
14.1861,1721
14.1889,1702
14.1917,1676
14.1944,1664
14.1972,1651
14.2000,1657
14.2028,1690
14.2056,1716
14.2083,1722
14.2111,1730
14.2139,1731
14.2167,1704
14.2194,1701
14.2222,1696
14.2250,1702
14.2278,1695
14.2306,1703
14.2333,1699
14.2361,1684
14.2389,1671
14.2417,1685
14.2444,1696
14.2472,1701
14.2500,1707
14.2528,1722
14.2556,1709
14.2583,1685
14.2611,1683
14.2639,1692
14.2667,1688
14.2694,1695
14.2722,1711
14.2750,1702
14.2778,1690
14.2806,1680
14.2833,1681
14.2861,1692
14.2889,1701
14.2917,1725
14.2944,1731
14.2972,1711
14.3000,1706
14.3028,1697
14.3056,1687
14.3083,1684
14.3111,1695
14.3139,1705
14.3167,1705
14.3194,1694
14.3222,1706
14.3250,1711
14.3278,1702
14.3306,1701
14.3333,1706
14.3361,1688
14.3389,1671
14.3417,1688
14.3444,1696
14.3472,1711
14.3500,1713
14.3528,1720
14.3556,1706
14.3583,1683
14.3611,1678
14.3639,1682
14.3667,1681
14.3694,1686
14.3722,1694
14.3750,1691
14.3778,1679
14.3806,1685
14.3833,1689
14.3861,1683
14.3889,1685
14.3917,1690
14.3944,1694
14.3972,1685
14.4000,1688
14.4028,1701
14.4056,1701
14.4083,1695
14.4111,1695
14.4139,1704
14.4167,1686
14.4194,1671
14.4222,1685
14.4250,1693
14.4278,1681
14.4306,1689
14.4333,1710
14.4361,1674
14.4389,1679
14.4417,1681
14.4444,1676
14.4472,1678
14.4500,1691
14.4528,1704
14.4556,1693
14.4583,1683
14.4611,1691
14.4639,1701
14.4667,1688
14.4694,1697
14.4722,1715
14.4750,1723
14.4778,1739
14.4806,1752
14.4833,1770
14.4861,1769
14.4889,1779
14.4917,1793
14.4944,1796
14.4972,1774
14.5000,1749
14.5028,1739
14.5056,1742
14.5083,1749
14.5111,1781
14.5139,1820
14.5167,1822
14.5194,1817
14.5222,1820
14.5250,1800
14.5278,1768
14.5306,1747
14.5333,1731
14.5361,1715
14.5389,1694
14.5417,1685
14.5444,1663
14.5472,1650
14.5500,1646
14.5528,1652
14.5556,1648
14.5583,1638
14.5611,1648
14.5639,1659
14.5667,1653
14.5694,1654
14.5722,1664
14.5750,1666
14.5778,1653
14.5806,1650
14.5833,1652
14.5861,1645
14.5889,1639
14.5917,1658
14.5944,1671
14.5972,1660
14.6000,1661
14.6028,1662
14.6056,1663
14.6083,1653
14.6111,1660
14.6139,1661
14.6167,1637
14.6194,1617
14.6222,1592
14.6250,1579
14.6278,1602
14.6306,1652
14.6333,1719
14.6361,1762
14.6389,1803
14.6417,1910
14.6444,2119
14.6472,2350
14.6500,2593
14.6528,2751
14.6556,2726
14.6583,2513
14.6611,2260
14.6639,2035
14.6667,1881
14.6694,1806
14.6722,1808
14.6750,1836
14.6778,1862
14.6806,1853
14.6833,1836
14.6861,1761
14.6889,1689
14.6917,1654
14.6944,1638
14.6972,1642
14.7000,1663
14.7028,1680
14.7056,1669
14.7083,1639
14.7111,1627
14.7139,1636
14.7167,1637
14.7194,1648
14.7222,1660
14.7250,1667
14.7278,1650
14.7306,1642
14.7333,1639
14.7361,1645
14.7389,1649
14.7417,1676
14.7444,1685
14.7472,1658
14.7500,1643
14.7528,1646
14.7556,1647
14.7583,1637
14.7611,1661
14.7639,1680
14.7667,1682
14.7694,1675
14.7722,1679
14.7750,1679
14.7778,1672
14.7806,1683
14.7833,1695
14.7861,1697
14.7889,1689
14.7917,1684
14.7944,1684
14.7972,1680
14.8000,1693
14.8028,1710
14.8056,1717
14.8083,1709
14.8111,1708
14.8139,1702
14.8167,1717
14.8194,1713
14.8222,1735
14.8250,1743
14.8278,1734
14.8306,1724
14.8333,1743
14.8361,1742
14.8389,1744
14.8417,1757
14.8444,1779
14.8472,1766
14.8500,1747
14.8528,1746
14.8556,1743
14.8583,1733
14.8611,1754
14.8639,1771
14.8667,1759
14.8694,1731
14.8722,1744
14.8750,1747
14.8778,1744
14.8806,1763
14.8833,1774
14.8861,1753
14.8889,1729
14.8917,1720
14.8944,1704
14.8972,1683
14.9000,1691
14.9028,1694
14.9056,1695
14.9083,1692
14.9111,1687
14.9139,1682
14.9167,1653
14.9194,1636
14.9222,1661
14.9250,1681
14.9278,1687
14.9306,1703
14.9333,1700
14.9361,1686
14.9389,1681
14.9417,1691
14.9444,1704
14.9472,1681
14.9500,1675
14.9528,1688
14.9556,1684
14.9583,1684
14.9611,1701
14.9639,1696
14.9667,1681
14.9694,1667
14.9722,1679
14.9750,1681
14.9778,1688
14.9806,1707
14.9833,1717
14.9861,1699
14.9889,1671
14.9917,1674
14.9944,1672
14.9972,1673
15.0000,1690
15.0028,1701
15.0056,1697
15.0083,1688
15.0111,1685
15.0139,1687
15.0167,1678
15.0194,1681
15.0222,1706
15.0250,1698
15.0278,1686
15.0306,1675
15.0333,1671
15.0361,1654
15.0389,1641
15.0417,1668
15.0444,1672
15.0472,1678
15.0500,1685
15.0528,1688
15.0556,1682
15.0583,1672
15.0611,1677
15.0639,1674
15.0667,1661
15.0694,1670
15.0722,1686
15.0750,1687
15.0778,1679
15.0806,1674
15.0833,1681
15.0861,1675
15.0889,1674
15.0917,1672
15.0944,1662
15.0972,1655
15.1000,1680
15.1028,1692
15.1056,1686
15.1083,1692
15.1111,1686
15.1139,1679
15.1167,1669
15.1194,1672
15.1222,1685
15.1250,1670
15.1278,1649
15.1306,1661
15.1333,1658
15.1361,1652
15.1389,1648
15.1417,1679
15.1444,1699
15.1472,1693
15.1500,1695
15.1528,1688
15.1556,1680
15.1583,1685
15.1611,1697
15.1639,1697
15.1667,1676
15.1694,1650
15.1722,1664
15.1750,1667
15.1778,1670
15.1806,1684
15.1833,1705
15.1861,1707
15.1889,1700
15.1917,1700
15.1944,1707
15.1972,1684
15.2000,1665
15.2028,1674
15.2056,1654
15.2083,1652
15.2111,1658
15.2139,1676
15.2167,1683
15.2194,1687
15.2222,1710
15.2250,1717
15.2278,1711
15.2306,1716
15.2333,1738
15.2361,1742
15.2389,1747
15.2417,1754
15.2444,1764
15.2472,1763
15.2500,1764
15.2528,1767
15.2556,1768
15.2583,1757
15.2611,1753
15.2639,1756
15.2667,1765
15.2694,1779
15.2722,1799
15.2750,1806
15.2778,1797
15.2806,1796
15.2833,1795
15.2861,1766
15.2889,1732
15.2917,1711
15.2944,1702
15.2972,1685
15.3000,1669
15.3028,1684
15.3056,1671
15.3083,1666
15.3111,1663
15.3139,1657
15.3167,1642
15.3194,1628
15.3222,1638
15.3250,1655
15.3278,1656
15.3306,1657
15.3333,1670
15.3361,1659
15.3389,1638
15.3417,1648
15.3444,1664
15.3472,1662
15.3500,1670
15.3528,1688
15.3556,1673
15.3583,1658
15.3611,1659
15.3639,1664
15.3667,1644
15.3694,1642
15.3722,1644
15.3750,1623
15.3778,1605
15.3806,1617
15.3833,1659
15.3861,1697
15.3889,1730
15.3917,1771
15.3944,1842
15.3972,1998
15.4000,2230
15.4028,2489
15.4056,2682
15.4083,2730
15.4111,2612
15.4139,2385
15.4167,2125
15.4194,1944
15.4222,1854
15.4250,1817
15.4278,1810
15.4306,1842
15.4333,1862
15.4361,1831
15.4389,1778
15.4417,1731
15.4444,1686
15.4472,1646
15.4500,1650
15.4528,1663
15.4556,1668
15.4583,1658
15.4611,1656
15.4639,1643
15.4667,1615
15.4694,1599
15.4722,1624
15.4750,1655
15.4778,1668
15.4806,1688
15.4833,1682
15.4861,1653
15.4889,1630
15.4917,1639
15.4944,1661
15.4972,1674
15.5000,1681
15.5028,1679
15.5056,1663
15.5083,1639
15.5111,1652
15.5139,1668
15.5167,1685
15.5194,1697
15.5222,1689
15.5250,1671
15.5278,1662
15.5306,1667
15.5333,1693
15.5361,1700
15.5389,1708
15.5417,1718
15.5444,1704
15.5472,1692
15.5500,1687
15.5528,1704
15.5556,1703
15.5583,1703
15.5611,1706
15.5639,1704
15.5667,1698
15.5694,1699
15.5722,1718
15.5750,1738
15.5778,1731
15.5806,1734
15.5833,1735
15.5861,1731
15.5889,1730
15.5917,1746
15.5944,1759
15.5972,1745
15.6000,1756
15.6028,1768
15.6056,1751
15.6083,1758
15.6111,1756
15.6139,1755
15.6167,1739
15.6194,1751
15.6222,1764
15.6250,1766
15.6278,1766
15.6306,1763
15.6333,1766
15.6361,1752
15.6389,1753
15.6417,1753
15.6444,1758
15.6472,1742
15.6500,1734
15.6528,1727
15.6556,1713
15.6583,1710
15.6611,1703
15.6639,1690
15.6667,1665
15.6694,1664
15.6722,1682
15.6750,1680
15.6778,1687
15.6806,1694
15.6833,1700
15.6861,1688
15.6889,1687
15.6917,1691
15.6944,1690
15.6972,1684
15.7000,1703
15.7028,1714
15.7056,1703
15.7083,1698
15.7111,1680
15.7139,1667
15.7167,1666
15.7194,1677
15.7222,1673
15.7250,1676
15.7278,1670
15.7306,1692
15.7333,1685
15.7361,1668
15.7389,1669
15.7417,1689
15.7444,1696
15.7472,1689
15.7500,1700
15.7528,1698
15.7556,1699
15.7583,1695
15.7611,1703
15.7639,1701
15.7667,1689
15.7694,1682
15.7722,1681
15.7750,1681
15.7778,1664
15.7806,1668
15.7833,1692
15.7861,1687
15.7889,1678
15.7917,1686
15.7944,1685
15.7972,1691
15.8000,1696
15.8028,1703
15.8056,1684
15.8083,1666
15.8111,1679
15.8139,1674
15.8167,1667
15.8194,1668
15.8222,1675
15.8250,1664
15.8278,1664
15.8306,1685
15.8333,1695
15.8361,1691
15.8389,1693
15.8417,1704
15.8444,1692
15.8472,1683
15.8500,1687
15.8528,1679
15.8556,1670
15.8583,1666
15.8611,1675
15.8639,1683
15.8667,1683
15.8694,1672
15.8722,1677
15.8750,1660
15.8778,1657
15.8806,1671
15.8833,1691
15.8861,1678
15.8889,1683
15.8917,1699
15.8944,1702
15.8972,1699
15.9000,1702
15.9028,1698
15.9056,1694
15.9083,1693
15.9111,1695
15.9139,1697
15.9167,1678
15.9194,1669
15.9222,1680
15.9250,1678
15.9278,1675
15.9306,1685
15.9333,1696
15.9361,1685
15.9389,1691
15.9417,1708
15.9444,1702
15.9472,1685
15.9500,1668
15.9528,1680
15.9556,1678
15.9583,1681
15.9611,1694
15.9639,1680
15.9667,1674
15.9694,1673
15.9722,1687
15.9750,1688
15.9778,1689
15.9806,1699
15.9833,1705
15.9861,1685
15.9889,1691
15.9917,1701
15.9944,1717
15.9972,1710
16.0000,1732
16.0028,1760
16.0056,1762
16.0083,1774
16.0111,1784
16.0139,1786
16.0167,1774
16.0194,1751
16.0222,1745
16.0250,1740
16.0278,1747
16.0306,1788
16.0333,1820
16.0361,1822
16.0389,1805
16.0417,1805
16.0444,1805
16.0472,1793
16.0500,1787
16.0528,1769
16.0556,1746
16.0583,1713
16.0611,1702
16.0639,1692
16.0667,1673
16.0694,1670
16.0722,1664
16.0750,1651
16.0778,1649
16.0806,1659
16.0833,1662
16.0861,1647
16.0889,1647
16.0917,1659
16.0944,1654
16.0972,1652
16.1000,1660
16.1028,1670
16.1056,1668
16.1083,1663
16.1111,1680
16.1139,1693
16.1167,1688
16.1194,1678
16.1222,1681
16.1250,1678
16.1278,1670
16.1306,1666
16.1333,1658
16.1361,1640
16.1389,1632
16.1417,1624
16.1444,1621
16.1472,1626
16.1500,1656
16.1528,1716
16.1556,1760
16.1583,1843
16.1611,1986
16.1639,2204
16.1667,2438
16.1694,2636
16.1722,2753
16.1750,2689
16.1778,2463
16.1806,2217
16.1833,2009
16.1861,1866
16.1889,1818
16.1917,1832
16.1944,1869
16.1972,1872
16.2000,1876
16.2028,1838
16.2056,1762
16.2083,1702
16.2111,1659
16.2139,1652
16.2167,1655
16.2194,1663
16.2222,1685
16.2250,1677
16.2278,1661
16.2306,1654
16.2333,1664
16.2361,1664
16.2389,1674
16.2417,1686
16.2444,1672
16.2472,1655
16.2500,1637
16.2528,1647
16.2556,1649
16.2583,1670
16.2611,1696
16.2639,1701
16.2667,1681
16.2694,1670
16.2722,1671
16.2750,1664
16.2778,1677
16.2806,1690
16.2833,1698
16.2861,1695
16.2889,1673
16.2917,1676
16.2944,1680
16.2972,1686
16.3000,1701
16.3028,1707
16.3056,1703
16.3083,1691
16.3111,1699
16.3139,1711
16.3167,1709
16.3194,1714
16.3222,1727
16.3250,1736
16.3278,1725
16.3306,1725
16.3333,1716
16.3361,1723
16.3389,1719
16.3417,1736
16.3444,1746
16.3472,1745
16.3500,1740
16.3528,1751
16.3556,1754
16.3583,1756
16.3611,1785
16.3639,1783
16.3667,1770
16.3694,1764
16.3722,1754
16.3750,1742
16.3778,1749
16.3806,1771
16.3833,1783
16.3861,1781
16.3889,1764
16.3917,1752
16.3944,1739
16.3972,1740
16.4000,1747
16.4028,1760
16.4056,1753
16.4083,1748
16.4111,1743
16.4139,1717
16.4167,1704
16.4194,1711
16.4222,1717
16.4250,1700
16.4278,1695
16.4306,1682
16.4333,1691
16.4361,1673
16.4389,1680
16.4417,1706
16.4444,1703
16.4472,1691
16.4500,1682
16.4528,1683
16.4556,1677
16.4583,1674
16.4611,1685
16.4639,1690
16.4667,1683
16.4694,1686
16.4722,1703
16.4750,1705
16.4778,1692
16.4806,1691
16.4833,1690
16.4861,1674
16.4889,1673
16.4917,1675
16.4944,1664
16.4972,1684
16.5000,1684
16.5028,1706
16.5056,1692
16.5083,1682
16.5111,1680
16.5139,1670
16.5167,1669
16.5194,1681
16.5222,1683
16.5250,1669
16.5278,1661
16.5306,1673
16.5333,1683
16.5361,1672
16.5389,1697
16.5417,1722
16.5444,1721
16.5472,1709
16.5500,1696
16.5528,1690
16.5556,1677
16.5583,1666
16.5611,1695
16.5639,1695
16.5667,1690
16.5694,1679
16.5722,1693
16.5750,1697
16.5778,1682
16.5806,1684
16.5833,1672
16.5861,1658
16.5889,1655
16.5917,1668
16.5944,1676
16.5972,1672
16.6000,1692
16.6028,1712
16.6056,1702
16.6083,1690
16.6111,1683
16.6139,1675
16.6167,1652
16.6194,1670
16.6222,1692
16.6250,1686
16.6278,1692
16.6306,1699
16.6333,1697
16.6361,1671
16.6389,1656
16.6417,1670
16.6444,1663
16.6472,1671
16.6500,1687
16.6528,1704
16.6556,1697
16.6583,1688
16.6611,1690
16.6639,1680
16.6667,1661
16.6694,1666
16.6722,1677
16.6750,1673
16.6778,1681
16.6806,1701
16.6833,1705
16.6861,1693
16.6889,1693
16.6917,1685
16.6944,1678
16.6972,1668
16.7000,1659
16.7028,1677
16.7056,1671
16.7083,1678
16.7111,1690
16.7139,1686
16.7167,1690
16.7194,1695
16.7222,1709
16.7250,1695
16.7278,1685
16.7306,1690
16.7333,1695
16.7361,1685
16.7389,1716
16.7417,1724
16.7444,1715
16.7472,1702
16.7500,1701
16.7528,1696
16.7556,1683
16.7583,1690
16.7611,1709
16.7639,1710
16.7667,1722
16.7694,1737
16.7722,1754
16.7750,1755
16.7778,1749
16.7806,1761
16.7833,1763
16.7861,1760
16.7889,1762
16.7917,1775
16.7944,1772
16.7972,1764
16.8000,1782
16.8028,1805
16.8056,1801
16.8083,1793
16.8111,1794
16.8139,1795
16.8167,1787
16.8194,1791
16.8222,1780
16.8250,1735
16.8278,1701
16.8306,1703
16.8333,1692
16.8361,1663
16.8389,1648
16.8417,1647
16.8444,1650
16.8472,1654
16.8500,1669
16.8528,1674
16.8556,1646
16.8583,1640
16.8611,1648
16.8639,1663
16.8667,1671
16.8694,1687
16.8722,1696
16.8750,1678
16.8778,1669
16.8806,1673
16.8833,1666
16.8861,1672
16.8889,1673
16.8917,1695
16.8944,1691
16.8972,1675
16.9000,1668
16.9028,1667
16.9056,1649
16.9083,1615
16.9111,1603
16.9139,1608
16.9167,1624
16.9194,1678
16.9222,1746
16.9250,1788
16.9278,1870
16.9306,2016
16.9333,2231
16.9361,2473
16.9389,2680
16.9417,2762
16.9444,2649
16.9472,2402
16.9500,2151
16.9528,1966
16.9556,1851
16.9583,1810
16.9611,1835
16.9639,1865
16.9667,1877
16.9694,1874
16.9722,1831
16.9750,1753
16.9778,1688
16.9806,1663
16.9833,1671
16.9861,1665
16.9889,1669
16.9917,1683
16.9944,1683
16.9972,1663
17.0000,1654
17.0028,1644
17.0056,1650
17.0083,1657
17.0111,1686
17.0139,1695
17.0167,1670
17.0194,1651
17.0222,1658
17.0250,1653
17.0278,1662
17.0306,1671
17.0333,1676
17.0361,1670
17.0389,1656
17.0417,1664
17.0444,1674
17.0472,1673
17.0500,1681
17.0528,1702
17.0556,1686
17.0583,1666
17.0611,1675
17.0639,1677
17.0667,1680
17.0694,1691
17.0722,1706
17.0750,1708
17.0778,1698
17.0806,1693
17.0833,1698
17.0861,1688
17.0889,1697
17.0917,1731
17.0944,1746
17.0972,1749
17.1000,1762
17.1028,1760
17.1056,1737
17.1083,1728
17.1111,1737
17.1139,1737
17.1167,1723
17.1194,1747
17.1222,1766
17.1250,1771
17.1278,1777
17.1306,1764
17.1333,1764
17.1361,1755
17.1389,1758
17.1417,1771
17.1444,1781
17.1472,1773
17.1500,1782
17.1528,1783
17.1556,1759
17.1583,1762
17.1611,1764
17.1639,1768
17.1667,1774
17.1694,1779
17.1722,1772
17.1750,1746
17.1778,1736
17.1806,1721
17.1833,1719
17.1861,1711
17.1889,1714
17.1917,1724
17.1944,1709
17.1972,1699
17.2000,1700
17.2028,1715
17.2056,1689
17.2083,1688
17.2111,1691
17.2139,1688
17.2167,1670
17.2194,1673
17.2222,1678
17.2250,1663
17.2278,1678
17.2306,1703
17.2333,1693
17.2361,1678
17.2389,1668
17.2417,1675
17.2444,1674
17.2472,1677
17.2500,1695
17.2528,1697
17.2556,1688
17.2583,1676
17.2611,1697
17.2639,1698
17.2667,1700
17.2694,1689
17.2722,1685
17.2750,1668
17.2778,1684
17.2806,1693
17.2833,1694
17.2861,1694
17.2889,1696
17.2917,1706
17.2944,1681
17.2972,1675
17.3000,1672
17.3028,1684
17.3056,1672
17.3083,1684
17.3111,1677
17.3139,1666
17.3167,1645
17.3194,1644
17.3222,1672
17.3250,1676
17.3278,1684
17.3306,1705
17.3333,1708
17.3361,1679
17.3389,1684
17.3417,1680
17.3444,1675
17.3472,1682
17.3500,1692
17.3528,1685
17.3556,1673
17.3583,1683
17.3611,1690
17.3639,1686
17.3667,1670
17.3694,1680
17.3722,1685
17.3750,1678
17.3778,1675
17.3806,1682
17.3833,1684
17.3861,1683
17.3889,1684
17.3917,1691
17.3944,1683
17.3972,1677
17.4000,1685
17.4028,1693
17.4056,1686
17.4083,1689
17.4111,1695
17.4139,1703
17.4167,1693
17.4194,1697
17.4222,1682
17.4250,1668
17.4278,1675
17.4306,1691
17.4333,1699
17.4361,1691
17.4389,1697
17.4417,1713
17.4444,1697
17.4472,1681
17.4500,1668
17.4528,1661
17.4556,1655
17.4583,1672
17.4611,1696
17.4639,1697
17.4667,1698
17.4694,1709
17.4722,1708
17.4750,1688
17.4778,1679
17.4806,1686
17.4833,1668
17.4861,1652
17.4889,1663
17.4917,1686
17.4944,1687
17.4972,1682
17.5000,1700
17.5028,1695
17.5056,1685
17.5083,1680
17.5111,1683
17.5139,1681
17.5167,1672
17.5194,1702
17.5222,1725
17.5250,1744
17.5278,1744
17.5306,1761
17.5333,1773
17.5361,1761
17.5389,1766
17.5417,1774
17.5444,1771
17.5472,1774
17.5500,1783
17.5528,1787
17.5556,1776
17.5583,1770
17.5611,1795
17.5639,1792
17.5667,1789
17.5694,1799
17.5722,1806
17.5750,1796
17.5778,1772
17.5806,1762
17.5833,1737
17.5861,1705
17.5889,1700
17.5917,1703
17.5944,1668
17.5972,1653
17.6000,1647
17.6028,1646
17.6056,1633
17.6083,1646
17.6111,1664
17.6139,1658
17.6167,1659
17.6194,1654
17.6222,1657
17.6250,1648
17.6278,1646
17.6306,1654
17.6333,1669
17.6361,1661
17.6389,1656
17.6417,1665
17.6444,1657
17.6472,1652
17.6500,1659
17.6528,1668
17.6556,1664
17.6583,1667
17.6611,1674
17.6639,1662
17.6667,1629
17.6694,1606
17.6722,1600
17.6750,1617
17.6778,1660
17.6806,1718
17.6833,1743
17.6861,1816
17.6889,1954
17.6917,2186
17.6944,2439
17.6972,2654
17.7000,2766
17.7028,2687
17.7056,2433
17.7083,2162
17.7111,1975
17.7139,1864
17.7167,1814
17.7194,1833
17.7222,1847
17.7250,1863
17.7278,1860
17.7306,1834
17.7333,1765
17.7361,1692
17.7389,1652
17.7417,1645
17.7444,1649
17.7472,1676
17.7500,1689
17.7528,1696
17.7556,1677
17.7583,1664
17.7611,1672
17.7639,1668
17.7667,1663
17.7694,1679
17.7722,1692
17.7750,1671
17.7778,1653
17.7806,1653
17.7833,1656
17.7861,1657
17.7889,1659
17.7917,1669
17.7944,1667
17.7972,1656
17.8000,1671
17.8028,1675
17.8056,1678
17.8083,1686
17.8111,1688
17.8139,1683
17.8167,1662
17.8194,1668
17.8222,1686
17.8250,1693
17.8278,1710
17.8306,1732
17.8333,1727
17.8361,1708
17.8389,1689
17.8417,1697
17.8444,1703
17.8472,1708
17.8500,1725
17.8528,1734
17.8556,1724
17.8583,1716
17.8611,1716
17.8639,1707
17.8667,1708
17.8694,1742
17.8722,1757
17.8750,1762
17.8778,1752
17.8806,1759
17.8833,1756
17.8861,1754
17.8889,1765
17.8917,1763
17.8944,1748
17.8972,1747
17.9000,1782
17.9028,1795
17.9056,1800
17.9083,1782
17.9111,1791
17.9139,1775
17.9167,1757
17.9194,1776
17.9222,1779
17.9250,1776
17.9278,1774
17.9306,1774
17.9333,1753
17.9361,1749
17.9389,1739
17.9417,1739
17.9444,1731
17.9472,1737
17.9500,1744
17.9528,1735
17.9556,1712
17.9583,1691
17.9611,1683
17.9639,1679
17.9667,1683
17.9694,1706
17.9722,1698
17.9750,1679
17.9778,1673
17.9806,1677
17.9833,1683
17.9861,1694
17.9889,1708
17.9917,1711
17.9944,1701
17.9972,1684
18.0000,1688
18.0028,1689
18.0056,1689
18.0083,1707
18.0111,1716
18.0139,1686
18.0167,1687
18.0194,1693
18.0222,1697
18.0250,1694
18.0278,1695
18.0306,1710
18.0333,1709
18.0361,1695
18.0389,1688
18.0417,1688
18.0444,1685
18.0472,1699
18.0500,1716
18.0528,1710
18.0556,1691
18.0583,1679
18.0611,1697
18.0639,1696
18.0667,1710
18.0694,1719
18.0722,1724
18.0750,1708
18.0778,1703
18.0806,1705
18.0833,1684
18.0861,1681
18.0889,1677
18.0917,1698
18.0944,1687
18.0972,1675
18.1000,1682
18.1028,1693
18.1056,1695
18.1083,1698
18.1111,1696
18.1139,1683
18.1167,1675
18.1194,1684
18.1222,1698
18.1250,1690
18.1278,1693
18.1306,1711
18.1333,1704
18.1361,1693
18.1389,1698
18.1417,1697
18.1444,1702
18.1472,1700
18.1500,1710
18.1528,1696
18.1556,1675
18.1583,1675
18.1611,1695
18.1639,1696
18.1667,1687
18.1694,1698
18.1722,1699
18.1750,1695
18.1778,1699
18.1806,1704
18.1833,1708
18.1861,1683
18.1889,1695
18.1917,1690
18.1944,1671
18.1972,1668
18.2000,1698
18.2028,1699
18.2056,1701
18.2083,1698
18.2111,1702
18.2139,1695
18.2167,1682
18.2194,1691
18.2222,1695
18.2250,1691
18.2278,1694
18.2306,1704
18.2333,1692
18.2361,1687
18.2389,1681
18.2417,1694
18.2444,1692
18.2472,1695
18.2500,1700
18.2528,1714
18.2556,1701
18.2583,1695
18.2611,1724
18.2639,1732
18.2667,1740
18.2694,1758
18.2722,1778
18.2750,1773
18.2778,1779
18.2806,1785
18.2833,1766
18.2861,1750
18.2889,1757
18.2917,1759
18.2944,1766
18.2972,1782
18.3000,1802
18.3028,1792
18.3056,1789
18.3083,1785
18.3111,1800
18.3139,1784
18.3167,1756
18.3194,1731
18.3222,1694
18.3250,1669
18.3278,1668
18.3306,1660
18.3333,1667
18.3361,1654
18.3389,1673
18.3417,1671
18.3444,1657
18.3472,1645
18.3500,1666
18.3528,1665
18.3556,1658
18.3583,1668
18.3611,1668
18.3639,1651
18.3667,1642
18.3694,1638
18.3722,1628
18.3750,1623
18.3778,1625
18.3806,1639
18.3833,1663
18.3861,1668
18.3889,1678
18.3917,1678
18.3944,1678
18.3972,1662
18.4000,1656
18.4028,1619
18.4056,1570
18.4083,1562
18.4111,1593
18.4139,1639
18.4167,1688
18.4194,1744
18.4222,1800
18.4250,1898
18.4278,2063
18.4306,2293
18.4333,2526
18.4361,2697
18.4389,2722
18.4417,2558
18.4444,2290
18.4472,2061
18.4500,1924
18.4528,1838
18.4556,1813
18.4583,1836
18.4611,1862
18.4639,1862
18.4667,1837
18.4694,1783
18.4722,1725
18.4750,1667
18.4778,1628
18.4806,1632
18.4833,1642
18.4861,1651
18.4889,1678
18.4917,1667
18.4944,1651
18.4972,1634
18.5000,1645
18.5028,1659
18.5056,1653
18.5083,1658
18.5111,1659
18.5139,1655
18.5167,1638
18.5194,1638
18.5222,1648
18.5250,1658
18.5278,1673
18.5306,1674
18.5333,1660
18.5361,1654
18.5389,1658
18.5417,1667
18.5444,1666
18.5472,1670
18.5500,1679
18.5528,1678
18.5556,1647
18.5583,1647
18.5611,1664
18.5639,1688
18.5667,1700
18.5694,1712
18.5722,1698
18.5750,1671
18.5778,1671
18.5806,1694
18.5833,1711
18.5861,1716
18.5889,1724
18.5917,1724
18.5944,1696
18.5972,1681
18.6000,1697
18.6028,1719
18.6056,1737
18.6083,1739
18.6111,1752
18.6139,1741
18.6167,1722
18.6194,1721
18.6222,1721
18.6250,1738
18.6278,1787
18.6306,1777
18.6333,1757
18.6361,1751
18.6389,1745
18.6417,1758
18.6444,1779
18.6472,1800
18.6500,1791
18.6528,1761
18.6556,1742
18.6583,1743
18.6611,1745
18.6639,1741
18.6667,1737
18.6694,1749
18.6722,1743
18.6750,1727
18.6778,1715
18.6806,1728
18.6833,1719
18.6861,1715
18.6889,1705
18.6917,1692
18.6944,1662
18.6972,1656
18.7000,1658
18.7028,1676
18.7056,1693
18.7083,1692
18.7111,1695
18.7139,1675
18.7167,1657
18.7194,1676
18.7222,1671
18.7250,1667
18.7278,1659
18.7306,1670
18.7333,1659
18.7361,1657
18.7389,1683
18.7417,1701
18.7444,1693
18.7472,1692
18.7500,1694
18.7528,1690
18.7556,1681
18.7583,1675
18.7611,1684
18.7639,1670
18.7667,1675
18.7694,1680
18.7722,1674
18.7750,1661
18.7778,1662
18.7806,1666
18.7833,1669
18.7861,1671
18.7889,1681
18.7917,1683
18.7944,1679
18.7972,1669
18.8000,1672
18.8028,1680
18.8056,1673
18.8083,1689
18.8111,1690
18.8139,1680
18.8167,1682
18.8194,1683
18.8222,1684
18.8250,1664
18.8278,1675
18.8306,1676
18.8333,1662
18.8361,1638
18.8389,1657
18.8417,1662
18.8444,1662
18.8472,1682
18.8500,1681
18.8528,1681
18.8556,1674
18.8583,1684
18.8611,1671
18.8639,1668
18.8667,1653
18.8694,1682
18.8722,1687
18.8750,1668
18.8778,1665
18.8806,1674
18.8833,1677
18.8861,1680
18.8889,1676
18.8917,1645
18.8944,1613
18.8972,1621
18.9000,1644
18.9028,1667
18.9056,1671
18.9083,1691
18.9111,1692
18.9139,1668
18.9167,1659
18.9194,1658
18.9222,1654
18.9250,1638
18.9278,1658
18.9306,1685
18.9333,1706
18.9361,1706
18.9389,1697
18.9417,1695
18.9444,1679
18.9472,1684
18.9500,1682
18.9528,1669
18.9556,1662
18.9583,1680
18.9611,1700
18.9639,1715
18.9667,1717
18.9694,1719
18.9722,1714
18.9750,1716
18.9778,1745
18.9806,1772
18.9833,1778
18.9861,1771
18.9889,1762
18.9917,1738
18.9944,1727
18.9972,1745
19.0000,1772
19.0028,1793
19.0056,1794
19.0083,1801
19.0111,1802
19.0139,1792
19.0167,1774
19.0194,1781
19.0222,1748
19.0250,1712
19.0278,1709
19.0306,1702
19.0333,1672
19.0361,1655
19.0389,1661
19.0417,1666
19.0444,1631
19.0472,1629
19.0500,1648
19.0528,1656
19.0556,1663
19.0583,1658
19.0611,1671
19.0639,1656
19.0667,1634
19.0694,1641
19.0722,1640
19.0750,1640
19.0778,1645
19.0806,1665
19.0833,1662
19.0861,1644
19.0889,1638
19.0917,1636
19.0944,1632
19.0972,1640
19.1000,1644
19.1028,1632
19.1056,1623
19.1083,1605
19.1111,1594
19.1139,1592
19.1167,1613
19.1194,1664
19.1222,1693
19.1250,1734
19.1278,1807
19.1306,1962
19.1333,2183
19.1361,2437
19.1389,2651
19.1417,2750
19.1444,2651
19.1472,2418
19.1500,2199
19.1528,2018
19.1556,1917
19.1583,1866
19.1611,1844
19.1639,1844
19.1667,1851
19.1694,1864
19.1722,1838
19.1750,1778
19.1778,1700
19.1806,1649
19.1833,1626
19.1861,1625
19.1889,1657
19.1917,1682
19.1944,1672
19.1972,1654
19.2000,1639
19.2028,1623
19.2056,1616
19.2083,1643
19.2111,1658
19.2139,1659
19.2167,1643
19.2194,1651
19.2222,1660
19.2250,1652
19.2278,1648
19.2306,1664
19.2333,1658
19.2361,1635
19.2389,1638
19.2417,1645
19.2444,1665
19.2472,1688
19.2500,1715
19.2528,1714
19.2556,1688
19.2583,1682
19.2611,1679
19.2639,1673
19.2667,1689
19.2694,1711
19.2722,1709
19.2750,1698
19.2778,1701
19.2806,1720
19.2833,1710
19.2861,1699
19.2889,1710
19.2917,1708
19.2944,1714
19.2972,1734
19.3000,1744
19.3028,1745
19.3056,1742
19.3083,1748
19.3111,1762
19.3139,1761
19.3167,1750
19.3194,1747
19.3222,1744
19.3250,1746
19.3278,1754
19.3306,1825
19.3333,1833
19.3361,1803
19.3389,1796
19.3417,1793
19.3444,1791
19.3472,1796
19.3500,1818
19.3528,1816
19.3556,1801
19.3583,1805
19.3611,1784
19.3639,1768
19.3667,1765
19.3694,1782
19.3722,1788
19.3750,1771
19.3778,1774
19.3806,1785
19.3833,1777
19.3861,1772
19.3889,1766
19.3917,1754
19.3944,1726
19.3972,1716
19.4000,1723
19.4028,1715
19.4056,1702
19.4083,1701
19.4111,1696
19.4139,1696
19.4167,1709
19.4194,1732
19.4222,1735
19.4250,1725
19.4278,1722
19.4306,1720
19.4333,1692
19.4361,1685
19.4389,1701
19.4417,1702
19.4444,1697
19.4472,1726
19.4500,1743
19.4528,1728
19.4556,1729
19.4583,1735
19.4611,1722
19.4639,1723
19.4667,1728
19.4694,1726
19.4722,1717
19.4750,1700
19.4778,1705
19.4806,1723
19.4833,1719
19.4861,1728
19.4889,1732
19.4917,1729
19.4944,1711
19.4972,1706
19.5000,1709
19.5028,1713
19.5056,1715
19.5083,1728
19.5111,1726
19.5139,1706
19.5167,1710
19.5194,1717
19.5222,1715
19.5250,1710
19.5278,1714
19.5306,1715
19.5333,1714
19.5361,1705
19.5389,1719
19.5417,1720
19.5444,1713
19.5472,1715
19.5500,1719
19.5528,1703
19.5556,1685
19.5583,1685
19.5611,1692
19.5639,1697
19.5667,1710
19.5694,1711
19.5722,1705
19.5750,1704
19.5778,1706
19.5806,1707
19.5833,1689
19.5861,1701
19.5889,1709
19.5917,1718
19.5944,1706
19.5972,1695
19.6000,1706
19.6028,1702
19.6056,1697
19.6083,1717
19.6111,1715
19.6139,1699
19.6167,1690
19.6194,1719
19.6222,1749
19.6250,1759
19.6278,1789
19.6306,1800
19.6333,1794
19.6361,1792
19.6389,1792
19.6417,1780
19.6444,1780
19.6472,1789
19.6500,1806
19.6528,1803
19.6556,1800
19.6583,1811
19.6611,1802
19.6639,1793
19.6667,1802
19.6694,1819
19.6722,1821
19.6750,1797
19.6778,1760
19.6806,1728
19.6833,1704
19.6861,1691
19.6889,1698
19.6917,1695
19.6944,1693
19.6972,1690
19.7000,1685
19.7028,1675
19.7056,1651
19.7083,1655
19.7111,1654
19.7139,1653
19.7167,1665
19.7194,1694
19.7222,1686
19.7250,1680
19.7278,1669
19.7306,1667
19.7333,1662
19.7361,1655
19.7389,1663
19.7417,1679
19.7444,1684
19.7472,1681
19.7500,1687
19.7528,1664
19.7556,1643
19.7583,1658
19.7611,1652
19.7639,1632
19.7667,1607
19.7694,1602
19.7722,1614
19.7750,1641
19.7778,1694
19.7806,1743
19.7833,1789
19.7861,1885
19.7889,2069
19.7917,2316
19.7944,2578
19.7972,2781
19.8000,2836
19.8028,2692
19.8056,2430
19.8083,2185
19.8111,2039
19.8139,1945
19.8167,1907
19.8194,1908
19.8222,1912
19.8250,1892
19.8278,1883
19.8306,1839
19.8333,1764
19.8361,1696
19.8389,1668
19.8417,1640
19.8444,1646
19.8472,1671
19.8500,1705
19.8528,1694
19.8556,1679
19.8583,1652
19.8611,1649
19.8639,1652
19.8667,1662
19.8694,1673
19.8722,1671
19.8750,1664
19.8778,1665
19.8806,1679
19.8833,1674
19.8861,1666
19.8889,1679
19.8917,1681
19.8944,1664
19.8972,1650
19.9000,1659
19.9028,1659
19.9056,1671
19.9083,1680
19.9111,1689
19.9139,1679
19.9167,1667
19.9194,1659
19.9222,1667
19.9250,1668
19.9278,1680
19.9306,1704
19.9333,1684
19.9361,1657
19.9389,1655
19.9417,1671
19.9444,1689
19.9472,1707
19.9500,1723
19.9528,1702
19.9556,1686
19.9583,1677
19.9611,1675
19.9639,1676
19.9667,1710
19.9694,1753
19.9722,1746
19.9750,1730
19.9778,1727
19.9806,1738
19.9833,1747
19.9861,1751
19.9889,1726
19.9917,1738
19.9944,1719
19.9972,1734
20.0000,1766
20.0028,1765
20.0056,1766
20.0083,1768
20.0111,1755
20.0139,1727
20.0167,1717
20.0194,1731
20.0222,1718
20.0250,1724
20.0278,1744
20.0306,1753
20.0333,1743
20.0361,1746
20.0389,1741
20.0417,1728
20.0444,1714
20.0472,1714
20.0500,1724
20.0528,1700
20.0556,1692
20.0583,1717
20.0611,1703
20.0639,1686
20.0667,1675
20.0694,1691
20.0722,1687
20.0750,1685
20.0778,1700
20.0806,1713
20.0833,1719
20.0861,1723
20.0889,1721
20.0917,1702
20.0944,1672
20.0972,1670
20.1000,1685
20.1028,1694
20.1056,1697
20.1083,1719
20.1111,1716
20.1139,1707
20.1167,1708
20.1194,1712
20.1222,1706
20.1250,1706
20.1278,1716
20.1306,1710
20.1333,1693
20.1361,1689
20.1389,1694
20.1417,1687
20.1444,1688
20.1472,1699
20.1500,1715
20.1528,1710
20.1556,1689
20.1583,1706
20.1611,1699
20.1639,1696
20.1667,1702
20.1694,1720
20.1722,1699
20.1750,1691
20.1778,1703
20.1806,1702
20.1833,1692
20.1861,1699
20.1889,1706
20.1917,1687
20.1944,1685
20.1972,1696
20.2000,1697
20.2028,1684
20.2056,1684
20.2083,1685
20.2111,1694
20.2139,1682
20.2167,1686
20.2194,1698
20.2222,1683
20.2250,1678
20.2278,1680
20.2306,1696
20.2333,1686
20.2361,1673
20.2389,1682
20.2417,1687
20.2444,1679
20.2472,1679
20.2500,1681
20.2528,1670
20.2556,1675
20.2583,1700
20.2611,1729
20.2639,1742
20.2667,1752
20.2694,1760
20.2722,1756
20.2750,1756
20.2778,1775
20.2806,1772
20.2833,1764
20.2861,1755
20.2889,1754
20.2917,1756
20.2944,1766
20.2972,1796
20.3000,1819
20.3028,1795
20.3056,1788
20.3083,1785
20.3111,1782
20.3139,1752
20.3167,1719
20.3194,1694
20.3222,1667
20.3250,1665
20.3278,1674
20.3306,1668
20.3333,1658
20.3361,1651
20.3389,1651
20.3417,1631
20.3444,1612
20.3472,1610
20.3500,1621
20.3528,1623
20.3556,1625
20.3583,1644
20.3611,1639
20.3639,1628
20.3667,1624
20.3694,1622
20.3722,1620
20.3750,1615
20.3778,1631
20.3806,1653
20.3833,1643
20.3861,1651
20.3889,1647
20.3917,1644
20.3944,1638
20.3972,1640
20.4000,1635
20.4028,1602
20.4056,1569
20.4083,1558
20.4111,1561
20.4139,1582
20.4167,1625
20.4194,1688
20.4222,1748
20.4250,1857
20.4278,2054
20.4306,2305
20.4333,2564
20.4361,2768
20.4389,2817
20.4417,2672
20.4444,2406
20.4472,2180
20.4500,2021
20.4528,1904
20.4556,1848
20.4583,1851
20.4611,1868
20.4639,1864
20.4667,1841
20.4694,1771
20.4722,1687
20.4750,1618
20.4778,1608
20.4806,1620
20.4833,1638
20.4861,1649
20.4889,1662
20.4917,1657
20.4944,1622
20.4972,1602
20.5000,1595
20.5028,1602
20.5056,1619
20.5083,1641
20.5111,1641
20.5139,1614
20.5167,1591
20.5194,1607
20.5222,1627
20.5250,1638
20.5278,1660
20.5306,1675
20.5333,1651
20.5361,1631
20.5389,1624
20.5417,1630
20.5444,1639
20.5472,1656
20.5500,1643
20.5528,1644
20.5556,1634
20.5583,1649
20.5611,1656
20.5639,1645
20.5667,1651
20.5694,1666
20.5722,1670
20.5750,1670
20.5778,1689
20.5806,1700
20.5833,1693
20.5861,1689
20.5889,1700
20.5917,1699
20.5944,1685
20.5972,1674
20.6000,1675
20.6028,1682
20.6056,1696
20.6083,1703
20.6111,1697
20.6139,1684
20.6167,1685
20.6194,1704
20.6222,1718
20.6250,1703
20.6278,1743
20.6306,1743
20.6333,1728
20.6361,1731
20.6389,1746
20.6417,1764
20.6444,1764
20.6472,1770
20.6500,1752
20.6528,1722
20.6556,1728
20.6583,1744
20.6611,1752
20.6639,1738
20.6667,1737
20.6694,1731
20.6722,1710
20.6750,1693
20.6778,1698
20.6806,1692
20.6833,1697
20.6861,1712
20.6889,1726
20.6917,1712
20.6944,1701
20.6972,1692
20.7000,1684
20.7028,1677
20.7056,1683
20.7083,1706
20.7111,1702
20.7139,1690
20.7167,1685
20.7194,1692
20.7222,1685
20.7250,1690
20.7278,1711
20.7306,1705
20.7333,1701
20.7361,1708
20.7389,1706
20.7417,1688
20.7444,1679
20.7472,1692
20.7500,1714
20.7528,1703
20.7556,1709
20.7583,1722
20.7611,1706
20.7639,1693
20.7667,1686
20.7694,1684
20.7722,1678
20.7750,1681
20.7778,1691
20.7806,1686
20.7833,1669
20.7861,1686
20.7889,1699
20.7917,1693
20.7944,1677
20.7972,1690
20.8000,1699
20.8028,1712
20.8056,1717
20.8083,1729
20.8111,1714
20.8139,1685
20.8167,1689
20.8194,1679
20.8222,1682
20.8250,1692
20.8278,1702
20.8306,1701
20.8333,1690
20.8361,1692
20.8389,1695
20.8417,1697
20.8444,1690
20.8472,1687
20.8500,1684
20.8528,1681
20.8556,1676
20.8583,1684
20.8611,1677
20.8639,1691
20.8667,1704
20.8694,1714
20.8722,1695
20.8750,1685
20.8778,1685
20.8806,1680
20.8833,1678
20.8861,1677
20.8889,1695
20.8917,1683
20.8944,1687
20.8972,1723
20.9000,1753
20.9028,1755
20.9056,1770
20.9083,1785
20.9111,1785
20.9139,1767
20.9167,1751
20.9194,1763
20.9222,1773
20.9250,1769
20.9278,1766
20.9306,1763
20.9333,1779
20.9361,1801
20.9389,1820
20.9417,1823
20.9444,1833
20.9472,1829
20.9500,1807
20.9528,1766
20.9556,1731
20.9583,1696
20.9611,1681
20.9639,1669
20.9667,1676
20.9694,1666
20.9722,1657
20.9750,1648
20.9778,1652
20.9806,1636
20.9833,1631
20.9861,1636
20.9889,1644
20.9917,1645
20.9944,1618
20.9972,1639
21.0000,1644
21.0028,1645
21.0056,1650
21.0083,1647
21.0111,1638
21.0139,1630
21.0167,1620
21.0194,1644
21.0222,1648
21.0250,1663
21.0278,1684
21.0306,1677
21.0333,1646
21.0361,1631
21.0389,1638
21.0417,1608
21.0444,1582
21.0472,1592
21.0500,1612
21.0528,1620
21.0556,1671
21.0583,1727
21.0611,1797
21.0639,1906
21.0667,2122
21.0694,2394
21.0722,2635
21.0750,2805
21.0778,2811
21.0806,2618
21.0833,2348
21.0861,2118
21.0889,1987
21.0917,1901
21.0944,1857
21.0972,1890
21.1000,1884
21.1028,1866
21.1056,1823
21.1083,1772
21.1111,1705
21.1139,1646
21.1167,1619
21.1194,1619
21.1222,1624
21.1250,1628
21.1278,1656
21.1306,1668
21.1333,1656
21.1361,1647
21.1389,1639
21.1417,1629
21.1444,1630
21.1472,1645
21.1500,1644
21.1528,1633
21.1556,1625
21.1583,1643
21.1611,1668
21.1639,1679
21.1667,1678
21.1694,1675
21.1722,1632
21.1750,1617
21.1778,1616
21.1806,1631
21.1833,1642
21.1861,1663
21.1889,1691
21.1917,1674
21.1944,1658
21.1972,1665
21.2000,1669
21.2028,1676
21.2056,1691
21.2083,1703
21.2111,1689
21.2139,1645
21.2167,1640
21.2194,1654
21.2222,1681
21.2250,1686
21.2278,1698
21.2306,1699
21.2333,1691
21.2361,1689
21.2389,1697
21.2417,1696
21.2444,1706
21.2472,1715
21.2500,1714
21.2528,1702
21.2556,1699
21.2583,1711
21.2611,1709
21.2639,1710
21.2667,1753
21.2694,1745
21.2722,1716
21.2750,1711
21.2778,1725
21.2806,1729
21.2833,1740
21.2861,1764
21.2889,1768
21.2917,1741
21.2944,1716
21.2972,1729
21.3000,1735
21.3028,1718
21.3056,1707
21.3083,1718
21.3111,1704
21.3139,1696
21.3167,1704
21.3194,1715
21.3222,1700
21.3250,1702
21.3278,1700
21.3306,1682
21.3333,1680
21.3361,1700
21.3389,1703
21.3417,1692
21.3444,1685
21.3472,1697
21.3500,1684
21.3528,1673
21.3556,1666
21.3583,1699
21.3611,1692
21.3639,1694
21.3667,1696
21.3694,1691
21.3722,1686
21.3750,1686
21.3778,1717
21.3806,1706
21.3833,1694
21.3861,1689
21.3889,1704
21.3917,1695
21.3944,1703
21.3972,1705
21.4000,1705
21.4028,1692
21.4056,1687
21.4083,1705
21.4111,1686
21.4139,1662
21.4167,1663
21.4194,1660
21.4222,1676
21.4250,1691
21.4278,1716
21.4306,1706
21.4333,1698
21.4361,1718
21.4389,1712
21.4417,1694
21.4444,1680
21.4472,1683
21.4500,1676
21.4528,1676
21.4556,1698
21.4583,1711
21.4611,1705
21.4639,1705
21.4667,1712
21.4694,1722
21.4722,1704
21.4750,1683
21.4778,1682
21.4806,1675
21.4833,1668
21.4861,1665
21.4889,1677
21.4917,1681
21.4944,1688
21.4972,1712
21.5000,1702
21.5028,1707
21.5056,1719
21.5083,1728
21.5111,1701
21.5139,1671
21.5167,1657
21.5194,1664
21.5222,1664
21.5250,1676
21.5278,1698
21.5306,1701
21.5333,1685
21.5361,1694
21.5389,1706
21.5417,1711
21.5444,1719
21.5472,1722
21.5500,1738
21.5528,1738
21.5556,1766
21.5583,1782
21.5611,1778
21.5639,1785
21.5667,1804
21.5694,1792
21.5722,1758
21.5750,1757
21.5778,1769
21.5806,1780
21.5833,1792
21.5861,1824
21.5889,1840
21.5917,1829
21.5944,1811
21.5972,1793
21.6000,1789
21.6028,1761
21.6056,1743
21.6083,1725
21.6111,1720
21.6139,1700
21.6167,1680
21.6194,1662
21.6222,1652
21.6250,1651
21.6278,1669
21.6306,1667
21.6333,1655
21.6361,1640
21.6389,1665
21.6417,1658
21.6444,1659
21.6472,1658
21.6500,1661
21.6528,1653
21.6556,1654
21.6583,1669
21.6611,1661
21.6639,1647
21.6667,1657
21.6694,1663
21.6722,1666
21.6750,1668
21.6778,1685
21.6806,1696
21.6833,1684
21.6861,1683
21.6889,1665
21.6917,1630
21.6944,1579
21.6972,1578
21.7000,1599
21.7028,1632
21.7056,1680
21.7083,1721
21.7111,1756
21.7139,1831
21.7167,2012
21.7194,2261
21.7222,2523
21.7250,2744
21.7278,2797
21.7306,2680
21.7333,2428
21.7361,2200
21.7389,2026
21.7417,1912
21.7444,1872
21.7472,1888
21.7500,1896
21.7528,1890
21.7556,1869
21.7583,1819
21.7611,1745
21.7639,1685
21.7667,1663
21.7694,1663
21.7722,1639
21.7750,1639
21.7778,1652
21.7806,1652
21.7833,1645
21.7861,1642
21.7889,1655
21.7917,1653
21.7944,1656
21.7972,1666
21.8000,1655
21.8028,1636
21.8056,1617
21.8083,1628
21.8111,1632
21.8139,1654
21.8167,1681
21.8194,1697
21.8222,1677
21.8250,1671
21.8278,1656
21.8306,1646
21.8333,1653
21.8361,1675
21.8389,1675
21.8417,1672
21.8444,1671
21.8472,1687
21.8500,1680
21.8528,1667
21.8556,1674
21.8583,1682
21.8611,1677
21.8639,1677
21.8667,1697
21.8694,1714
21.8722,1709
21.8750,1724
21.8778,1718
21.8806,1707
21.8833,1686
21.8861,1696
21.8889,1701
21.8917,1711
21.8944,1720
21.8972,1747
21.9000,1737
21.9028,1704
21.9056,1695
21.9083,1718
21.9111,1719
21.9139,1747
21.9167,1749
21.9194,1748
21.9222,1732
21.9250,1731
21.9278,1739
21.9306,1731
21.9333,1751
21.9361,1773
21.9389,1777
21.9417,1763
21.9444,1757
21.9472,1765
21.9500,1759
21.9528,1769
21.9556,1770
21.9583,1771
21.9611,1755
21.9639,1735
21.9667,1725
21.9694,1716
21.9722,1707
21.9750,1714
21.9778,1726
21.9806,1714
21.9833,1708
21.9861,1706
21.9889,1708
21.9917,1687
21.9944,1685
21.9972,1696
22.0000,1698
22.0028,1684
22.0056,1680
22.0083,1673
22.0111,1674
22.0139,1691
22.0167,1712
22.0194,1716
22.0222,1704
22.0250,1700
22.0278,1702
22.0306,1677
22.0333,1690
22.0361,1706
22.0389,1719
22.0417,1711
22.0444,1703
22.0472,1705
22.0500,1696
22.0528,1692
22.0556,1709
22.0583,1719
22.0611,1708
22.0639,1695
22.0667,1689
22.0694,1680
22.0722,1653
22.0750,1665
22.0778,1678
22.0806,1676
22.0833,1687
22.0861,1697
22.0889,1702
22.0917,1698
22.0944,1706
22.0972,1721
22.1000,1707
22.1028,1695
22.1056,1681
22.1083,1683
22.1111,1671
22.1139,1680
22.1167,1694
22.1194,1700
22.1222,1697
22.1250,1695
22.1278,1704
22.1306,1699
22.1333,1683
22.1361,1680
22.1389,1686
22.1417,1690
22.1444,1692
22.1472,1710
22.1500,1701
22.1528,1687
22.1556,1678
22.1583,1677
22.1611,1666
22.1639,1666
22.1667,1688
22.1694,1698
22.1722,1710
22.1750,1699
22.1778,1703
22.1806,1678
22.1833,1692
22.1861,1696
22.1889,1687
22.1917,1683
22.1944,1682
22.1972,1697
22.2000,1689
22.2028,1675
22.2056,1680
22.2083,1700
22.2111,1698
22.2139,1710
22.2167,1735
22.2194,1764
22.2222,1769
22.2250,1766
22.2278,1772
22.2306,1762
22.2333,1769
22.2361,1780
22.2389,1782
22.2417,1764
22.2444,1760
22.2472,1774
22.2500,1779
22.2528,1792
22.2556,1815
22.2583,1813
22.2611,1793
22.2639,1790
22.2667,1801
22.2694,1800
22.2722,1783
22.2750,1762
22.2778,1744
22.2806,1714
22.2833,1694
22.2861,1687
22.2889,1674
22.2917,1656
22.2944,1653
22.2972,1667
22.3000,1671
22.3028,1675
22.3056,1686
22.3083,1686
22.3111,1672
22.3139,1676
22.3167,1667
22.3194,1677
22.3222,1665
22.3250,1671
22.3278,1669
22.3306,1648
22.3333,1639
22.3361,1650
22.3389,1651
22.3417,1641
22.3444,1643
22.3472,1658
22.3500,1663
22.3528,1662
22.3556,1684
22.3583,1688
22.3611,1658
22.3639,1615
22.3667,1594
22.3694,1611
22.3722,1635
22.3750,1700
22.3778,1756
22.3806,1835
22.3833,1963
22.3861,2175
22.3889,2424
22.3917,2636
22.3944,2772
22.3972,2737
22.4000,2534
22.4028,2282
22.4056,2082
22.4083,1968
22.4111,1898
22.4139,1874
22.4167,1874
22.4194,1884
22.4222,1871
22.4250,1845
22.4278,1797
22.4306,1740
22.4333,1685
22.4361,1671
22.4389,1658
22.4417,1670
22.4444,1689
22.4472,1690
22.4500,1680
22.4528,1655
22.4556,1641
22.4583,1660
22.4611,1659
22.4639,1665
22.4667,1670
22.4694,1654
22.4722,1644
22.4750,1644
22.4778,1667
22.4806,1668
22.4833,1688
22.4861,1711
22.4889,1718
22.4917,1692
22.4944,1668
22.4972,1669
22.5000,1674
22.5028,1666
22.5056,1668
22.5083,1678
22.5111,1686
22.5139,1689
22.5167,1710
22.5194,1712
22.5222,1711
22.5250,1704
22.5278,1700
22.5306,1697
22.5333,1693
22.5361,1692
22.5389,1711
22.5417,1708
22.5444,1709
22.5472,1712
22.5500,1706
22.5528,1692
22.5556,1711
22.5583,1726
22.5611,1731
22.5639,1731
22.5667,1725
22.5694,1708
22.5722,1698
22.5750,1725
22.5778,1757
22.5806,1765
22.5833,1761
22.5861,1776
22.5889,1778
22.5917,1765
22.5944,1766
22.5972,1788
22.6000,1776
22.6028,1774
22.6056,1788
22.6083,1775
22.6111,1757
22.6139,1762
22.6167,1776
22.6194,1783
22.6222,1781
22.6250,1783
22.6278,1762
22.6306,1747
22.6333,1736
22.6361,1744
22.6389,1748
22.6417,1741
22.6444,1744
22.6472,1748
22.6500,1743
22.6528,1734
22.6556,1725
22.6583,1729
22.6611,1715
22.6639,1718
22.6667,1727
22.6694,1703
22.6722,1693
22.6750,1702
22.6778,1713
22.6806,1709
22.6833,1721
22.6861,1725
22.6889,1711
22.6917,1693
22.6944,1704
22.6972,1714
22.7000,1733
22.7028,1727
22.7056,1732
22.7083,1713
22.7111,1689
22.7139,1691
22.7167,1700
22.7194,1700
22.7222,1704
22.7250,1713
22.7278,1711
22.7306,1707
22.7333,1701
22.7361,1706
22.7389,1707
22.7417,1698
22.7444,1698
22.7472,1698
22.7500,1673
22.7528,1669
22.7556,1692
22.7583,1692
22.7611,1708
22.7639,1720
22.7667,1723
22.7694,1699
22.7722,1680
22.7750,1687
22.7778,1698
22.7806,1693
22.7833,1699
22.7861,1701
22.7889,1699
22.7917,1689
22.7944,1678
22.7972,1692
22.8000,1694
22.8028,1691
22.8056,1702
22.8083,1705
22.8111,1690
22.8139,1702
22.8167,1698
22.8194,1689
22.8222,1679
22.8250,1692
22.8278,1702
22.8306,1691
22.8333,1682
22.8361,1694
22.8389,1685
22.8417,1686
22.8444,1691
22.8472,1692
22.8500,1683
22.8528,1680
22.8556,1692
22.8583,1703
22.8611,1704
22.8639,1708
22.8667,1696
22.8694,1681
22.8722,1679
22.8750,1702
22.8778,1721
22.8806,1726
22.8833,1729
22.8861,1759
22.8889,1759
22.8917,1755
22.8944,1756
22.8972,1785
22.9000,1784
22.9028,1780
22.9056,1788
22.9083,1786
22.9111,1774
22.9139,1763
22.9167,1787
22.9194,1800
22.9222,1814
22.9250,1814
22.9278,1807
22.9306,1791
22.9333,1793
22.9361,1790
22.9389,1782
22.9417,1744
22.9444,1720
22.9472,1708
22.9500,1684
22.9528,1660
22.9556,1652
22.9583,1662
22.9611,1655
22.9639,1657
22.9667,1669
22.9694,1663
22.9722,1653
22.9750,1647
22.9778,1654
22.9806,1647
22.9833,1659
22.9861,1679
22.9889,1683
22.9917,1662
22.9944,1646
22.9972,1638
23.0000,1623
23.0028,1620
23.0056,1648
23.0083,1662
23.0111,1672
23.0139,1677
23.0167,1690
23.0194,1675
23.0222,1659
23.0250,1642
23.0278,1626
23.0306,1591
23.0333,1565
23.0361,1587
23.0389,1624
23.0417,1673
23.0444,1738
23.0472,1807
23.0500,1919
23.0528,2117
23.0556,2385
23.0583,2630
23.0611,2755
23.0639,2742
23.0667,2554
23.0694,2301
23.0722,2064
23.0750,1942
23.0778,1874
23.0806,1842
23.0833,1850
23.0861,1872
23.0889,1878
23.0917,1836
23.0944,1768
23.0972,1708
23.1000,1657
23.1028,1627
23.1056,1651
23.1083,1669
23.1111,1660
23.1139,1662
23.1167,1660
23.1194,1647
23.1222,1628
23.1250,1642
23.1278,1661
23.1306,1662
23.1333,1650
23.1361,1640
23.1389,1627
23.1417,1627
23.1444,1646
23.1472,1665
23.1500,1652
23.1528,1658
23.1556,1681
23.1583,1678
23.1611,1662
23.1639,1659
23.1667,1678
23.1694,1673
23.1722,1655
23.1750,1665
23.1778,1663
23.1806,1653
23.1833,1652
23.1861,1667
23.1889,1683
23.1917,1680
23.1944,1691
23.1972,1684
23.2000,1668
23.2028,1663
23.2056,1676
23.2083,1697
23.2111,1699
23.2139,1704
23.2167,1720
23.2194,1709
23.2222,1684
23.2250,1678
23.2278,1692
23.2306,1712
23.2333,1730
23.2361,1736
23.2389,1722
23.2417,1694
23.2444,1695
23.2472,1718
23.2500,1726
23.2528,1727
23.2556,1737
23.2583,1738
23.2611,1727
23.2639,1731
23.2667,1745
23.2694,1747
23.2722,1746
23.2750,1762
23.2778,1764
23.2806,1743
23.2833,1726
23.2861,1729
23.2889,1736
23.2917,1722
23.2944,1716
23.2972,1710
23.3000,1697
23.3028,1697
23.3056,1706
23.3083,1712
23.3111,1709
23.3139,1716
23.3167,1697
23.3194,1689
23.3222,1665
23.3250,1679
23.3278,1685
23.3306,1681
23.3333,1692
23.3361,1704
23.3389,1698
23.3417,1681
23.3444,1686
23.3472,1684
23.3500,1672
23.3528,1665
23.3556,1670
23.3583,1666
23.3611,1670
23.3639,1688
23.3667,1696
23.3694,1685
23.3722,1664
23.3750,1661
23.3778,1665
23.3806,1663
23.3833,1681
23.3861,1692
23.3889,1679
23.3917,1682
23.3944,1676
23.3972,1680
23.4000,1671
23.4028,1669
23.4056,1662
23.4083,1639
23.4111,1635
23.4139,1652
23.4167,1666
23.4194,1666
23.4222,1670
23.4250,1695
23.4278,1684
23.4306,1659
23.4333,1662
23.4361,1680
23.4389,1676
23.4417,1680
23.4444,1677
23.4472,1670
23.4500,1647
23.4528,1653
23.4556,1667
23.4583,1673
23.4611,1676
23.4639,1677
23.4667,1697
23.4694,1678
23.4722,1665
23.4750,1668
23.4778,1659
23.4806,1648
23.4833,1647
23.4861,1661
23.4889,1651
23.4917,1648
23.4944,1659
23.4972,1664
23.5000,1661
23.5028,1654
23.5056,1659
23.5083,1664
23.5111,1649
23.5139,1648
23.5167,1651
23.5194,1656
23.5222,1674
23.5250,1686
23.5278,1690
23.5306,1679
23.5333,1655
23.5361,1659
23.5389,1638
23.5417,1642
23.5444,1652
23.5472,1666
23.5500,1671
23.5528,1676
23.5556,1693
23.5583,1683
23.5611,1691
23.5639,1717
23.5667,1732
23.5694,1736
23.5722,1731
23.5750,1740
23.5778,1740
23.5806,1723
23.5833,1722
23.5861,1737
23.5889,1738
23.5917,1757
23.5944,1781
23.5972,1784
23.6000,1774
23.6028,1754
23.6056,1758
23.6083,1767
23.6111,1765
23.6139,1776
23.6167,1764
23.6194,1723
23.6222,1681
23.6250,1674
23.6278,1665
23.6306,1646
23.6333,1642
23.6361,1641
23.6389,1621
23.6417,1621
23.6444,1635
23.6472,1655
23.6500,1651
23.6528,1657
23.6556,1664
23.6583,1647
23.6611,1632
23.6639,1618
23.6667,1628
23.6694,1631
23.6722,1628
23.6750,1632
23.6778,1638
23.6806,1634
23.6833,1628
23.6861,1647
23.6889,1638
23.6917,1634
23.6944,1644
23.6972,1650
23.7000,1648
23.7028,1624
23.7056,1609
23.7083,1588
23.7111,1576
23.7139,1611
23.7167,1649
23.7194,1686
23.7222,1724
23.7250,1829
23.7278,1974
23.7306,2176
23.7333,2417
23.7361,2653
23.7389,2763
23.7417,2693
23.7444,2481
23.7472,2247
23.7500,2037
23.7528,1927
23.7556,1871
23.7583,1871
23.7611,1870
23.7639,1874
23.7667,1876
23.7694,1826
23.7722,1745
23.7750,1685
23.7778,1655
23.7806,1629
23.7833,1632
23.7861,1656
23.7889,1651
23.7917,1654
23.7944,1647
23.7972,1644
23.8000,1607
23.8028,1590
23.8056,1611
23.8083,1643
23.8111,1654
23.8139,1657
23.8167,1661
23.8194,1641
23.8222,1626
23.8250,1633
23.8278,1658
23.8306,1661
23.8333,1669
23.8361,1656
23.8389,1635
23.8417,1622
23.8444,1654
23.8472,1677
23.8500,1677
23.8528,1672
23.8556,1669
23.8583,1665
23.8611,1661
23.8639,1669
23.8667,1700
23.8694,1689
23.8722,1672
23.8750,1670
23.8778,1669
23.8806,1671
23.8833,1682
23.8861,1702
23.8889,1720
23.8917,1718
23.8944,1716
23.8972,1713
23.9000,1705
23.9028,1702
23.9056,1706
23.9083,1709
23.9111,1722
23.9139,1728
23.9167,1741
23.9194,1723
23.9222,1720
23.9250,1730
23.9278,1717
23.9306,1731
23.9333,1725
23.9361,1729
23.9389,1742
23.9417,1752
23.9444,1772
23.9472,1774
23.9500,1762
23.9528,1746
23.9556,1760
23.9583,1753
23.9611,1748
23.9639,1744
23.9667,1757
23.9694,1748
23.9722,1736
23.9750,1736
23.9778,1717
23.9806,1719
23.9833,1724
23.9861,1725
23.9889,1702
23.9917,1708
23.9944,1716
23.9972,1717
24.0000,1685
24.0028,1683
24.0056,1697
24.0083,1694
24.0111,1694
24.0139,1709
24.0167,1713
24.0194,1696
24.0222,1682
24.0250,1690
24.0278,1694
24.0306,1687
24.0333,1699
24.0361,1710
24.0389,1700
24.0417,1691
24.0444,1699
24.0472,1693
24.0500,1682
24.0528,1687
24.0556,1698
24.0583,1695
24.0611,1698
24.0639,1711
24.0667,1719
24.0694,1705
24.0722,1699
24.0750,1701
24.0778,1695
24.0806,1679
24.0833,1694
24.0861,1712
24.0889,1699
24.0917,1676
24.0944,1677
24.0972,1660
24.1000,1673
24.1028,1687
24.1056,1702
24.1083,1701
24.1111,1701
24.1139,1703
24.1167,1685
24.1194,1689
24.1222,1681
24.1250,1686
24.1278,1673
24.1306,1659
24.1333,1676
24.1361,1698
24.1389,1693
24.1417,1684
24.1444,1675
24.1472,1669
24.1500,1660
24.1528,1666
24.1556,1685
24.1583,1691
24.1611,1674
24.1639,1684
24.1667,1688
24.1694,1677
24.1722,1672
24.1750,1674
24.1778,1681
24.1806,1680
24.1833,1692
24.1861,1701
24.1889,1682
24.1917,1686
24.1944,1680
24.1972,1678
24.2000,1673
24.2028,1673
24.2056,1694
24.2083,1680
24.2111,1676
24.2139,1690
24.2167,1687
24.2194,1680
24.2222,1672
24.2250,1689
24.2278,1691
24.2306,1694
24.2333,1702
24.2361,1732
24.2389,1735
24.2417,1751
24.2444,1758
24.2472,1768
24.2500,1757
24.2528,1755
24.2556,1757
24.2583,1747
24.2611,1741
24.2639,1748
24.2667,1779
24.2694,1787
24.2722,1776
24.2750,1776
24.2778,1775
24.2806,1771
24.2833,1779
24.2861,1785
24.2889,1773
24.2917,1744
24.2944,1728
24.2972,1704
24.3000,1666
24.3028,1648
24.3056,1643
24.3083,1631
24.3111,1621
24.3139,1635
24.3167,1643
24.3194,1650
24.3222,1647
24.3250,1667
24.3278,1657
24.3306,1649
24.3333,1638
24.3361,1638
24.3389,1633
24.3417,1642
24.3444,1656
24.3472,1641
24.3500,1632
24.3528,1633
24.3556,1649
24.3583,1645
24.3611,1650
24.3639,1655
24.3667,1664
24.3694,1647
24.3722,1645
24.3750,1631
24.3778,1608
24.3806,1567
24.3833,1569
24.3861,1608
24.3889,1644
24.3917,1693
24.3944,1764
24.3972,1861
24.4000,2010
24.4028,2239
24.4056,2505
24.4083,2695
24.4111,2742
24.4139,2629
24.4167,2400
24.4194,2148
24.4222,1980
24.4250,1898
24.4278,1870
24.4306,1853
24.4333,1871
24.4361,1867
24.4389,1840
24.4417,1772
24.4444,1719
24.4472,1673
24.4500,1642
24.4528,1638
24.4556,1671
24.4583,1673
24.4611,1663
24.4639,1657
24.4667,1650
24.4694,1626
24.4722,1625
24.4750,1637
24.4778,1645
24.4806,1647
24.4833,1637
24.4861,1635
24.4889,1628
24.4917,1625
24.4944,1654
24.4972,1674
24.5000,1674
24.5028,1686
24.5056,1680
24.5083,1670
24.5111,1643
24.5139,1656
24.5167,1671
24.5194,1668
24.5222,1662
24.5250,1666
24.5278,1661
24.5306,1648
24.5333,1638
24.5361,1667
24.5389,1679
24.5417,1682
24.5444,1696
24.5472,1692
24.5500,1682
24.5528,1683
24.5556,1705
24.5583,1713
24.5611,1713
24.5639,1695
24.5667,1695
24.5694,1678
24.5722,1678
24.5750,1703
24.5778,1709
24.5806,1714
24.5833,1713
24.5861,1720
24.5889,1707
24.5917,1705
24.5944,1725
24.5972,1745
24.6000,1766
24.6028,1754
24.6056,1753
24.6083,1738
24.6111,1724
24.6139,1736
24.6167,1757
24.6194,1760
24.6222,1756
24.6250,1775
24.6278,1767
24.6306,1743
24.6333,1734
24.6361,1739
24.6389,1730
24.6417,1739
24.6444,1740
24.6472,1727
24.6500,1708
24.6528,1724
24.6556,1729
24.6583,1733
24.6611,1726
24.6639,1725
24.6667,1714
24.6694,1705
24.6722,1692
24.6750,1699
24.6778,1695
24.6806,1679
24.6833,1681
24.6861,1681
24.6889,1673
24.6917,1677
24.6944,1699
24.6972,1705
24.7000,1695
24.7028,1697
24.7056,1689
24.7083,1672
24.7111,1673
24.7139,1695
24.7167,1708
24.7194,1692
24.7222,1677
24.7250,1684
24.7278,1681
24.7306,1686
24.7333,1704
24.7361,1711
24.7389,1706
24.7417,1701
24.7444,1714
24.7472,1696
24.7500,1680
24.7528,1694
24.7556,1708
24.7583,1712
24.7611,1700
24.7639,1706
24.7667,1703
24.7694,1693
24.7722,1699
24.7750,1711
24.7778,1704
24.7806,1701
24.7833,1703
24.7861,1700
24.7889,1690
24.7917,1681
24.7944,1688
24.7972,1693
24.8000,1693
24.8028,1703
24.8056,1718
24.8083,1703
24.8111,1701
24.8139,1709
24.8167,1717
24.8194,1709
24.8222,1700
24.8250,1701
24.8278,1707
24.8306,1694
24.8333,1695
24.8361,1709
24.8389,1714
24.8417,1708
24.8444,1729
24.8472,1727
24.8500,1711
24.8528,1697
24.8556,1697
24.8583,1683
24.8611,1697
24.8639,1707
24.8667,1705
24.8694,1698
24.8722,1702
24.8750,1721
24.8778,1724
24.8806,1716
24.8833,1716
24.8861,1723
24.8889,1712
24.8917,1722
24.8944,1752
24.8972,1769
24.9000,1764
24.9028,1771
24.9056,1779
24.9083,1784
24.9111,1777
24.9139,1794
24.9167,1800
24.9194,1788
24.9222,1793
24.9250,1804
24.9278,1793
24.9306,1776
24.9333,1785
24.9361,1818
24.9389,1827
24.9417,1827
24.9444,1816
24.9472,1784
24.9500,1752
24.9528,1740
24.9556,1732
24.9583,1714
24.9611,1698
24.9639,1698
24.9667,1709
24.9694,1694
24.9722,1700
24.9750,1694
24.9778,1682
24.9806,1663
24.9833,1673
24.9861,1679
24.9889,1670
24.9917,1670
24.9944,1687
24.9972,1673
25.0000,1670
25.0028,1685
25.0056,1696
25.0083,1686
25.0111,1689
25.0139,1693
25.0167,1702
25.0194,1684
25.0222,1696
25.0250,1701
25.0278,1697
25.0306,1685
25.0333,1682
25.0361,1661
25.0389,1631
25.0417,1613
25.0444,1627
25.0472,1658
25.0500,1695
25.0528,1750
25.0556,1824
25.0583,1917
25.0611,2092
25.0639,2325
25.0667,2574
25.0694,2730
25.0722,2738
25.0750,2576
25.0778,2347
25.0806,2127
25.0833,1994
25.0861,1917
25.0889,1872
25.0917,1873
25.0944,1901
25.0972,1897
25.1000,1870
25.1028,1817
25.1056,1756
25.1083,1697
25.1111,1670
25.1139,1681
25.1167,1704
25.1194,1701
25.1222,1692
25.1250,1692
25.1278,1679
25.1306,1649
25.1333,1652
25.1361,1664
25.1389,1664
25.1417,1664
25.1444,1680
25.1472,1679
25.1500,1669
25.1528,1664
25.1556,1688
25.1583,1695
25.1611,1706
25.1639,1711
25.1667,1707
25.1694,1668
25.1722,1669
25.1750,1687
25.1778,1695
25.1806,1706
25.1833,1719
25.1861,1713
25.1889,1689
25.1917,1674
25.1944,1683
25.1972,1701
25.2000,1719
25.2028,1727
25.2056,1725
25.2083,1705
25.2111,1697
25.2139,1719
25.2167,1734
25.2194,1726
25.2222,1736
25.2250,1740
25.2278,1722
25.2306,1700
25.2333,1717
25.2361,1731
25.2389,1731
25.2417,1737
25.2444,1734
25.2472,1732
25.2500,1727
25.2528,1726
25.2556,1745
25.2583,1740
25.2611,1778
25.2639,1767
25.2667,1765
25.2694,1755
25.2722,1763
25.2750,1797
25.2778,1797
25.2806,1791
25.2833,1788
25.2861,1765
25.2889,1739
25.2917,1732
25.2944,1756
25.2972,1770
25.3000,1767
25.3028,1768
25.3056,1756
25.3083,1748
25.3111,1747
25.3139,1758
25.3167,1752
25.3194,1746
25.3222,1736
25.3250,1734
25.3278,1710
25.3306,1702
25.3333,1709
25.3361,1711
25.3389,1709
25.3417,1709
25.3444,1707
25.3472,1717
25.3500,1696
25.3528,1714
25.3556,1723
25.3583,1713
25.3611,1709
25.3639,1714
25.3667,1704
25.3694,1709
25.3722,1712
25.3750,1720
25.3778,1706
25.3806,1705
25.3833,1709
25.3861,1697
25.3889,1686
25.3917,1700
25.3944,1716
25.3972,1715
25.4000,1708
25.4028,1715
25.4056,1712
25.4083,1688
25.4111,1692
25.4139,1699
25.4167,1702
25.4194,1712
25.4222,1712
25.4250,1722
25.4278,1701
25.4306,1693
25.4333,1693
25.4361,1708
25.4389,1718
25.4417,1703
25.4444,1707
25.4472,1698
25.4500,1694
25.4528,1718
25.4556,1733
25.4583,1720
25.4611,1713
25.4639,1721
25.4667,1703
25.4694,1668
25.4722,1664
25.4750,1677
25.4778,1673
25.4806,1678
25.4833,1702
25.4861,1706
25.4889,1694
25.4917,1692
25.4944,1693
25.4972,1677
25.5000,1678
25.5028,1690
25.5056,1703
25.5083,1688
25.5111,1687
25.5139,1694
25.5167,1698
25.5194,1688
25.5222,1682
25.5250,1689
25.5278,1681
25.5306,1681
25.5333,1696
25.5361,1703
25.5389,1687
25.5417,1691
25.5444,1713
25.5472,1722
25.5500,1732
25.5528,1753
25.5556,1779
25.5583,1763
25.5611,1753
25.5639,1764
25.5667,1759
25.5694,1752
25.5722,1784
25.5750,1800
25.5778,1791
25.5806,1797
25.5833,1815
25.5861,1815
25.5889,1795
25.5917,1800
25.5944,1813
25.5972,1818
25.6000,1797
25.6028,1788
25.6056,1759
25.6083,1711
25.6111,1693
25.6139,1686
25.6167,1670
25.6194,1653
25.6222,1649
25.6250,1652
25.6278,1652
25.6306,1663
25.6333,1671
25.6361,1680
25.6389,1668
25.6417,1660
25.6444,1652
25.6472,1638
25.6500,1623
25.6528,1641
25.6556,1663
25.6583,1663
25.6611,1664
25.6639,1665
25.6667,1659
25.6694,1640
25.6722,1642
25.6750,1657
25.6778,1656
25.6806,1647
25.6833,1663
25.6861,1663
25.6889,1632
25.6917,1607
25.6944,1591
25.6972,1576
25.7000,1590
25.7028,1647
25.7056,1685
25.7083,1735
25.7111,1804
25.7139,1946
25.7167,2141
25.7194,2395
25.7222,2631
25.7250,2787
25.7278,2749
25.7306,2540
25.7333,2280
25.7361,2070
25.7389,1934
25.7417,1874
25.7444,1875
25.7472,1883
25.7500,1880
25.7528,1859
25.7556,1818
25.7583,1753
25.7611,1683
25.7639,1652
25.7667,1647
25.7694,1645
25.7722,1657
25.7750,1680
25.7778,1669
25.7806,1653
25.7833,1655
25.7861,1646
25.7889,1630
25.7917,1621
25.7944,1660
25.7972,1659
25.8000,1653
25.8028,1657
25.8056,1659
25.8083,1649
25.8111,1648
25.8139,1670
25.8167,1679
25.8194,1671
25.8222,1660
25.8250,1664
25.8278,1657
25.8306,1651
25.8333,1672
25.8361,1689
25.8389,1673
25.8417,1660
25.8444,1642
25.8472,1643
25.8500,1667
25.8528,1696
25.8556,1715
25.8583,1700
25.8611,1688
25.8639,1686
25.8667,1681
25.8694,1681
25.8722,1708
25.8750,1731
25.8778,1724
25.8806,1703
25.8833,1703
25.8861,1701
25.8889,1700
25.8917,1721
25.8944,1752
25.8972,1768
25.9000,1755
25.9028,1751
25.9056,1744
25.9083,1726
25.9111,1721
25.9139,1753
25.9167,1788
25.9194,1765
25.9222,1768
25.9250,1771
25.9278,1747
25.9306,1745
25.9333,1768
25.9361,1772
25.9389,1772
25.9417,1780
25.9444,1785
25.9472,1766
25.9500,1753
25.9528,1760
25.9556,1756
25.9583,1740
25.9611,1728
25.9639,1715
25.9667,1713
25.9694,1681
25.9722,1695
25.9750,1704
25.9778,1715
25.9806,1704
25.9833,1694
25.9861,1678
25.9889,1680
25.9917,1689
25.9944,1705
25.9972,1702
26.0000,1698
26.0028,1701
26.0056,1700
26.0083,1681
26.0111,1681
26.0139,1698
26.0167,1703
26.0194,1698
26.0222,1718
26.0250,1713
26.0278,1695
26.0306,1704
26.0333,1708
26.0361,1705
26.0389,1696
26.0417,1700
26.0444,1706
26.0472,1699
26.0500,1686
26.0528,1682
26.0556,1686
26.0583,1676
26.0611,1672
26.0639,1683
26.0667,1683
26.0694,1694
26.0722,1704
26.0750,1719
26.0778,1710
26.0806,1696
26.0833,1691
26.0861,1688
26.0889,1671
26.0917,1673
26.0944,1699
26.0972,1696
26.1000,1695
26.1028,1703
26.1056,1698
26.1083,1680
26.1111,1686
26.1139,1710
26.1167,1701
26.1194,1702
26.1222,1703
26.1250,1700
26.1278,1679
26.1306,1682
26.1333,1692
26.1361,1697
26.1389,1680
26.1417,1688
26.1444,1696
26.1472,1683
26.1500,1685
26.1528,1712
26.1556,1711
26.1583,1686
26.1611,1673
26.1639,1688
26.1667,1688
26.1694,1693
26.1722,1711
26.1750,1719
26.1778,1692
26.1806,1689
26.1833,1687
26.1861,1679
26.1889,1666
26.1917,1689
26.1944,1716
26.1972,1711
26.2000,1700
26.2028,1698
26.2056,1705
26.2083,1695
26.2111,1720
26.2139,1750
26.2167,1761
26.2194,1760
26.2222,1775
26.2250,1778
26.2278,1760
26.2306,1770
26.2333,1782
26.2361,1782
26.2389,1758
26.2417,1766
26.2444,1782
26.2472,1770
26.2500,1780
26.2528,1808
26.2556,1815
26.2583,1827
26.2611,1823
26.2639,1822
26.2667,1804
26.2694,1769
26.2722,1747
26.2750,1735
26.2778,1697
26.2806,1684
26.2833,1683
26.2861,1673
26.2889,1664
26.2917,1659
26.2944,1657
26.2972,1662
26.3000,1664
26.3028,1676
26.3056,1667
26.3083,1663
26.3111,1674
26.3139,1692
26.3167,1673
26.3194,1653
26.3222,1647
26.3250,1655
26.3278,1651
26.3306,1660
26.3333,1678
26.3361,1678
26.3389,1663
26.3417,1671
26.3444,1674
26.3472,1665
26.3500,1661
26.3528,1663
26.3556,1664
26.3583,1624
26.3611,1591
26.3639,1591
26.3667,1597
26.3694,1641
26.3722,1688
26.3750,1754
26.3778,1838
26.3806,1973
26.3833,2208
26.3861,2464
26.3889,2689
26.3917,2807
26.3944,2755
26.3972,2517
26.4000,2254
26.4028,2059
26.4056,1917
