Tiempo(s),Valor_ADC
0.0028,1539
0.0056,1389
0.0083,1311
0.0111,1299
0.0139,1366
0.0167,1430
0.0194,1514
0.0222,1573
0.0250,1588
0.0278,1604
0.0306,1612
0.0333,1608
0.0361,1620
0.0389,1636
0.0417,1660
0.0444,1628
0.0472,1603
0.0500,1583
0.0528,1583
0.0556,1591
0.0583,1614
0.0611,1653
0.0639,1653
0.0667,1642
0.0694,1618
0.0722,1632
0.0750,1618
0.0778,1644
0.0806,1659
0.0833,1656
0.0861,1644
0.0889,1631
0.0917,1632
0.0944,1629
0.0972,1645
0.1000,1682
0.1028,1722
0.1056,1724
0.1083,1703
0.1111,1690
0.1139,1689
0.1167,1666
0.1194,1670
0.1222,1692
0.1250,1679
0.1278,1695
0.1306,1711
0.1333,1736
0.1361,1738
0.1389,1734
0.1417,1775
0.1444,1794
0.1472,1798
0.1500,1807
0.1528,1776
0.1556,1728
0.1583,1679
0.1611,1671
0.1639,1654
0.1667,1666
0.1694,1675
0.1722,1735
0.1750,1758
0.1778,1783
0.1806,1797
0.1833,1793
0.1861,1789
0.1889,1793
0.1917,1802
0.1944,1807
0.1972,1737
0.2000,1826
0.2028,1867
0.2056,1881
0.2083,1847
0.2111,1830
0.2139,1783
0.2167,1743
0.2194,1760
0.2222,1801
0.2250,1817
0.2278,1818
0.2306,1801
0.2333,1742
0.2361,1696
0.2389,1717
0.2417,1742
0.2444,1753
0.2472,1770
0.2500,1763
0.2528,1726
0.2556,1679
0.2583,1669
0.2611,1694
0.2639,1722
0.2667,1736
0.2694,1717
0.2722,1691
0.2750,1643
0.2778,1615
0.2806,1634
0.2833,1667
0.2861,1692
0.2889,1707
0.2917,1691
0.2944,1654
0.2972,1671
0.3000,1699
0.3028,1721
0.3056,1722
0.3083,1706
0.3111,1677
0.3139,1655
0.3167,1623
0.3194,1645
0.3222,1669
0.3250,1716
0.3278,1740
0.3306,1726
0.3333,1668
0.3361,1609
0.3389,1616
0.3417,1655
0.3444,1706
0.3472,1719
0.3500,1734
0.3528,1718
0.3556,1686
0.3583,1698
0.3611,1724
0.3639,1766
0.3667,1776
0.3694,1763
0.3722,1733
0.3750,1661
0.3778,1609
0.3806,1620
0.3833,1601
0.3861,1610
0.3889,1614
0.3917,1628
0.3944,1628
0.3972,1627
0.4000,1652
0.4028,1671
0.4056,1670
0.4083,1681
0.4111,1682
0.4139,1653
0.4167,1612
0.4194,1604
0.4222,1618
0.4250,1652
0.4278,1654
0.4306,1685
0.4333,1681
0.4361,1662
0.4389,1656
0.4417,1641
0.4444,1634
0.4472,1616
0.4500,1635
0.4528,1646
0.4556,1653
0.4583,1651
0.4611,1658
0.4639,1648
0.4667,1645
0.4694,1665
0.4722,1677
0.4750,1648
0.4778,1611
0.4806,1602
0.4833,1610
0.4861,1612
0.4889,1631
0.4917,1641
0.4944,1625
0.4972,1606
0.5000,1621
0.5028,1607
0.5056,1590
0.5083,1592
0.5111,1606
0.5139,1592
0.5167,1592
0.5194,1613
0.5222,1619
0.5250,1620
0.5278,1622
0.5306,1629
0.5333,1603
0.5361,1566
0.5389,1568
0.5417,1595
0.5444,1613
0.5472,1620
0.5500,1624
0.5528,1620
0.5556,1601
0.5583,1598
0.5611,1636
0.5639,1638
0.5667,1619
0.5694,1608
0.5722,1617
0.5750,1587
0.5778,1578
0.5806,1607
0.5833,1614
0.5861,1621
0.5889,1616
0.5917,1626
0.5944,1612
0.5972,1611
0.6000,1637
0.6028,1645
0.6056,1642
0.6083,1647
0.6111,1652
0.6139,1615
0.6167,1601
0.6194,1610
0.6222,1636
0.6250,1638
0.6278,1646
0.6306,1662
0.6333,1679
0.6361,1672
0.6389,1687
0.6417,1680
0.6444,1665
0.6472,1660
0.6500,1670
0.6528,1677
0.6556,1663
0.6583,1670
0.6611,1694
0.6639,1705
0.6667,1718
0.6694,1739
0.6722,1758
0.6750,1736
0.6778,1739
0.6806,1760
0.6833,1732
0.6861,1735
0.6889,1725
0.6917,1730
0.6944,1703
0.6972,1701
0.7000,1704
0.7028,1701
0.7056,1706
0.7083,1704
0.7111,1710
0.7139,1693
0.7167,1675
0.7194,1652
0.7222,1643
0.7250,1605
0.7278,1620
0.7306,1637
0.7333,1636
0.7361,1619
0.7389,1633
0.7417,1646
0.7444,1643
0.7472,1626
0.7500,1637
0.7528,1620
0.7556,1614
0.7583,1633
0.7611,1651
0.7639,1623
0.7667,1636
0.7694,1661
0.7722,1679
0.7750,1657
0.7778,1651
0.7806,1664
0.7833,1649
0.7861,1656
0.7889,1658
0.7917,1667
0.7944,1665
0.7972,1673
0.8000,1721
0.8028,1764
0.8056,1818
0.8083,1883
0.8111,1974
0.8139,2032
0.8167,2086
0.8194,2145
0.8222,2187
0.8250,2148
0.8278,2041
0.8306,1926
0.8333,1790
0.8361,1646
0.8389,1529
0.8417,1486
0.8444,1470
0.8472,1505
0.8500,1560
0.8528,1594
0.8556,1613
0.8583,1626
0.8611,1660
0.8639,1663
0.8667,1659
0.8694,1672
0.8722,1682
0.8750,1674
0.8778,1674
0.8806,1691
0.8833,1687
0.8861,1676
0.8889,1658
0.8917,1656
0.8944,1640
0.8972,1620
0.9000,1658
0.9028,1700
0.9056,1721
0.9083,1714
0.9111,1713
0.9139,1678
0.9167,1658
0.9194,1662
0.9222,1676
0.9250,1671
0.9278,1672
0.9306,1688
0.9333,1681
0.9361,1683
0.9389,1692
0.9417,1685
0.9444,1693
0.9472,1680
0.9500,1693
0.9528,1687
0.9556,1659
0.9583,1671
0.9611,1683
0.9639,1674
0.9667,1671
0.9694,1674
0.9722,1685
0.9750,1689
0.9778,1692
0.9806,1719
0.9833,1725
0.9861,1709
0.9889,1695
0.9917,1714
0.9944,1693
0.9972,1683
1.0000,1690
1.0028,1677
1.0056,1679
1.0083,1685
1.0111,1730
1.0139,1734
1.0167,1730
1.0194,1737
1.0222,1740
1.0250,1739
1.0278,1744
1.0306,1809
1.0333,1777
1.0361,1764
1.0389,1804
1.0417,1835
1.0444,1835
1.0472,1835
1.0500,1805
1.0528,1764
1.0556,1724
1.0583,1738
1.0611,1765
1.0639,1773
1.0667,1768
1.0694,1755
1.0722,1709
1.0750,1667
1.0778,1677
1.0806,1681
1.0833,1677
1.0861,1679
1.0889,1693
1.0917,1690
1.0944,1654
1.0972,1670
1.1000,1674
1.1028,1697
1.1056,1721
1.1083,1701
1.1111,1686
1.1139,1630
1.1167,1631
1.1194,1654
1.1222,1662
1.1250,1665
1.1278,1675
1.1306,1681
1.1333,1651
1.1361,1631
1.1389,1672
1.1417,1698
1.1444,1714
1.1472,1715
1.1500,1705
1.1528,1682
1.1556,1652
1.1583,1678
1.1611,1706
1.1639,1709
1.1667,1710
1.1694,1693
1.1722,1671
1.1750,1637
1.1778,1661
1.1806,1685
1.1833,1714
1.1861,1731
1.1889,1728
1.1917,1711
1.1944,1678
1.1972,1656
1.2000,1681
1.2028,1682
1.2056,1698
1.2083,1712
1.2111,1738
1.2139,1686
1.2167,1680
1.2194,1690
1.2222,1720
1.2250,1729
1.2278,1732
1.2306,1722
1.2333,1694
1.2361,1680
1.2389,1688
1.2417,1704
1.2444,1692
1.2472,1720
1.2500,1717
1.2528,1724
1.2556,1699
1.2583,1716
1.2611,1718
1.2639,1726
1.2667,1713
1.2694,1712
1.2722,1679
1.2750,1646
1.2778,1651
1.2806,1664
1.2833,1683
1.2861,1697
1.2889,1709
1.2917,1706
1.2944,1666
1.2972,1669
1.3000,1689
1.3028,1701
1.3056,1715
1.3083,1722
1.3111,1711
1.3139,1686
1.3167,1657
1.3194,1677
1.3222,1673
1.3250,1687
1.3278,1700
1.3306,1695
1.3333,1707
1.3361,1700
1.3389,1705
1.3417,1705
1.3444,1703
1.3472,1702
1.3500,1688
1.3528,1674
1.3556,1670
1.3583,1676
1.3611,1684
1.3639,1698
1.3667,1704
1.3694,1721
1.3722,1713
1.3750,1695
1.3778,1692
1.3806,1697
1.3833,1695
1.3861,1698
1.3889,1704
1.3917,1722
1.3944,1716
1.3972,1723
1.4000,1741
1.4028,1730
1.4056,1721
1.4083,1709
1.4111,1708
1.4139,1689
1.4167,1691
1.4194,1703
1.4222,1700
1.4250,1691
1.4278,1718
1.4306,1753
1.4333,1724
1.4361,1683
1.4389,1672
1.4417,1697
1.4444,1700
1.4472,1716
1.4500,1728
1.4528,1725
1.4556,1722
1.4583,1736
1.4611,1740
1.4639,1724
1.4667,1700
1.4694,1705
1.4722,1701
1.4750,1685
1.4778,1683
1.4806,1679
1.4833,1661
1.4861,1670
1.4889,1684
1.4917,1676
1.4944,1634
1.4972,1621
1.5000,1636
1.5028,1647
1.5056,1649
1.5083,1633
1.5111,1607
1.5139,1565
1.5167,1566
1.5194,1571
1.5222,1584
1.5250,1592
1.5278,1595
1.5306,1613
1.5333,1639
1.5361,1631
1.5389,1644
1.5417,1639
1.5444,1608
1.5472,1611
1.5500,1606
1.5528,1611
1.5556,1615
1.5583,1618
1.5611,1626
1.5639,1604
1.5667,1618
1.5694,1644
1.5722,1672
1.5750,1722
1.5778,1781
1.5806,1865
1.5833,1944
1.5861,2004
1.5889,2072
1.5917,2132
1.5944,2118
1.5972,2067
1.6000,1976
1.6028,1839
1.6056,1687
1.6083,1555
1.6111,1466
1.6139,1393
1.6167,1418
1.6194,1511
1.6222,1578
1.6250,1627
1.6278,1653
1.6306,1680
1.6333,1656
1.6361,1625
1.6389,1649
1.6417,1658
1.6444,1662
1.6472,1648
1.6500,1630
1.6528,1623
1.6556,1611
1.6583,1614
1.6611,1616
1.6639,1621
1.6667,1627
1.6694,1641
1.6722,1630
1.6750,1612
1.6778,1626
1.6806,1631
1.6833,1633
1.6861,1646
1.6889,1668
1.6917,1684
1.6944,1672
1.6972,1668
1.7000,1692
1.7028,1691
1.7056,1702
1.7083,1695
1.7111,1680
1.7139,1656
1.7167,1635
1.7194,1639
1.7222,1640
1.7250,1624
1.7278,1634
1.7306,1673
1.7333,1677
1.7361,1686
1.7389,1685
1.7417,1697
1.7444,1682
1.7472,1689
1.7500,1700
1.7528,1708
1.7556,1681
1.7583,1686
1.7611,1692
1.7639,1707
1.7667,1721
1.7694,1745
1.7722,1735
1.7750,1725
1.7778,1733
1.7806,1733
1.7833,1746
1.7861,1746
1.7889,1742
1.7917,1746
1.7944,1720
1.7972,1745
1.8000,1828
1.8028,1832
1.8056,1854
1.8083,1862
1.8111,1825
1.8139,1772
1.8167,1764
1.8194,1768
1.8222,1789
1.8250,1789
1.8278,1798
1.8306,1765
1.8333,1722
1.8361,1701
1.8389,1718
1.8417,1727
1.8444,1746
1.8472,1743
1.8500,1731
1.8528,1703
1.8556,1685
1.8583,1700
1.8611,1706
1.8639,1718
1.8667,1719
1.8694,1688
1.8722,1642
1.8750,1614
1.8778,1629
1.8806,1649
1.8833,1653
1.8861,1680
1.8889,1674
1.8917,1649
1.8944,1618
1.8972,1635
1.9000,1655
1.9028,1680
1.9056,1684
1.9083,1698
1.9111,1696
1.9139,1642
1.9167,1640
1.9194,1665
1.9222,1699
1.9250,1709
1.9278,1721
1.9306,1719
1.9333,1685
1.9361,1676
1.9389,1698
1.9417,1704
1.9444,1700
1.9472,1712
1.9500,1708
1.9528,1693
1.9556,1687
1.9583,1708
1.9611,1702
1.9639,1692
1.9667,1702
1.9694,1704
1.9722,1679
1.9750,1658
1.9778,1669
1.9806,1676
1.9833,1697
1.9861,1707
1.9889,1698
1.9917,1682
1.9944,1664
1.9972,1689
2.0000,1703
2.0028,1697
2.0056,1687
2.0083,1659
2.0111,1652
2.0139,1649
2.0167,1662
2.0194,1693
2.0222,1710
2.0250,1698
2.0278,1707
2.0306,1673
2.0333,1629
2.0361,1618
2.0389,1636
2.0417,1640
2.0444,1647
2.0472,1665
2.0500,1663
2.0528,1636
2.0556,1620
2.0583,1646
2.0611,1665
2.0639,1673
2.0667,1685
2.0694,1678
2.0722,1632
2.0750,1610
2.0778,1637
2.0806,1655
2.0833,1683
2.0861,1697
2.0889,1699
2.0917,1680
2.0944,1648
2.0972,1662
2.1000,1672
2.1028,1680
2.1056,1670
2.1083,1678
2.1111,1655
2.1139,1647
2.1167,1662
2.1194,1681
2.1222,1695
2.1250,1709
2.1278,1723
2.1306,1699
2.1333,1665
2.1361,1651
2.1389,1674
2.1417,1685
2.1444,1688
2.1472,1705
2.1500,1741
2.1528,1708
2.1556,1681
2.1583,1691
2.1611,1693
2.1639,1697
2.1667,1704
2.1694,1708
2.1722,1677
2.1750,1683
2.1778,1707
2.1806,1721
2.1833,1726
2.1861,1737
2.1889,1741
2.1917,1725
2.1944,1689
2.1972,1707
2.2000,1747
2.2028,1755
2.2056,1767
2.2083,1776
2.2111,1770
2.2139,1760
2.2167,1757
2.2194,1776
2.2222,1790
2.2250,1795
2.2278,1796
2.2306,1787
2.2333,1762
2.2361,1733
2.2389,1737
2.2417,1726
2.2444,1713
2.2472,1708
2.2500,1737
2.2528,1723
2.2556,1709
2.2583,1704
2.2611,1707
2.2639,1701
2.2667,1679
2.2694,1678
2.2722,1635
2.2750,1617
2.2778,1616
2.2806,1620
2.2833,1627
2.2861,1642
2.2889,1659
2.2917,1648
2.2944,1640
2.2972,1635
2.3000,1663
2.3028,1673
2.3056,1697
2.3083,1714
2.3111,1681
2.3139,1644
2.3167,1647
2.3194,1657
2.3222,1658
2.3250,1671
2.3278,1680
2.3306,1684
2.3333,1686
2.3361,1718
2.3389,1768
2.3417,1820
2.3444,1863
2.3472,1937
2.3500,1997
2.3528,2046
2.3556,2099
2.3583,2153
2.3611,2163
2.3639,2096
2.3667,2009
2.3694,1891
2.3722,1748
2.3750,1577
2.3778,1487
2.3806,1433
2.3833,1434
2.3861,1484
2.3889,1561
2.3917,1615
2.3944,1653
2.3972,1680
2.4000,1702
2.4028,1680
2.4056,1643
2.4083,1630
2.4111,1624
2.4139,1613
2.4167,1649
2.4194,1674
2.4222,1667
2.4250,1644
2.4278,1660
2.4306,1664
2.4333,1663
2.4361,1657
2.4389,1657
2.4417,1650
2.4444,1652
2.4472,1648
2.4500,1649
2.4528,1652
2.4556,1659
2.4583,1666
2.4611,1660
2.4639,1663
2.4667,1672
2.4694,1688
2.4722,1668
2.4750,1663
2.4778,1666
2.4806,1664
2.4833,1656
2.4861,1669
2.4889,1691
2.4917,1697
2.4944,1692
2.4972,1710
2.5000,1725
2.5028,1699
2.5056,1696
2.5083,1688
2.5111,1685
2.5139,1670
2.5167,1679
2.5194,1706
2.5222,1707
2.5250,1702
2.5278,1694
2.5306,1700
2.5333,1694
2.5361,1704
2.5389,1754
2.5417,1764
2.5444,1758
2.5472,1757
2.5500,1787
2.5528,1782
2.5556,1776
2.5583,1805
2.5611,1780
2.5639,1763
2.5667,1755
2.5694,1802
2.5722,1811
2.5750,1777
2.5778,1807
2.5806,1833
2.5833,1836
2.5861,1827
2.5889,1789
2.5917,1733
2.5944,1704
2.5972,1724
2.6000,1739
2.6028,1745
2.6056,1744
2.6083,1708
2.6111,1647
2.6139,1624
2.6167,1639
2.6194,1666
2.6222,1703
2.6250,1717
2.6278,1703
2.6306,1660
2.6333,1615
2.6361,1598
2.6389,1610
2.6417,1630
2.6444,1657
2.6472,1668
2.6500,1659
2.6528,1627
2.6556,1641
2.6583,1657
2.6611,1666
2.6639,1689
2.6667,1694
2.6694,1683
2.6722,1651
2.6750,1655
2.6778,1668
2.6806,1677
2.6833,1692
2.6861,1680
2.6889,1659
2.6917,1608
2.6944,1592
2.6972,1613
2.7000,1639
2.7028,1664
2.7056,1677
2.7083,1698
2.7111,1665
2.7139,1627
2.7167,1650
2.7194,1664
2.7222,1671
2.7250,1674
2.7278,1674
2.7306,1661
2.7333,1654
2.7361,1667
2.7389,1674
2.7417,1667
2.7444,1648
2.7472,1639
2.7500,1638
2.7528,1621
2.7556,1630
2.7583,1669
2.7611,1676
2.7639,1684
2.7667,1704
2.7694,1695
2.7722,1628
2.7750,1605
2.7778,1611
2.7806,1627
2.7833,1649
2.7861,1688
2.7889,1711
2.7917,1678
2.7944,1646
2.7972,1661
2.8000,1656
2.8028,1659
2.8056,1661
2.8083,1690
2.8111,1679
2.8139,1672
2.8167,1693
2.8194,1697
2.8222,1686
2.8250,1677
2.8278,1675
2.8306,1667
2.8333,1653
2.8361,1670
2.8389,1686
2.8417,1689
2.8444,1689
2.8472,1689
2.8500,1682
2.8528,1655
2.8556,1648
2.8583,1651
2.8611,1679
2.8639,1694
2.8667,1712
2.8694,1701
2.8722,1666
2.8750,1649
2.8778,1665
2.8806,1686
2.8833,1699
2.8861,1707
2.8889,1714
2.8917,1691
2.8944,1680
2.8972,1701
2.9000,1713
2.9028,1730
2.9056,1735
2.9083,1738
2.9111,1710
2.9139,1691
2.9167,1685
2.9194,1696
2.9222,1691
2.9250,1673
2.9278,1692
2.9306,1686
2.9333,1684
2.9361,1693
2.9389,1695
2.9417,1710
2.9444,1730
2.9472,1758
2.9500,1752
2.9528,1755
2.9556,1752
2.9583,1765
2.9611,1751
2.9639,1758
2.9667,1776
2.9694,1779
2.9722,1760
2.9750,1749
2.9778,1751
2.9806,1767
2.9833,1759
2.9861,1760
2.9889,1746
2.9917,1696
2.9944,1673
2.9972,1697
3.0000,1719
3.0028,1731
3.0056,1725
3.0083,1721
3.0111,1672
3.0139,1648
3.0167,1668
3.0194,1666
3.0222,1673
3.0250,1693
3.0278,1710
3.0306,1684
3.0333,1650
3.0361,1646
3.0389,1637
3.0417,1647
3.0444,1679
3.0472,1705
3.0500,1702
3.0528,1683
3.0556,1674
3.0583,1679
3.0611,1662
3.0639,1678
3.0667,1697
3.0694,1698
3.0722,1679
3.0750,1636
3.0778,1649
3.0806,1677
3.0833,1721
3.0861,1782
3.0889,1855
3.0917,1871
3.0944,1922
3.0972,1991
3.1000,2046
3.1028,2112
3.1056,2156
3.1083,2164
3.1111,2084
3.1139,1964
3.1167,1849
3.1194,1695
3.1222,1577
3.1250,1514
3.1278,1505
3.1306,1505
3.1333,1549
3.1361,1624
3.1389,1664
3.1417,1669
3.1444,1647
3.1472,1664
3.1500,1666
3.1528,1669
3.1556,1677
3.1583,1675
3.1611,1676
3.1639,1664
3.1667,1678
3.1694,1668
3.1722,1645
3.1750,1668
3.1778,1688
3.1806,1689
3.1833,1696
3.1861,1711
3.1889,1724
3.1917,1713
3.1944,1682
3.1972,1710
3.2000,1720
3.2028,1704
3.2056,1706
3.2083,1694
3.2111,1693
3.2139,1678
3.2167,1705
3.2194,1712
3.2222,1706
3.2250,1694
3.2278,1702
3.2306,1688
3.2333,1698
3.2361,1707
3.2389,1731
3.2417,1720
3.2444,1712
3.2472,1722
3.2500,1728
3.2528,1716
3.2556,1738
3.2583,1751
3.2611,1741
3.2639,1732
3.2667,1724
3.2694,1741
3.2722,1729
3.2750,1725
3.2778,1747
3.2806,1750
3.2833,1762
3.2861,1759
3.2889,1770
3.2917,1768
3.2944,1762
3.2972,1797
3.3000,1807
3.3028,1816
3.3056,1830
3.3083,1815
3.3111,1787
3.3139,1709
3.3167,1811
3.3194,1829
3.3222,1848
3.3250,1846
3.3278,1825
3.3306,1772
3.3333,1737
3.3361,1751
3.3389,1763
3.3417,1786
3.3444,1792
3.3472,1781
3.3500,1722
3.3528,1675
3.3556,1701
3.3583,1742
3.3611,1772
3.3639,1776
3.3667,1768
3.3694,1738
3.3722,1693
3.3750,1681
3.3778,1695
3.3806,1707
3.3833,1716
3.3861,1716
3.3889,1698
3.3917,1690
3.3944,1708
3.3972,1743
3.4000,1744
3.4028,1751
3.4056,1749
3.4083,1713
3.4111,1667
3.4139,1672
3.4167,1712
3.4194,1719
3.4222,1745
3.4250,1735
3.4278,1713
3.4306,1669
3.4333,1660
3.4361,1684
3.4389,1695
3.4417,1716
3.4444,1707
3.4472,1727
3.4500,1705
3.4528,1692
3.4556,1722
3.4583,1733
3.4611,1762
3.4639,1775
3.4667,1785
3.4694,1755
3.4722,1700
3.4750,1686
3.4778,1684
3.4806,1707
3.4833,1728
3.4861,1756
3.4889,1757
3.4917,1731
3.4944,1756
3.4972,1763
3.5000,1743
3.5028,1722
3.5056,1719
3.5083,1701
3.5111,1666
3.5139,1688
3.5167,1726
3.5194,1742
3.5222,1746
3.5250,1759
3.5278,1763
3.5306,1735
3.5333,1707
3.5361,1715
3.5389,1703
3.5417,1709
3.5444,1701
3.5472,1694
3.5500,1670
3.5528,1646
3.5556,1670
3.5583,1692
3.5611,1683
3.5639,1684
3.5667,1695
3.5694,1698
3.5722,1672
3.5750,1702
3.5778,1714
3.5806,1709
3.5833,1714
3.5861,1729
3.5889,1712
3.5917,1693
3.5944,1707
3.5972,1716
3.6000,1727
3.6028,1730
3.6056,1728
3.6083,1701
3.6111,1671
3.6139,1664
3.6167,1679
3.6194,1714
3.6222,1712
3.6250,1721
3.6278,1709
3.6306,1688
3.6333,1690
3.6361,1693
3.6389,1708
3.6417,1710
3.6444,1725
3.6472,1740
3.6500,1729
3.6528,1700
3.6556,1723
3.6583,1742
3.6611,1741
3.6639,1730
3.6667,1737
3.6694,1733
3.6722,1712
3.6750,1752
3.6778,1765
3.6806,1769
3.6833,1781
3.6861,1777
3.6889,1751
3.6917,1708
3.6944,1723
3.6972,1758
3.7000,1774
3.7028,1802
3.7056,1800
3.7083,1781
3.7111,1747
3.7139,1723
3.7167,1712
3.7194,1712
3.7222,1718
3.7250,1731
3.7278,1741
3.7306,1730
3.7333,1720
3.7361,1721
3.7389,1720
3.7417,1698
3.7444,1687
3.7472,1679
3.7500,1652
3.7528,1631
3.7556,1635
3.7583,1638
3.7611,1639
3.7639,1645
3.7667,1671
3.7694,1670
3.7722,1671
3.7750,1678
3.7778,1698
3.7806,1700
3.7833,1697
3.7861,1704
3.7889,1688
3.7917,1662
3.7944,1668
3.7972,1691
3.8000,1691
3.8028,1685
3.8056,1682
3.8083,1687
3.8111,1681
3.8139,1704
3.8167,1768
3.8194,1808
3.8222,1853
3.8250,1927
3.8278,1996
3.8306,2040
3.8333,2121
3.8361,2178
3.8389,2171
3.8417,2077
3.8444,1963
3.8472,1838
3.8500,1664
3.8528,1544
3.8556,1481
3.8583,1466
3.8611,1486
3.8639,1560
3.8667,1612
3.8694,1636
3.8722,1649
3.8750,1654
3.8778,1660
3.8806,1667
3.8833,1666
3.8861,1668
3.8889,1650
3.8917,1620
3.8944,1629
3.8972,1637
3.9000,1643
3.9028,1653
3.9056,1662
3.9083,1669
3.9111,1665
3.9139,1667
3.9167,1703
3.9194,1710
3.9222,1712
3.9250,1712
3.9278,1701
3.9306,1684
3.9333,1672
3.9361,1703
3.9389,1696
3.9417,1700
3.9444,1713
3.9472,1695
3.9500,1698
3.9528,1692
3.9556,1700
3.9583,1706
3.9611,1684
3.9639,1674
3.9667,1691
3.9694,1703
3.9722,1697
3.9750,1713
3.9778,1719
3.9806,1709
3.9833,1716
3.9861,1714
3.9889,1721
3.9917,1717
3.9944,1736
3.9972,1753
4.0000,1737
4.0028,1728
4.0056,1733
4.0083,1746
4.0111,1741
4.0139,1735
4.0167,1750
4.0194,1761
4.0222,1757
4.0250,1752
4.0278,1766
4.0306,1752
4.0333,1764
4.0361,1777
4.0389,1767
4.0417,1761
4.0444,1921
4.0472,1847
4.0500,1794
4.0528,1774
4.0556,1805
4.0583,1833
4.0611,1847
4.0639,1848
4.0667,1812
4.0694,1733
4.0722,1698
4.0750,1716
4.0778,1740
4.0806,1746
4.0833,1754
4.0861,1740
4.0889,1686
4.0917,1655
4.0944,1688
4.0972,1707
4.1000,1723
4.1028,1713
4.1056,1706
4.1083,1675
4.1111,1654
4.1139,1675
4.1167,1701
4.1194,1710
4.1222,1734
4.1250,1746
4.1278,1715
4.1306,1681
4.1333,1698
4.1361,1717
4.1389,1714
4.1417,1716
4.1444,1721
4.1472,1700
4.1500,1660
4.1528,1659
4.1556,1680
4.1583,1688
4.1611,1720
4.1639,1713
4.1667,1693
4.1694,1656
4.1722,1642
4.1750,1680
4.1778,1698
4.1806,1717
4.1833,1740
4.1861,1729
4.1889,1694
4.1917,1657
4.1944,1667
4.1972,1668
4.2000,1677
4.2028,1683
4.2056,1691
4.2083,1678
4.2111,1647
4.2139,1661
4.2167,1693
4.2194,1701
4.2222,1721
4.2250,1723
4.2278,1697
4.2306,1665
4.2333,1661
4.2361,1689
4.2389,1691
4.2417,1685
4.2444,1677
4.2472,1686
4.2500,1647
4.2528,1663
4.2556,1686
4.2583,1694
4.2611,1694
4.2639,1706
4.2667,1697
4.2694,1657
4.2722,1656
4.2750,1673
4.2778,1701
4.2806,1701
4.2833,1705
4.2861,1706
4.2889,1663
4.2917,1636
4.2944,1659
4.2972,1682
4.3000,1691
4.3028,1691
4.3056,1683
4.3083,1663
4.3111,1622
4.3139,1651
4.3167,1681
4.3194,1687
4.3222,1693
4.3250,1708
4.3278,1702
4.3306,1672
4.3333,1663
4.3361,1686
4.3389,1684
4.3417,1680
4.3444,1685
4.3472,1669
4.3500,1648
4.3528,1655
4.3556,1677
4.3583,1690
4.3611,1699
4.3639,1711
4.3667,1740
4.3694,1691
4.3722,1681
4.3750,1688
4.3778,1702
4.3806,1712
4.3833,1728
4.3861,1730
4.3889,1722
4.3917,1701
4.3944,1700
4.3972,1706
4.4000,1713
4.4028,1735
4.4056,1744
4.4083,1738
4.4111,1721
4.4139,1738
4.4167,1763
4.4194,1768
4.4222,1763
4.4250,1779
4.4278,1770
4.4306,1748
4.4333,1746
4.4361,1715
4.4389,1695
4.4417,1689
4.4444,1711
4.4472,1715
4.4500,1703
4.4528,1678
4.4556,1682
4.4583,1676
4.4611,1670
4.4639,1685
4.4667,1684
4.4694,1655
4.4722,1655
4.4750,1659
4.4778,1670
4.4806,1674
4.4833,1686
4.4861,1694
4.4889,1679
4.4917,1669
4.4944,1692
4.4972,1694
4.5000,1701
4.5028,1696
4.5056,1707
4.5083,1708
4.5111,1692
4.5139,1693
4.5167,1705
4.5194,1702
4.5222,1700
4.5250,1713
4.5278,1697
4.5306,1697
4.5333,1734
4.5361,1795
4.5389,1829
4.5417,1885
4.5444,1942
4.5472,1994
4.5500,2038
4.5528,2109
4.5556,2183
4.5583,2190
4.5611,2128
4.5639,2016
4.5667,1876
4.5694,1742
4.5722,1604
4.5750,1523
4.5778,1469
4.5806,1478
4.5833,1548
4.5861,1613
4.5889,1659
4.5917,1671
4.5944,1689
4.5972,1685
4.6000,1674
4.6028,1677
4.6056,1679
4.6083,1669
4.6111,1666
4.6139,1675
4.6167,1695
4.6194,1697
4.6222,1687
4.6250,1685
4.6278,1692
4.6306,1681
4.6333,1685
4.6361,1695
4.6389,1694
4.6417,1688
4.6444,1685
4.6472,1697
4.6500,1701
4.6528,1718
4.6556,1729
4.6583,1731
4.6611,1707
4.6639,1698
4.6667,1694
4.6694,1667
4.6722,1657
4.6750,1667
4.6778,1674
4.6806,1683
4.6833,1702
4.6861,1715
4.6889,1701
4.6917,1695
4.6944,1709
4.6972,1717
4.7000,1717
4.7028,1694
4.7056,1720
4.7083,1722
4.7111,1716
4.7139,1741
4.7167,1729
4.7194,1708
4.7222,1709
4.7250,1722
4.7278,1738
4.7306,1726
4.7333,1737
4.7361,1757
4.7389,1750
4.7417,1749
4.7444,1761
4.7472,1775
4.7500,1773
4.7528,1773
4.7556,1777
4.7583,1783
4.7611,1767
4.7639,1894
4.7667,1835
4.7694,1786
4.7722,1781
4.7750,1809
4.7778,1824
4.7806,1830
4.7833,1814
4.7861,1780
4.7889,1751
4.7917,1722
4.7944,1739
4.7972,1767
4.8000,1778
4.8028,1787
4.8056,1740
4.8083,1682
4.8111,1650
4.8139,1683
4.8167,1691
4.8194,1722
4.8222,1726
4.8250,1718
4.8278,1668
4.8306,1639
4.8333,1660
4.8361,1705
4.8389,1709
4.8417,1716
4.8444,1715
4.8472,1683
4.8500,1634
4.8528,1656
4.8556,1693
4.8583,1702
4.8611,1722
4.8639,1721
4.8667,1693
4.8694,1648
4.8722,1663
4.8750,1701
4.8778,1709
4.8806,1731
4.8833,1746
4.8861,1728
4.8889,1695
4.8917,1679
4.8944,1694
4.8972,1693
4.9000,1700
4.9028,1719
4.9056,1713
4.9083,1686
4.9111,1672
4.9139,1694
4.9167,1695
4.9194,1712
4.9222,1727
4.9250,1730
4.9278,1689
4.9306,1660
4.9333,1692
4.9361,1702
4.9389,1703
4.9417,1705
4.9444,1726
4.9472,1702
4.9500,1671
4.9528,1694
4.9556,1716
4.9583,1734
4.9611,1738
4.9639,1734
4.9667,1719
4.9694,1691
4.9722,1702
4.9750,1722
4.9778,1731
4.9806,1733
4.9833,1741
4.9861,1727
4.9889,1699
4.9917,1692
4.9944,1721
4.9972,1726
5.0000,1741
5.0028,1748
5.0056,1743
5.0083,1701
5.0111,1688
5.0139,1688
5.0167,1711
5.0194,1721
5.0222,1727
5.0250,1719
5.0278,1681
5.0306,1675
5.0333,1683
5.0361,1702
5.0389,1697
5.0417,1716
5.0444,1714
5.0472,1698
5.0500,1680
5.0528,1690
5.0556,1707
5.0583,1705
5.0611,1715
5.0639,1719
5.0667,1701
5.0694,1684
5.0722,1704
5.0750,1724
5.0778,1720
5.0806,1712
5.0833,1703
5.0861,1703
5.0889,1670
5.0917,1671
5.0944,1690
5.0972,1709
5.1000,1710
5.1028,1699
5.1056,1712
5.1083,1698
5.1111,1680
5.1139,1695
5.1167,1710
5.1194,1724
5.1222,1727
5.1250,1735
5.1278,1706
5.1306,1680
5.1333,1685
5.1361,1702
5.1389,1708
5.1417,1744
5.1444,1755
5.1472,1753
5.1500,1728
5.1528,1738
5.1556,1727
5.1583,1731
5.1611,1752
5.1639,1767
5.1667,1773
5.1694,1755
5.1722,1765
5.1750,1766
5.1778,1748
5.1806,1724
5.1833,1715
5.1861,1703
5.1889,1668
5.1917,1668
5.1944,1677
5.1972,1697
5.2000,1686
5.2028,1692
5.2056,1687
5.2083,1664
5.2111,1656
5.2139,1681
5.2167,1700
5.2194,1696
5.2222,1700
5.2250,1697
5.2278,1648
5.2306,1629
5.2333,1639
5.2361,1628
5.2389,1627
5.2417,1643
5.2444,1662
5.2472,1660
5.2500,1624
5.2528,1645
5.2556,1672
5.2583,1672
5.2611,1684
5.2639,1697
5.2667,1706
5.2694,1671
5.2722,1660
5.2750,1675
5.2778,1690
5.2806,1712
5.2833,1775
5.2861,1819
5.2889,1863
5.2917,1914
5.2944,1975
5.2972,2032
5.3000,2106
5.3028,2165
5.3056,2172
5.3083,2103
5.3111,2008
5.3139,1882
5.3167,1751
5.3194,1590
5.3222,1504
5.3250,1467
5.3278,1475
5.3306,1522
5.3333,1583
5.3361,1618
5.3389,1657
5.3417,1686
5.3444,1689
5.3472,1693
5.3500,1661
5.3528,1683
5.3556,1691
5.3583,1676
5.3611,1654
5.3639,1668
5.3667,1654
5.3694,1631
5.3722,1668
5.3750,1691
5.3778,1693
5.3806,1685
5.3833,1682
5.3861,1666
5.3889,1661
5.3917,1657
5.3944,1680
5.3972,1688
5.4000,1691
5.4028,1689
5.4056,1684
5.4083,1656
5.4111,1636
5.4139,1669
5.4167,1673
5.4194,1686
5.4222,1697
5.4250,1721
5.4278,1705
5.4306,1703
5.4333,1718
5.4361,1713
5.4389,1692
5.4417,1695
5.4444,1695
5.4472,1694
5.4500,1688
5.4528,1710
5.4556,1718
5.4583,1699
5.4611,1701
5.4639,1695
5.4667,1691
5.4694,1672
5.4722,1697
5.4750,1701
5.4778,1710
5.4806,1721
5.4833,1745
5.4861,1758
5.4889,1735
5.4917,1718
5.4944,1737
5.4972,1740
5.5000,1734
5.5028,1748
5.5056,1744
5.5083,1745
5.5111,1724
5.5139,1817
5.5167,1817
5.5194,1829
5.5222,1829
5.5250,1802
5.5278,1762
5.5306,1745
5.5333,1774
5.5361,1792
5.5389,1793
5.5417,1775
5.5444,1751
5.5472,1681
5.5500,1645
5.5528,1642
5.5556,1664
5.5583,1661
5.5611,1645
5.5639,1644
5.5667,1617
5.5694,1592
5.5722,1626
5.5750,1648
5.5778,1665
5.5806,1667
5.5833,1672
5.5861,1633
5.5889,1604
5.5917,1611
5.5944,1660
5.5972,1682
5.6000,1687
5.6028,1684
5.6056,1648
5.6083,1605
5.6111,1613
5.6139,1638
5.6167,1649
5.6194,1665
5.6222,1679
5.6250,1684
5.6278,1655
5.6306,1654
5.6333,1654
5.6361,1643
5.6389,1664
5.6417,1666
5.6444,1669
5.6472,1657
5.6500,1633
5.6528,1659
5.6556,1683
5.6583,1699
5.6611,1699
5.6639,1699
5.6667,1658
5.6694,1617
5.6722,1635
5.6750,1661
5.6778,1680
5.6806,1705
5.6833,1715
5.6861,1668
5.6889,1646
5.6917,1639
5.6944,1634
5.6972,1652
5.7000,1665
5.7028,1682
5.7056,1669
5.7083,1634
5.7111,1618
5.7139,1623
5.7167,1635
5.7194,1652
5.7222,1674
5.7250,1661
5.7278,1619
5.7306,1627
5.7333,1653
5.7361,1685
5.7389,1668
5.7417,1652
5.7444,1651
5.7472,1603
5.7500,1595
5.7528,1613
5.7556,1647
5.7583,1664
5.7611,1670
5.7639,1651
5.7667,1629
5.7694,1601
5.7722,1637
5.7750,1676
5.7778,1695
5.7806,1698
5.7833,1702
5.7861,1665
5.7889,1632
5.7917,1650
5.7944,1673
5.7972,1684
5.8000,1681
5.8028,1688
5.8056,1674
5.8083,1637
5.8111,1623
5.8139,1638
5.8167,1657
5.8194,1665
5.8222,1683
5.8250,1679
5.8278,1649
5.8306,1644
5.8333,1657
5.8361,1647
5.8389,1644
5.8417,1665
5.8444,1682
5.8472,1674
5.8500,1654
5.8528,1653
5.8556,1653
5.8583,1646
5.8611,1651
5.8639,1670
5.8667,1661
5.8694,1638
5.8722,1651
5.8750,1649
5.8778,1649
5.8806,1632
5.8833,1630
5.8861,1613
5.8889,1606
5.8917,1629
5.8944,1647
5.8972,1643
5.9000,1637
5.9028,1651
5.9056,1633
5.9083,1596
5.9111,1589
5.9139,1613
5.9167,1624
5.9194,1637
5.9222,1670
5.9250,1682
5.9278,1689
5.9306,1701
5.9333,1712
5.9361,1699
5.9389,1694
5.9417,1674
5.9444,1689
5.9472,1665
5.9500,1663
5.9528,1693
5.9556,1711
5.9583,1735
5.9611,1730
5.9639,1705
5.9667,1676
5.9694,1650
5.9722,1686
5.9750,1715
5.9778,1733
5.9806,1737
5.9833,1738
5.9861,1713
5.9889,1696
5.9917,1700
5.9944,1692
5.9972,1668
6.0000,1675
6.0028,1686
6.0056,1674
6.0083,1667
6.0111,1686
6.0139,1699
6.0167,1668
6.0194,1643
6.0222,1658
6.0250,1659
6.0278,1627
6.0306,1619
6.0333,1622
6.0361,1637
6.0389,1649
6.0417,1687
6.0444,1686
6.0472,1669
6.0500,1655
6.0528,1662
6.0556,1655
6.0583,1634
6.0611,1647
6.0639,1680
6.0667,1683
6.0694,1691
6.0722,1707
6.0750,1692
6.0778,1661
6.0806,1644
6.0833,1658
6.0861,1670
6.0889,1680
6.0917,1737
6.0944,1806
6.0972,1847
6.1000,1896
6.1028,1967
6.1056,2035
6.1083,2077
6.1111,2146
6.1139,2184
6.1167,2158
6.1194,2086
6.1222,1981
6.1250,1837
6.1278,1678
6.1306,1547
6.1333,1514
6.1361,1508
6.1389,1536
6.1417,1589
6.1444,1654
6.1472,1676
6.1500,1682
6.1528,1731
6.1556,1715
6.1583,1698
6.1611,1687
6.1639,1700
6.1667,1673
6.1694,1690
6.1722,1711
6.1750,1704
6.1778,1694
6.1806,1719
6.1833,1727
6.1861,1701
6.1889,1697
6.1917,1697
6.1944,1695
6.1972,1670
6.2000,1673
6.2028,1680
6.2056,1686
6.2083,1686
6.2111,1697
6.2139,1711
6.2167,1706
6.2194,1696
6.2222,1699
6.2250,1696
6.2278,1707
6.2306,1724
6.2333,1773
6.2361,1784
6.2389,1763
6.2417,1729
6.2444,1734
6.2472,1693
6.2500,1712
6.2528,1717
6.2556,1749
6.2583,1741
6.2611,1758
6.2639,1764
6.2667,1744
6.2694,1724
6.2722,1728
6.2750,1744
6.2778,1719
6.2806,1724
6.2833,1751
6.2861,1766
6.2889,1763
6.2917,1777
6.2944,1795
6.2972,1796
6.3000,1791
6.3028,1785
6.3056,1772
6.3083,1749
6.3111,1754
6.3139,1794
6.3167,1803
6.3194,1809
6.3222,1909
6.3250,1883
6.3278,1839
6.3306,1824
6.3333,1826
6.3361,1836
6.3389,1828
6.3417,1833
6.3444,1800
6.3472,1751
6.3500,1745
6.3528,1767
6.3556,1780
6.3583,1764
6.3611,1779
6.3639,1748
6.3667,1700
6.3694,1698
6.3722,1715
6.3750,1727
6.3778,1735
6.3806,1726
6.3833,1707
6.3861,1657
6.3889,1642
6.3917,1673
6.3944,1712
6.3972,1744
6.4000,1763
6.4028,1732
6.4056,1673
6.4083,1624
6.4111,1628
6.4139,1652
6.4167,1671
6.4194,1695
6.4222,1708
6.4250,1684
6.4278,1651
6.4306,1656
6.4333,1683
6.4361,1697
6.4389,1724
6.4417,1730
6.4444,1711
6.4472,1668
6.4500,1665
6.4528,1680
6.4556,1695
6.4583,1725
6.4611,1735
6.4639,1729
6.4667,1680
6.4694,1657
6.4722,1678
6.4750,1704
6.4778,1715
6.4806,1738
6.4833,1741
6.4861,1704
6.4889,1692
6.4917,1702
6.4944,1712
6.4972,1709
6.5000,1711
6.5028,1709
6.5056,1691
6.5083,1681
6.5111,1707
6.5139,1720
6.5167,1723
6.5194,1731
6.5222,1720
6.5250,1699
6.5278,1677
6.5306,1690
6.5333,1709
6.5361,1691
6.5389,1697
6.5417,1713
6.5444,1720
6.5472,1703
6.5500,1715
6.5528,1740
6.5556,1740
6.5583,1730
6.5611,1720
6.5639,1700
6.5667,1669
6.5694,1680
6.5722,1720
6.5750,1735
6.5778,1717
6.5806,1711
6.5833,1695
6.5861,1688
6.5889,1689
6.5917,1730
6.5944,1750
6.5972,1750
6.6000,1744
6.6028,1735
6.6056,1710
6.6083,1706
6.6111,1722
6.6139,1727
6.6167,1729
6.6194,1717
6.6222,1725
6.6250,1706
6.6278,1700
6.6306,1706
6.6333,1694
6.6361,1693
6.6389,1701
6.6417,1722
6.6444,1709
6.6472,1722
6.6500,1733
6.6528,1731
6.6556,1724
6.6583,1708
6.6611,1719
6.6639,1707
6.6667,1682
6.6694,1700
6.6722,1723
6.6750,1739
6.6778,1760
6.6806,1790
6.6833,1774
6.6861,1735
6.6889,1713
6.6917,1742
6.6944,1747
6.6972,1748
6.7000,1766
6.7028,1782
6.7056,1767
6.7083,1758
6.7111,1797
6.7139,1805
6.7167,1789
6.7194,1786
6.7222,1802
6.7250,1791
6.7278,1772
6.7306,1766
6.7333,1759
6.7361,1763
6.7389,1746
6.7417,1759
6.7444,1758
6.7472,1739
6.7500,1737
6.7528,1735
6.7556,1732
6.7583,1713
6.7611,1729
6.7639,1733
6.7667,1697
6.7694,1678
6.7722,1682
6.7750,1656
6.7778,1641
6.7806,1660
6.7833,1686
6.7861,1690
6.7889,1699
6.7917,1702
6.7944,1709
6.7972,1708
6.8000,1712
6.8028,1710
6.8056,1695
6.8083,1684
6.8111,1680
6.8139,1687
6.8167,1690
6.8194,1692
6.8222,1717
6.8250,1706
6.8278,1701
6.8306,1748
6.8333,1795
6.8361,1844
6.8389,1904
6.8417,1966
6.8444,2043
6.8472,2090
6.8500,2172
6.8528,2202
6.8556,2185
6.8583,2099
6.8611,1984
6.8639,1838
6.8667,1674
6.8694,1560
6.8722,1521
6.8750,1493
6.8778,1535
6.8806,1598
6.8833,1650
6.8861,1653
6.8889,1674
6.8917,1706
6.8944,1714
6.8972,1699
6.9000,1713
6.9028,1730
6.9056,1707
6.9083,1701
6.9111,1704
6.9139,1701
6.9167,1685
6.9194,1704
6.9222,1721
6.9250,1722
6.9278,1706
6.9306,1706
6.9333,1708
6.9361,1698
6.9389,1699
6.9417,1718
6.9444,1723
6.9472,1711
6.9500,1723
6.9528,1749
6.9556,1734
6.9583,1730
6.9611,1727
6.9639,1726
6.9667,1696
6.9694,1707
6.9722,1730
6.9750,1738
6.9778,1739
6.9806,1751
6.9833,1767
6.9861,1750
6.9889,1719
6.9917,1747
6.9944,1748
6.9972,1747
7.0000,1759
7.0028,1781
7.0056,1774
7.0083,1748
7.0111,1746
7.0139,1718
7.0167,1721
7.0194,1732
7.0222,1747
7.0250,1757
7.0278,1765
7.0306,1774
7.0333,1788
7.0361,1762
7.0389,1760
7.0417,1778
7.0444,1782
7.0472,1777
7.0500,1802
7.0528,1809
7.0556,1792
7.0583,1783
7.0611,1891
7.0639,1860
7.0667,1836
7.0694,1833
7.0722,1851
7.0750,1857
7.0778,1834
7.0806,1812
7.0833,1773
7.0861,1754
7.0889,1759
7.0917,1784
7.0944,1787
7.0972,1793
7.1000,1775
7.1028,1741
7.1056,1698
7.1083,1690
7.1111,1705
7.1139,1716
7.1167,1710
7.1194,1707
7.1222,1689
7.1250,1649
7.1278,1633
7.1306,1660
7.1333,1678
7.1361,1703
7.1389,1708
7.1417,1700
7.1444,1660
7.1472,1627
7.1500,1644
7.1528,1670
7.1556,1689
7.1583,1695
7.1611,1714
7.1639,1682
7.1667,1652
7.1694,1668
7.1722,1703
7.1750,1721
7.1778,1724
7.1806,1727
7.1833,1691
7.1861,1655
7.1889,1657
7.1917,1684
7.1944,1705
7.1972,1711
7.2000,1726
7.2028,1722
7.2056,1682
7.2083,1665
7.2111,1706
7.2139,1709
7.2167,1725
7.2194,1734
7.2222,1737
7.2250,1705
7.2278,1695
7.2306,1703
7.2333,1723
7.2361,1732
7.2389,1754
7.2417,1752
7.2444,1715
7.2472,1673
7.2500,1686
7.2528,1710
7.2556,1716
7.2583,1726
7.2611,1739
7.2639,1732
7.2667,1717
7.2694,1704
7.2722,1724
7.2750,1723
7.2778,1732
7.2806,1745
7.2833,1724
7.2861,1700
7.2889,1706
7.2917,1723
7.2944,1727
7.2972,1732
7.3000,1739
7.3028,1715
7.3056,1694
7.3083,1673
7.3111,1706
7.3139,1735
7.3167,1736
7.3194,1743
7.3222,1747
7.3250,1708
7.3278,1705
7.3306,1724
7.3333,1737
7.3361,1725
7.3389,1741
7.3417,1746
7.3444,1731
7.3472,1708
7.3500,1735
7.3528,1755
7.3556,1757
7.3583,1746
7.3611,1732
7.3639,1702
7.3667,1671
7.3694,1698
7.3722,1725
7.3750,1736
7.3778,1743
7.3806,1740
7.3833,1732
7.3861,1724
7.3889,1728
7.3917,1740
7.3944,1734
7.3972,1732
7.4000,1750
7.4028,1756
7.4056,1715
7.4083,1724
7.4111,1747
7.4139,1778
7.4167,1776
7.4194,1796
7.4222,1788
7.4250,1758
7.4278,1752
7.4306,1766
7.4333,1764
7.4361,1769
7.4389,1771
7.4417,1800
7.4444,1774
7.4472,1760
7.4500,1763
7.4528,1775
7.4556,1786
7.4583,1791
7.4611,1803
7.4639,1793
7.4667,1774
7.4694,1800
7.4722,1807
7.4750,1801
7.4778,1800
7.4806,1775
7.4833,1729
7.4861,1699
7.4889,1698
7.4917,1713
7.4944,1733
7.4972,1720
7.5000,1724
7.5028,1703
7.5056,1661
7.5083,1669
7.5111,1687
7.5139,1671
7.5167,1659
7.5194,1668
7.5222,1671
7.5250,1656
7.5278,1655
7.5306,1666
7.5333,1670
7.5361,1663
7.5389,1678
7.5417,1680
7.5444,1670
7.5472,1664
7.5500,1692
7.5528,1690
7.5556,1679
7.5583,1668
7.5611,1679
7.5639,1671
7.5667,1644
7.5694,1667
7.5722,1689
7.5750,1698
7.5778,1712
7.5806,1764
7.5833,1795
7.5861,1838
7.5889,1893
7.5917,1978
7.5944,2051
7.5972,2122
7.6000,2189
7.6028,2195
7.6056,2099
7.6083,1985
7.6111,1838
7.6139,1676
7.6167,1552
7.6194,1477
7.6222,1454
7.6250,1469
7.6278,1523
7.6306,1609
7.6333,1646
7.6361,1671
7.6389,1685
7.6417,1704
7.6444,1670
7.6472,1653
7.6500,1650
7.6528,1643
7.6556,1644
7.6583,1637
7.6611,1651
7.6639,1641
7.6667,1618
7.6694,1627
7.6722,1641
7.6750,1639
7.6778,1645
7.6806,1664
7.6833,1663
7.6861,1635
7.6889,1653
7.6917,1666
7.6944,1669
7.6972,1667
7.7000,1677
7.7028,1667
7.7056,1657
7.7083,1664
7.7111,1657
7.7139,1660
7.7167,1656
7.7194,1661
7.7222,1666
7.7250,1651
7.7278,1656
7.7306,1671
7.7333,1689
7.7361,1687
7.7389,1673
7.7417,1695
7.7444,1689
7.7472,1671
7.7500,1686
7.7528,1695
7.7556,1694
7.7583,1701
7.7611,1716
7.7639,1718
7.7667,1710
7.7694,1718
7.7722,1726
7.7750,1714
7.7778,1702
7.7806,1723
7.7833,1735
7.7861,1741
7.7889,1761
7.7917,1764
7.7944,1760
7.7972,1757
7.8000,1752
7.8028,1764
7.8056,1754
7.8083,1717
7.8111,1797
7.8139,1799
7.8167,1810
7.8194,1825
7.8222,1798
7.8250,1748
7.8278,1745
7.8306,1776
7.8333,1784
7.8361,1787
7.8389,1783
7.8417,1761
7.8444,1707
7.8472,1695
7.8500,1701
7.8528,1720
7.8556,1720
7.8583,1707
7.8611,1708
7.8639,1653
7.8667,1644
7.8694,1664
7.8722,1695
7.8750,1714
7.8778,1710
7.8806,1702
7.8833,1662
7.8861,1625
7.8889,1633
7.8917,1672
7.8944,1682
7.8972,1728
7.9000,1721
7.9028,1670
7.9056,1629
7.9083,1626
7.9111,1661
7.9139,1673
7.9167,1694
7.9194,1701
7.9222,1675
7.9250,1638
7.9278,1658
7.9306,1685
7.9333,1694
7.9361,1697
7.9389,1694
7.9417,1699
7.9444,1661
7.9472,1666
7.9500,1691
7.9528,1692
7.9556,1703
7.9583,1702
7.9611,1710
7.9639,1657
7.9667,1630
7.9694,1653
7.9722,1677
7.9750,1688
7.9778,1698
7.9806,1696
7.9833,1684
7.9861,1653
7.9889,1661
7.9917,1679
7.9944,1682
7.9972,1687
8.0000,1688
8.0028,1679
8.0056,1658
8.0083,1657
8.0111,1654
8.0139,1679
8.0167,1681
8.0194,1695
8.0222,1683
8.0250,1660
8.0278,1655
8.0306,1674
8.0333,1665
8.0361,1667
8.0389,1668
8.0417,1671
8.0444,1626
8.0472,1638
8.0500,1660
8.0528,1672
8.0556,1672
8.0583,1674
8.0611,1670
8.0639,1640
8.0667,1624
8.0694,1655
8.0722,1669
8.0750,1683
8.0778,1701
8.0806,1695
8.0833,1675
8.0861,1658
8.0889,1672
8.0917,1685
8.0944,1676
8.0972,1675
8.1000,1671
8.1028,1647
8.1056,1642
8.1083,1663
8.1111,1691
8.1139,1699
8.1167,1715
8.1194,1717
8.1222,1683
8.1250,1661
8.1278,1654
8.1306,1659
8.1333,1656
8.1361,1662
8.1389,1688
8.1417,1693
8.1444,1646
8.1472,1648
8.1500,1676
8.1528,1684
8.1556,1692
8.1583,1705
8.1611,1701
8.1639,1687
8.1667,1667
8.1694,1684
8.1722,1684
8.1750,1677
8.1778,1679
8.1806,1706
8.1833,1683
8.1861,1682
8.1889,1701
8.1917,1718
8.1944,1714
8.1972,1715
8.2000,1713
8.2028,1707
8.2056,1687
8.2083,1688
8.2111,1707
8.2139,1698
8.2167,1703
8.2194,1720
8.2222,1713
8.2250,1681
8.2278,1698
8.2306,1705
8.2333,1710
8.2361,1715
8.2389,1732
8.2417,1734
8.2444,1717
8.2472,1728
8.2500,1747
8.2528,1728
8.2556,1727
8.2583,1741
8.2611,1754
8.2639,1731
8.2667,1727
8.2694,1747
8.2722,1766
8.2750,1764
8.2778,1771
8.2806,1772
8.2833,1762
8.2861,1764
8.2889,1803
8.2917,1806
8.2944,1780
8.2972,1758
8.3000,1751
8.3028,1732
8.3056,1706
8.3083,1700
8.3111,1715
8.3139,1721
8.3167,1712
8.3194,1725
8.3222,1709
8.3250,1662
8.3278,1664
8.3306,1672
8.3333,1661
8.3361,1638
8.3389,1658
8.3417,1661
8.3444,1636
8.3472,1619
8.3500,1617
8.3528,1628
8.3556,1636
8.3583,1656
8.3611,1671
8.3639,1667
8.3667,1673
8.3694,1686
8.3722,1693
8.3750,1667
8.3778,1680
8.3806,1687
8.3833,1690
8.3861,1680
8.3889,1694
8.3917,1678
8.3944,1678
8.3972,1696
8.4000,1730
8.4028,1721
8.4056,1734
8.4083,1779
8.4111,1836
8.4139,1884
8.4167,1948
8.4194,2032
8.4222,2089
8.4250,2151
8.4278,2205
8.4306,2209
8.4333,2106
8.4361,1978
8.4389,1858
8.4417,1734
8.4444,1604
8.4472,1511
8.4500,1494
8.4528,1494
8.4556,1536
8.4583,1588
8.4611,1643
8.4639,1663
8.4667,1673
8.4694,1690
8.4722,1699
8.4750,1686
8.4778,1685
8.4806,1676
8.4833,1654
8.4861,1626
8.4889,1639
8.4917,1638
8.4944,1634
8.4972,1647
8.5000,1654
8.5028,1644
8.5056,1636
8.5083,1669
8.5111,1676
8.5139,1671
8.5167,1677
8.5194,1700
8.5222,1708
8.5250,1687
8.5278,1676
8.5306,1686
8.5333,1685
8.5361,1677
8.5389,1689
8.5417,1683
8.5444,1669
8.5472,1684
8.5500,1694
8.5528,1696
8.5556,1686
8.5583,1687
8.5611,1694
8.5639,1692
8.5667,1679
8.5694,1693
8.5722,1702
8.5750,1710
8.5778,1712
8.5806,1728
8.5833,1738
8.5861,1723
8.5889,1724
8.5917,1712
8.5944,1684
8.5972,1694
8.6000,1704
8.6028,1702
8.6056,1699
8.6083,1716
8.6111,1730
8.6139,1731
8.6167,1740
8.6194,1766
8.6222,1758
8.6250,1739
8.6278,1735
8.6306,1734
8.6333,1738
8.6361,1941
8.6389,1847
8.6417,1825
8.6444,1795
8.6472,1800
8.6500,1819
8.6528,1828
8.6556,1821
8.6583,1796
8.6611,1762
8.6639,1710
8.6667,1693
8.6694,1720
8.6722,1734
8.6750,1752
8.6778,1738
8.6806,1719
8.6833,1683
8.6861,1663
8.6889,1676
8.6917,1695
8.6944,1697
8.6972,1686
8.7000,1663
8.7028,1627
8.7056,1620
8.7083,1642
8.7111,1671
8.7139,1688
8.7167,1700
8.7194,1695
8.7222,1662
8.7250,1620
8.7278,1639
8.7306,1657
8.7333,1668
8.7361,1677
8.7389,1682
8.7417,1656
8.7444,1626
8.7472,1650
8.7500,1681
8.7528,1705
8.7556,1718
8.7583,1720
8.7611,1684
8.7639,1630
8.7667,1619
8.7694,1647
8.7722,1658
8.7750,1684
8.7778,1698
8.7806,1703
8.7833,1662
8.7861,1661
8.7889,1692
8.7917,1694
8.7944,1694
8.7972,1704
8.8000,1701
8.8028,1670
8.8056,1657
8.8083,1671
8.8111,1673
8.8139,1688
8.8167,1690
8.8194,1700
8.8222,1671
8.8250,1656
8.8278,1651
8.8306,1679
8.8333,1688
8.8361,1692
8.8389,1706
8.8417,1669
8.8444,1639
8.8472,1643
8.8500,1668
8.8528,1664
8.8556,1670
8.8583,1676
8.8611,1663
8.8639,1653
8.8667,1649
8.8694,1663
8.8722,1676
8.8750,1669
8.8778,1670
8.8806,1684
8.8833,1652
8.8861,1648
8.8889,1670
8.8917,1674
8.8944,1674
8.8972,1685
8.9000,1695
8.9028,1665
8.9056,1637
8.9083,1645
8.9111,1647
8.9139,1650
8.9167,1651
8.9194,1674
8.9222,1646
8.9250,1639
8.9278,1638
8.9306,1643
8.9333,1639
8.9361,1645
8.9389,1686
8.9417,1687
8.9444,1679
8.9472,1675
8.9500,1690
8.9528,1685
8.9556,1686
8.9583,1690
8.9611,1682
8.9639,1667
8.9667,1678
8.9694,1693
8.9722,1692
8.9750,1696
8.9778,1713
8.9806,1713
8.9833,1702
8.9861,1681
8.9889,1701
8.9917,1703
8.9944,1694
8.9972,1686
9.0000,1685
9.0028,1664
9.0056,1658
9.0083,1692
9.0111,1696
9.0139,1695
9.0167,1690
9.0194,1700
9.0222,1691
9.0250,1684
9.0278,1684
9.0306,1692
9.0333,1691
9.0361,1688
9.0389,1703
9.0417,1705
9.0444,1694
9.0472,1726
9.0500,1743
9.0528,1747
9.0556,1739
9.0583,1733
9.0611,1715
9.0639,1706
9.0667,1719
9.0694,1729
9.0722,1738
9.0750,1730
9.0778,1737
9.0806,1747
9.0833,1728
9.0861,1737
9.0889,1757
9.0917,1764
9.0944,1764
9.0972,1772
9.1000,1779
9.1028,1763
9.1056,1753
9.1083,1766
9.1111,1755
9.1139,1721
9.1167,1717
9.1194,1720
9.1222,1700
9.1250,1682
9.1278,1701
9.1306,1697
9.1333,1680
9.1361,1673
9.1389,1675
9.1417,1653
9.1444,1621
9.1472,1627
9.1500,1642
9.1528,1650
9.1556,1656
9.1583,1675
9.1611,1691
9.1639,1679
9.1667,1689
9.1694,1710
9.1722,1686
9.1750,1644
9.1778,1621
9.1806,1615
9.1833,1622
9.1861,1629
9.1889,1666
9.1917,1673
9.1944,1666
9.1972,1659
9.2000,1677
9.2028,1664
9.2056,1670
9.2083,1712
9.2111,1762
9.2139,1800
9.2167,1856
9.2194,1910
9.2222,1935
9.2250,1993
9.2278,2080
9.2306,2178
9.2333,2176
9.2361,2120
9.2389,2009
9.2417,1849
9.2444,1663
9.2472,1519
9.2500,1436
9.2528,1390
9.2556,1428
9.2583,1516
9.2611,1575
9.2639,1617
9.2667,1654
9.2694,1685
9.2722,1674
9.2750,1648
9.2778,1637
9.2806,1631
9.2833,1615
9.2861,1635
9.2889,1668
9.2917,1676
9.2944,1652
9.2972,1644
9.3000,1662
9.3028,1662
9.3056,1656
9.3083,1676
9.3111,1672
9.3139,1670
9.3167,1671
9.3194,1674
9.3222,1673
9.3250,1661
9.3278,1663
9.3306,1665
9.3333,1653
9.3361,1670
9.3389,1694
9.3417,1688
9.3444,1687
9.3472,1699
9.3500,1707
9.3528,1674
9.3556,1675
9.3583,1680
9.3611,1691
9.3639,1691
9.3667,1700
9.3694,1709
9.3722,1702
9.3750,1690
9.3778,1695
9.3806,1701
9.3833,1699
9.3861,1710
9.3889,1715
9.3917,1716
9.3944,1710
9.3972,1731
9.4000,1753
9.4028,1738
9.4056,1706
9.4083,1691
9.4111,1681
9.4139,1673
9.4167,1694
9.4194,1728
9.4222,1759
9.4250,1769
9.4278,1771
9.4306,1742
9.4333,1717
9.4361,1715
9.4389,1795
9.4417,1771
9.4444,1737
9.4472,1742
9.4500,1768
9.4528,1797
9.4556,1820
9.4583,1811
9.4611,1756
9.4639,1706
9.4667,1721
9.4694,1744
9.4722,1749
9.4750,1733
9.4778,1701
9.4806,1647
9.4833,1619
9.4861,1634
9.4889,1685
9.4917,1725
9.4944,1723
9.4972,1724
9.5000,1690
9.5028,1640
9.5056,1622
9.5083,1652
9.5111,1668
9.5139,1682
9.5167,1681
9.5194,1664
9.5222,1615
9.5250,1602
9.5278,1628
9.5306,1654
9.5333,1670
9.5361,1675
9.5389,1681
9.5417,1647
9.5444,1616
9.5472,1627
9.5500,1645
9.5528,1668
9.5556,1686
9.5583,1676
9.5611,1649
9.5639,1618
9.5667,1634
9.5694,1650
9.5722,1673
9.5750,1692
9.5778,1692
9.5806,1669
9.5833,1636
9.5861,1647
9.5889,1658
9.5917,1696
9.5944,1709
9.5972,1717
9.6000,1701
9.6028,1652
9.6056,1639
9.6083,1656
9.6111,1671
9.6139,1643
9.6167,1669
9.6194,1667
9.6222,1639
9.6250,1633
9.6278,1660
9.6306,1669
9.6333,1679
9.6361,1674
9.6389,1672
9.6417,1657
9.6444,1649
9.6472,1675
9.6500,1647
9.6528,1660
9.6556,1676
9.6583,1694
9.6611,1690
9.6639,1677
9.6667,1679
9.6694,1700
9.6722,1686
9.6750,1690
9.6778,1702
9.6806,1676
9.6833,1653
9.6861,1652
9.6889,1667
9.6917,1681
9.6944,1681
9.6972,1695
9.7000,1696
9.7028,1675
9.7056,1658
9.7083,1653
9.7111,1634
9.7139,1629
9.7167,1634
9.7194,1632
9.7222,1620
9.7250,1624
9.7278,1683
9.7306,1690
9.7333,1708
9.7361,1693
9.7389,1670
9.7417,1621
9.7444,1608
9.7472,1625
9.7500,1638
9.7528,1642
9.7556,1661
9.7583,1665
9.7611,1668
9.7639,1648
9.7667,1662
9.7694,1677
9.7722,1682
9.7750,1706
9.7778,1709
9.7806,1691
9.7833,1658
9.7861,1643
9.7889,1655
9.7917,1642
9.7944,1677
9.7972,1711
9.8000,1693
9.8028,1673
9.8056,1665
9.8083,1680
9.8111,1679
9.8139,1691
9.8167,1700
9.8194,1695
9.8222,1672
9.8250,1660
9.8278,1673
9.8306,1670
9.8333,1672
9.8361,1698
9.8389,1738
9.8417,1727
9.8444,1717
9.8472,1723
9.8500,1704
9.8528,1692
9.8556,1678
9.8583,1707
9.8611,1708
9.8639,1707
9.8667,1736
9.8694,1737
9.8722,1722
9.8750,1715
9.8778,1729
9.8806,1740
9.8833,1725
9.8861,1723
9.8889,1741
9.8917,1725
9.8944,1738
9.8972,1729
9.9000,1721
9.9028,1693
9.9056,1719
9.9083,1764
9.9111,1768
9.9139,1759
9.9167,1771
9.9194,1768
9.9222,1745
9.9250,1723
9.9278,1725
9.9306,1730
9.9333,1717
9.9361,1718
9.9389,1739
9.9417,1707
9.9444,1679
9.9472,1676
9.9500,1691
9.9528,1677
9.9556,1700
9.9583,1703
9.9611,1673
9.9639,1645
9.9667,1646
9.9694,1658
9.9722,1661
9.9750,1685
9.9778,1686
9.9806,1666
9.9833,1639
9.9861,1637
9.9889,1667
9.9917,1669
9.9944,1678
9.9972,1690
10.0000,1686
10.0028,1678
10.0056,1670
10.0083,1694
10.0111,1683
10.0139,1682
10.0167,1666
10.0194,1681
10.0222,1681
10.0250,1712
10.0278,1778
10.0306,1842
10.0333,1923
10.0361,2006
10.0389,2081
10.0417,2127
10.0444,2166
10.0472,2209
10.0500,2180
10.0528,2087
10.0556,1959
10.0583,1831
10.0611,1676
10.0639,1547
10.0667,1500
10.0694,1482
10.0722,1516
10.0750,1576
10.0778,1632
10.0806,1672
10.0833,1686
10.0861,1717
10.0889,1728
10.0917,1707
10.0944,1688
10.0972,1692
10.1000,1682
10.1028,1657
10.1056,1681
10.1083,1699
10.1111,1710
10.1139,1715
10.1167,1728
10.1194,1726
10.1222,1707
10.1250,1712
10.1278,1711
10.1306,1700
10.1333,1701
10.1361,1714
10.1389,1729
10.1417,1730
10.1444,1720
10.1472,1724
10.1500,1725
10.1528,1711
10.1556,1724
10.1583,1738
10.1611,1756
10.1639,1713
10.1667,1716
10.1694,1707
10.1722,1700
10.1750,1700
10.1778,1725
10.1806,1733
10.1833,1739
10.1861,1761
10.1889,1781
10.1917,1792
10.1944,1776
10.1972,1767
10.2000,1761
10.2028,1738
10.2056,1755
10.2083,1767
10.2111,1768
10.2139,1759
10.2167,1771
10.2194,1764
10.2222,1761
10.2250,1783
10.2278,1806
10.2306,1827
10.2333,1824
10.2361,1822
10.2389,1829
10.2417,1807
10.2444,1795
10.2472,1810
10.2500,1833
10.2528,1816
10.2556,1991
10.2583,1921
10.2611,1862
10.2639,1829
10.2667,1849
10.2694,1866
10.2722,1897
10.2750,1903
10.2778,1881
10.2806,1816
10.2833,1766
10.2861,1778
10.2889,1784
10.2917,1768
10.2944,1753
10.2972,1740
10.3000,1717
10.3028,1685
10.3056,1688
10.3083,1738
10.3111,1741
10.3139,1754
10.3167,1745
10.3194,1720
10.3222,1687
10.3250,1675
10.3278,1698
10.3306,1710
10.3333,1714
10.3361,1727
10.3389,1708
10.3417,1685
10.3444,1692
10.3472,1713
10.3500,1736
10.3528,1747
10.3556,1750
10.3583,1721
10.3611,1672
10.3639,1676
10.3667,1704
10.3694,1711
10.3722,1740
10.3750,1751
10.3778,1747
10.3806,1697
10.3833,1681
10.3861,1694
10.3889,1710
10.3917,1726
10.3944,1719
10.3972,1717
10.4000,1691
10.4028,1680
10.4056,1704
10.4083,1717
10.4111,1733
10.4139,1725
10.4167,1722
10.4194,1706
10.4222,1677
10.4250,1688
10.4278,1723
10.4306,1724
10.4333,1719
10.4361,1722
10.4389,1712
10.4417,1680
10.4444,1697
10.4472,1718
10.4500,1722
10.4528,1725
10.4556,1724
10.4583,1725
10.4611,1669
10.4639,1648
10.4667,1674
10.4694,1700
10.4722,1709
10.4750,1724
10.4778,1734
10.4806,1718
10.4833,1700
10.4861,1711
10.4889,1728
10.4917,1729
10.4944,1706
10.4972,1728
10.5000,1700
10.5028,1686
10.5056,1709
10.5083,1723
10.5111,1708
10.5139,1716
10.5167,1714
10.5194,1698
10.5222,1678
10.5250,1677
10.5278,1696
10.5306,1705
10.5333,1689
10.5361,1694
10.5389,1702
10.5417,1673
10.5444,1693
10.5472,1723
10.5500,1730
10.5528,1724
10.5556,1716
10.5583,1716
10.5611,1693
10.5639,1705
10.5667,1719
10.5694,1735
10.5722,1708
10.5750,1708
10.5778,1695
10.5806,1672
10.5833,1667
10.5861,1703
10.5889,1725
10.5917,1734
10.5944,1724
10.5972,1735
10.6000,1705
10.6028,1696
10.6056,1701
10.6083,1708
10.6111,1720
10.6139,1735
10.6167,1754
10.6194,1731
10.6222,1698
10.6250,1717
10.6278,1741
10.6306,1733
10.6333,1763
10.6361,1771
10.6389,1776
10.6417,1754
10.6444,1757
10.6472,1763
10.6500,1755
10.6528,1755
10.6556,1752
10.6583,1749
10.6611,1718
10.6639,1701
10.6667,1715
10.6694,1728
10.6722,1731
10.6750,1743
10.6778,1755
10.6806,1787
10.6833,1783
10.6861,1800
10.6889,1793
10.6917,1768
10.6944,1756
10.6972,1752
10.7000,1738
10.7028,1712
10.7056,1718
10.7083,1732
10.7111,1733
10.7139,1723
10.7167,1730
10.7194,1718
10.7222,1692
10.7250,1693
10.7278,1685
10.7306,1684
10.7333,1679
10.7361,1697
10.7389,1697
10.7417,1668
10.7444,1671
10.7472,1687
10.7500,1700
10.7528,1705
10.7556,1707
10.7583,1695
10.7611,1680
10.7639,1678
10.7667,1683
10.7694,1679
10.7722,1681
10.7750,1685
10.7778,1709
10.7806,1692
10.7833,1681
10.7861,1701
10.7889,1703
10.7917,1698
10.7944,1713
10.7972,1737
10.8000,1764
10.8028,1794
10.8056,1868
10.8083,1930
10.8111,1973
10.8139,2033
10.8167,2118
10.8194,2189
10.8222,2205
10.8250,2156
10.8278,2055
10.8306,1922
10.8333,1767
10.8361,1633
10.8389,1531
10.8417,1474
10.8444,1476
10.8472,1542
10.8500,1599
10.8528,1642
10.8556,1685
10.8583,1704
10.8611,1703
10.8639,1687
10.8667,1688
10.8694,1693
10.8722,1689
10.8750,1705
10.8778,1716
10.8806,1692
10.8833,1693
10.8861,1704
10.8889,1710
10.8917,1686
10.8944,1699
10.8972,1700
10.9000,1711
10.9028,1703
10.9056,1685
10.9083,1693
10.9111,1690
10.9139,1686
10.9167,1696
10.9194,1700
10.9222,1690
10.9250,1720
10.9278,1728
10.9306,1729
10.9333,1724
10.9361,1724
10.9389,1714
10.9417,1695
10.9444,1673
10.9472,1672
10.9500,1690
10.9528,1707
10.9556,1724
10.9583,1738
10.9611,1709
10.9639,1706
10.9667,1718
10.9694,1716
10.9722,1728
10.9750,1738
10.9778,1758
10.9806,1740
10.9833,1733
10.9861,1770
10.9889,1776
10.9917,1763
10.9944,1762
10.9972,1773
11.0000,1761
11.0028,1741
11.0056,1756
11.0083,1771
11.0111,1760
11.0139,1764
11.0167,1780
11.0194,1781
11.0222,1756
11.0250,1771
11.0278,1785
11.0306,1957
11.0333,1884
11.0361,1876
11.0389,1830
11.0417,1786
11.0444,1785
11.0472,1814
11.0500,1822
11.0528,1821
11.0556,1800
11.0583,1745
11.0611,1698
11.0639,1706
11.0667,1726
11.0694,1735
11.0722,1749
11.0750,1731
11.0778,1699
11.0806,1654
11.0833,1633
11.0861,1643
11.0889,1667
11.0917,1664
11.0944,1670
11.0972,1672
11.1000,1619
11.1028,1613
11.1056,1649
11.1083,1679
11.1111,1690
11.1139,1694
11.1167,1690
11.1194,1663
11.1222,1632
11.1250,1649
11.1278,1675
11.1306,1695
11.1333,1708
11.1361,1703
11.1389,1677
11.1417,1635
11.1444,1663
11.1472,1682
11.1500,1695
11.1528,1701
11.1556,1714
11.1583,1689
11.1611,1650
11.1639,1654
11.1667,1672
11.1694,1672
11.1722,1690
11.1750,1700
11.1778,1687
11.1806,1661
11.1833,1642
11.1861,1669
11.1889,1670
11.1917,1680
11.1944,1692
11.1972,1695
11.2000,1658
11.2028,1655
11.2056,1663
11.2083,1671
11.2111,1665
11.2139,1680
11.2167,1691
11.2194,1665
11.2222,1651
11.2250,1665
11.2278,1692
11.2306,1700
11.2333,1722
11.2361,1707
11.2389,1682
11.2417,1651
11.2444,1638
11.2472,1663
11.2500,1676
11.2528,1700
11.2556,1714
11.2583,1691
11.2611,1659
11.2639,1661
11.2667,1677
11.2694,1676
11.2722,1681
11.2750,1706
11.2778,1695
11.2806,1682
11.2833,1694
11.2861,1710
11.2889,1712
11.2917,1712
11.2944,1715
11.2972,1710
11.3000,1691
11.3028,1685
11.3056,1697
11.3083,1705
11.3111,1689
11.3139,1687
11.3167,1695
11.3194,1677
11.3222,1659
11.3250,1697
11.3278,1712
11.3306,1720
11.3333,1731
11.3361,1737
11.3389,1711
11.3417,1687
11.3444,1716
11.3472,1736
11.3500,1740
11.3528,1745
11.3556,1744
11.3583,1725
11.3611,1699
11.3639,1692
11.3667,1699
11.3694,1711
11.3722,1737
11.3750,1743
11.3778,1728
11.3806,1722
11.3833,1719
11.3861,1741
11.3889,1732
11.3917,1729
11.3944,1731
11.3972,1741
11.4000,1717
11.4028,1733
11.4056,1749
11.4083,1751
11.4111,1741
11.4139,1737
11.4167,1737
11.4194,1724
11.4222,1709
11.4250,1726
11.4278,1738
11.4306,1737
11.4333,1753
11.4361,1769
11.4389,1739
11.4417,1723
11.4444,1735
11.4472,1737
11.4500,1743
11.4528,1746
11.4556,1764
11.4583,1764
11.4611,1753
11.4639,1741
11.4667,1771
11.4694,1767
11.4722,1776
11.4750,1791
11.4778,1785
11.4806,1769
11.4833,1759
11.4861,1781
11.4889,1795
11.4917,1797
11.4944,1810
11.4972,1814
11.5000,1812
11.5028,1807
11.5056,1801
11.5083,1801
11.5111,1810
11.5139,1833
11.5167,1844
11.5194,1830
11.5222,1813
11.5250,1810
11.5278,1796
11.5306,1791
11.5333,1788
11.5361,1778
11.5389,1752
11.5417,1735
11.5444,1750
11.5472,1750
11.5500,1742
11.5528,1747
11.5556,1766
11.5583,1748
11.5611,1735
11.5639,1706
11.5667,1692
11.5694,1681
11.5722,1686
11.5750,1703
11.5778,1708
11.5806,1694
11.5833,1696
11.5861,1707
11.5889,1710
11.5917,1701
11.5944,1699
11.5972,1692
11.6000,1662
11.6028,1682
11.6056,1707
11.6083,1718
11.6111,1696
11.6139,1699
11.6167,1725
11.6194,1699
11.6222,1693
11.6250,1699
11.6278,1721
11.6306,1728
11.6333,1773
11.6361,1853
11.6389,1919
11.6417,1974
11.6444,2066
11.6472,2121
11.6500,2180
11.6528,2222
11.6556,2252
11.6583,2192
11.6611,2070
11.6639,1943
11.6667,1803
11.6694,1646
11.6722,1533
11.6750,1505
11.6778,1505
11.6806,1558
11.6833,1615
11.6861,1677
11.6889,1717
11.6917,1743
11.6944,1761
11.6972,1739
11.7000,1716
11.7028,1705
11.7056,1708
11.7083,1721
11.7111,1701
11.7139,1712
11.7167,1739
11.7194,1719
11.7222,1723
11.7250,1746
11.7278,1733
11.7306,1707
11.7333,1711
11.7361,1711
11.7389,1713
11.7417,1722
11.7444,1742
11.7472,1741
11.7500,1729
11.7528,1720
11.7556,1722
11.7583,1725
11.7611,1708
11.7639,1723
11.7667,1737
11.7694,1745
11.7722,1746
11.7750,1770
11.7778,1770
11.7806,1760
11.7833,1740
11.7861,1748
11.7889,1753
11.7917,1761
11.7944,1759
11.7972,1755
11.8000,1752
11.8028,1767
11.8056,1767
11.8083,1767
11.8111,1774
11.8139,1777
11.8167,1787
11.8194,1782
11.8222,1786
11.8250,1798
11.8278,1775
11.8306,1767
11.8333,1753
11.8361,1767
11.8389,1764
11.8417,1767
11.8444,1789
11.8472,1805
11.8500,1808
11.8528,1819
11.8556,1811
11.8583,1807
11.8611,1723
11.8639,1818
11.8667,1848
11.8694,1873
11.8722,1894
11.8750,1874
11.8778,1825
11.8806,1777
11.8833,1785
11.8861,1806
11.8889,1813
11.8917,1823
11.8944,1815
11.8972,1764
11.9000,1694
11.9028,1708
11.9056,1725
11.9083,1743
11.9111,1752
11.9139,1749
11.9167,1720
11.9194,1669
11.9222,1677
11.9250,1696
11.9278,1706
11.9306,1720
11.9333,1717
11.9361,1709
11.9389,1660
11.9417,1647
11.9444,1675
11.9472,1692
11.9500,1707
11.9528,1736
11.9556,1745
11.9583,1708
11.9611,1688
11.9639,1696
11.9667,1717
11.9694,1718
11.9722,1716
11.9750,1737
11.9778,1705
11.9806,1685
11.9833,1704
11.9861,1726
11.9889,1732
11.9917,1744
11.9944,1740
11.9972,1728
12.0000,1692
12.0028,1714
12.0056,1741
12.0083,1750
12.0111,1756
12.0139,1745
12.0167,1727
12.0194,1691
12.0222,1686
12.0250,1703
12.0278,1716
12.0306,1738
12.0333,1758
12.0361,1771
12.0389,1730
12.0417,1713
12.0444,1704
12.0472,1714
12.0500,1718
12.0528,1731
12.0556,1739
12.0583,1709
12.0611,1686
12.0639,1698
12.0667,1711
12.0694,1719
12.0722,1700
12.0750,1703
12.0778,1691
12.0806,1676
12.0833,1699
12.0861,1713
12.0889,1706
12.0917,1708
12.0944,1715
12.0972,1706
12.1000,1669
12.1028,1679
12.1056,1709
12.1083,1714
12.1111,1725
12.1139,1719
12.1167,1705
12.1194,1671
12.1222,1669
12.1250,1695
12.1278,1700
12.1306,1703
12.1333,1698
12.1361,1686
12.1389,1650
12.1417,1643
12.1444,1688
12.1472,1705
12.1500,1711
12.1528,1702
12.1556,1688
12.1583,1663
12.1611,1654
12.1639,1674
12.1667,1686
12.1694,1685
12.1722,1683
12.1750,1687
12.1778,1676
12.1806,1660
12.1833,1683
12.1861,1680
12.1889,1679
12.1917,1688
12.1944,1694
12.1972,1676
12.2000,1669
12.2028,1673
12.2056,1679
12.2083,1677
12.2111,1684
12.2139,1705
12.2167,1707
12.2194,1683
12.2222,1706
12.2250,1687
12.2278,1686
12.2306,1676
12.2333,1677
12.2361,1675
12.2389,1657
12.2417,1658
12.2444,1686
12.2472,1667
12.2500,1666
12.2528,1665
12.2556,1677
12.2583,1671
12.2611,1669
12.2639,1683
12.2667,1680
12.2694,1684
12.2722,1715
12.2750,1711
12.2778,1714
12.2806,1676
12.2833,1678
12.2861,1676
12.2889,1682
12.2917,1688
12.2944,1701
12.2972,1685
12.3000,1668
12.3028,1672
12.3056,1688
12.3083,1696
12.3111,1718
12.3139,1734
12.3167,1731
12.3194,1705
12.3222,1704
12.3250,1738
12.3278,1738
12.3306,1731
12.3333,1741
12.3361,1734
12.3389,1688
12.3417,1679
12.3444,1715
12.3472,1752
12.3500,1779
12.3528,1783
12.3556,1783
12.3583,1764
12.3611,1747
12.3639,1737
12.3667,1714
12.3694,1697
12.3722,1695
12.3750,1699
12.3778,1695
12.3806,1682
12.3833,1676
12.3861,1680
12.3889,1669
12.3917,1664
12.3944,1679
12.3972,1681
12.4000,1650
12.4028,1649
12.4056,1651
12.4083,1648
12.4111,1628
12.4139,1633
12.4167,1642
12.4194,1632
12.4222,1650
12.4250,1650
12.4278,1644
12.4306,1628
12.4333,1629
12.4361,1637
12.4389,1634
12.4417,1640
12.4444,1674
12.4472,1688
12.4500,1675
12.4528,1675
12.4556,1674
12.4583,1664
12.4611,1663
12.4639,1687
12.4667,1723
12.4694,1771
12.4722,1813
12.4750,1880
12.4778,1933
12.4806,1990
12.4833,2065
12.4861,2131
12.4889,2137
12.4917,2092
12.4944,2016
12.4972,1902
12.5000,1767
12.5028,1623
12.5056,1514
12.5083,1444
12.5111,1428
12.5139,1475
12.5167,1552
12.5194,1597
12.5222,1647
12.5250,1678
12.5278,1688
12.5306,1663
12.5333,1668
12.5361,1682
12.5389,1662
12.5417,1648
12.5444,1658
12.5472,1648
12.5500,1655
12.5528,1653
12.5556,1668
12.5583,1647
12.5611,1646
12.5639,1664
12.5667,1669
12.5694,1670
12.5722,1678
12.5750,1683
12.5778,1674
12.5806,1653
12.5833,1681
12.5861,1655
12.5889,1659
12.5917,1646
12.5944,1658
12.5972,1663
12.6000,1659
12.6028,1660
12.6056,1663
12.6083,1666
12.6111,1671
12.6139,1688
12.6167,1692
12.6194,1672
12.6222,1673
12.6250,1690
12.6278,1683
12.6306,1688
12.6333,1693
12.6361,1704
12.6389,1657
12.6417,1665
12.6444,1671
12.6472,1688
12.6500,1680
12.6528,1685
12.6556,1688
12.6583,1683
12.6611,1701
12.6639,1740
12.6667,1741
12.6694,1725
12.6722,1707
12.6750,1720
12.6778,1711
12.6806,1704
12.6833,1716
12.6861,1726
12.6889,1735
12.6917,1736
12.6944,1745
12.6972,1662
12.7000,1725
12.7028,1742
12.7056,1767
12.7083,1810
12.7111,1822
12.7139,1818
12.7167,1764
12.7194,1698
12.7222,1666
12.7250,1689
12.7278,1699
12.7306,1729
12.7333,1732
12.7361,1700
12.7389,1645
12.7417,1620
12.7444,1650
12.7472,1664
12.7500,1670
12.7528,1671
12.7556,1636
12.7583,1590
12.7611,1581
12.7639,1603
12.7667,1619
12.7694,1635
12.7722,1630
12.7750,1618
12.7778,1574
12.7806,1572
12.7833,1620
12.7861,1643
12.7889,1663
12.7917,1672
12.7944,1669
12.7972,1625
12.8000,1604
12.8028,1615
12.8056,1623
12.8083,1649
12.8111,1661
12.8139,1669
12.8167,1652
12.8194,1651
12.8222,1650
12.8250,1664
12.8278,1666
12.8306,1647
12.8333,1664
12.8361,1650
12.8389,1634
12.8417,1647
12.8444,1667
12.8472,1668
12.8500,1651
12.8528,1666
12.8556,1651
12.8583,1618
12.8611,1623
12.8639,1658
12.8667,1679
12.8694,1665
12.8722,1669
12.8750,1656
12.8778,1625
12.8806,1611
12.8833,1624
12.8861,1640
12.8889,1637
12.8917,1645
12.8944,1636
12.8972,1611
12.9000,1593
12.9028,1604
12.9056,1632
12.9083,1658
12.9111,1682
12.9139,1687
12.9167,1661
12.9194,1628
12.9222,1636
12.9250,1641
12.9278,1646
12.9306,1666
12.9333,1677
12.9361,1685
12.9389,1665
12.9417,1669
12.9444,1702
12.9472,1705
12.9500,1690
12.9528,1684
12.9556,1666
12.9583,1631
12.9611,1628
12.9639,1655
12.9667,1667
12.9694,1680
12.9722,1687
12.9750,1668
12.9778,1628
12.9806,1614
12.9833,1619
12.9861,1635
12.9889,1646
12.9917,1665
12.9944,1666
12.9972,1632
13.0000,1638
13.0028,1652
13.0056,1676
13.0083,1670
13.0111,1676
13.0139,1678
13.0167,1656
13.0194,1617
13.0222,1623
13.0250,1645
13.0278,1646
13.0306,1625
13.0333,1639
13.0361,1636
13.0389,1633
13.0417,1657
13.0444,1696
13.0472,1701
13.0500,1717
13.0528,1729
13.0556,1715
13.0583,1667
13.0611,1643
13.0639,1654
13.0667,1674
13.0694,1696
13.0722,1722
13.0750,1755
13.0778,1772
13.0806,1778
13.0833,1806
13.0861,1795
13.0889,1780
13.0917,1777
13.0944,1769
13.0972,1724
13.1000,1684
13.1028,1685
13.1056,1677
13.1083,1679
13.1111,1689
13.1139,1687
13.1167,1646
13.1194,1592
13.1222,1585
13.1250,1600
13.1278,1604
13.1306,1628
13.1333,1650
13.1361,1637
13.1389,1619
13.1417,1615
13.1444,1618
13.1472,1597
13.1500,1583
13.1528,1593
13.1556,1600
13.1583,1585
13.1611,1603
13.1639,1627
13.1667,1624
13.1694,1613
13.1722,1600
13.1750,1607
13.1778,1595
13.1806,1620
13.1833,1642
13.1861,1658
13.1889,1647
13.1917,1647
13.1944,1650
13.1972,1633
13.2000,1614
13.2028,1649
13.2056,1703
13.2083,1752
13.2111,1811
13.2139,1872
13.2167,1939
13.2194,1991
13.2222,2063
13.2250,2123
13.2278,2125
13.2306,2075
13.2333,1993
13.2361,1874
13.2389,1727
13.2417,1567
13.2444,1462
13.2472,1394
13.2500,1386
13.2528,1459
13.2556,1563
13.2583,1613
13.2611,1660
13.2639,1670
13.2667,1669
13.2694,1649
13.2722,1637
13.2750,1637
13.2778,1636
13.2806,1624
13.2833,1625
13.2861,1620
13.2889,1618
13.2917,1632
13.2944,1643
13.2972,1644
13.3000,1627
13.3028,1646
13.3056,1639
13.3083,1621
13.3111,1587
13.3139,1610
13.3167,1609
13.3194,1616
13.3222,1647
13.3250,1664
13.3278,1664
13.3306,1645
13.3333,1663
13.3361,1671
13.3389,1658
13.3417,1679
13.3444,1697
13.3472,1682
13.3500,1676
13.3528,1659
13.3556,1670
13.3583,1663
13.3611,1688
13.3639,1708
13.3667,1711
13.3694,1706
13.3722,1710
13.3750,1701
13.3778,1693
13.3806,1680
13.3833,1677
13.3861,1668
13.3889,1672
13.3917,1675
13.3944,1725
13.3972,1729
13.4000,1732
13.4028,1749
13.4056,1750
13.4083,1742
13.4111,1731
13.4139,1726
13.4167,1725
13.4194,1719
13.4222,1756
13.4250,1781
13.4278,1768
13.4306,1757
13.4333,1768
13.4361,1731
13.4389,1784
13.4417,1792
13.4444,1819
13.4472,1825
13.4500,1819
13.4528,1813
13.4556,1772
13.4583,1728
13.4611,1714
13.4639,1725
13.4667,1740
13.4694,1773
13.4722,1764
13.4750,1748
13.4778,1709
13.4806,1686
13.4833,1697
13.4861,1706
13.4889,1707
13.4917,1716
13.4944,1693
13.4972,1647
13.5000,1625
13.5028,1658
13.5056,1680
13.5083,1723
13.5111,1733
13.5139,1716
13.5167,1670
13.5194,1643
13.5222,1662
13.5250,1674
13.5278,1690
13.5306,1690
13.5333,1702
13.5361,1661
13.5389,1662
13.5417,1667
13.5444,1693
13.5472,1709
13.5500,1702
13.5528,1702
13.5556,1661
13.5583,1614
13.5611,1627
13.5639,1675
13.5667,1699
13.5694,1708
13.5722,1721
13.5750,1705
13.5778,1659
13.5806,1669
13.5833,1690
13.5861,1710
13.5889,1722
13.5917,1728
13.5944,1725
13.5972,1710
13.6000,1705
13.6028,1726
13.6056,1726
13.6083,1717
13.6111,1705
13.6139,1693
13.6167,1670
13.6194,1680
13.6222,1697
13.6250,1706
13.6278,1703
13.6306,1704
13.6333,1691
13.6361,1675
13.6389,1659
13.6417,1671
13.6444,1688
13.6472,1687
13.6500,1696
13.6528,1718
13.6556,1704
13.6583,1694
13.6611,1688
13.6639,1697
13.6667,1690
13.6694,1704
13.6722,1713
13.6750,1695
13.6778,1668
13.6806,1663
13.6833,1673
13.6861,1675
13.6889,1693
13.6917,1722
13.6944,1707
13.6972,1683
13.7000,1668
13.7028,1674
13.7056,1689
13.7083,1668
13.7111,1677
13.7139,1673
13.7167,1670
13.7194,1674
13.7222,1698
13.7250,1713
13.7278,1712
13.7306,1705
13.7333,1701
13.7361,1682
13.7389,1671
13.7417,1693
13.7444,1706
13.7472,1711
13.7500,1717
13.7528,1731
13.7556,1710
13.7583,1694
13.7611,1681
13.7639,1700
13.7667,1693
13.7694,1709
13.7722,1706
13.7750,1715
13.7778,1706
13.7806,1723
13.7833,1731
13.7861,1724
13.7889,1714
13.7917,1726
13.7944,1729
13.7972,1700
13.8000,1686
13.8028,1700
13.8056,1704
13.8083,1722
13.8111,1719
13.8139,1732
13.8167,1705
13.8194,1696
13.8222,1694
13.8250,1707
13.8278,1718
13.8306,1723
13.8333,1736
13.8361,1711
13.8389,1706
13.8417,1711
13.8444,1725
13.8472,1725
13.8500,1726
13.8528,1735
13.8556,1725
13.8583,1702
13.8611,1712
13.8639,1728
13.8667,1718
13.8694,1704
13.8722,1717
13.8750,1706
13.8778,1692
13.8806,1700
13.8833,1713
13.8861,1714
13.8889,1717
13.8917,1727
13.8944,1709
13.8972,1669
13.9000,1671
13.9028,1688
13.9056,1729
13.9083,1716
13.9111,1728
13.9139,1736
13.9167,1722
13.9194,1704
13.9222,1696
13.9250,1696
13.9278,1679
13.9306,1687
13.9333,1722
13.9361,1729
13.9389,1714
13.9417,1731
13.9444,1744
13.9472,1745
13.9500,1755
13.9528,1757
13.9556,1740
13.9583,1727
13.9611,1731
13.9639,1734
13.9667,1748
13.9694,1778
13.9722,1825
13.9750,1856
13.9778,1849
13.9806,1819
13.9833,1802
13.9861,1799
13.9889,1782
13.9917,1772
13.9944,1764
13.9972,1746
14.0000,1759
14.0028,1751
14.0056,1724
14.0083,1691
14.0111,1686
14.0139,1689
14.0167,1687
14.0194,1692
14.0222,1704
14.0250,1709
14.0278,1697
14.0306,1685
14.0333,1691
14.0361,1666
14.0389,1658
14.0417,1659
14.0444,1666
14.0472,1656
14.0500,1652
14.0528,1669
14.0556,1654
14.0583,1664
14.0611,1679
14.0639,1694
14.0667,1691
14.0694,1677
14.0722,1695
14.0750,1695
14.0778,1670
14.0806,1652
14.0833,1662
14.0861,1656
14.0889,1655
14.0917,1689
14.0944,1727
14.0972,1737
14.1000,1799
14.1028,1881
14.1056,1958
14.1083,2015
14.1111,2090
14.1139,2159
14.1167,2172
14.1194,2145
14.1222,2064
14.1250,1941
14.1278,1783
14.1306,1648
14.1333,1546
14.1361,1457
14.1389,1433
14.1417,1472
14.1444,1532
14.1472,1590
14.1500,1637
14.1528,1682
14.1556,1701
14.1583,1682
14.1611,1677
14.1639,1646
14.1667,1640
14.1694,1638
14.1722,1662
14.1750,1647
14.1778,1629
14.1806,1651
14.1833,1674
14.1861,1664
14.1889,1653
14.1917,1655
14.1944,1675
14.1972,1658
14.2000,1647
14.2028,1659
14.2056,1661
14.2083,1643
14.2111,1648
14.2139,1655
14.2167,1639
14.2194,1662
14.2222,1672
14.2250,1686
14.2278,1679
14.2306,1697
14.2333,1708
14.2361,1693
14.2389,1663
14.2417,1668
14.2444,1686
14.2472,1698
14.2500,1696
14.2528,1719
14.2556,1720
14.2583,1710
14.2611,1713
14.2639,1715
14.2667,1706
14.2694,1721
14.2722,1741
14.2750,1743
14.2778,1720
14.2806,1721
14.2833,1736
14.2861,1726
14.2889,1719
14.2917,1738
14.2944,1738
14.2972,1727
14.3000,1737
14.3028,1752
14.3056,1758
14.3083,1741
14.3111,1749
14.3139,1751
14.3167,1739
14.3194,1743
14.3222,1764
14.3250,1934
14.3278,1883
14.3306,1897
14.3333,1886
14.3361,1840
14.3389,1822
14.3417,1833
14.3444,1865
14.3472,1865
14.3500,1875
14.3528,1858
14.3556,1806
14.3583,1769
14.3611,1793
14.3639,1805
14.3667,1817
14.3694,1834
14.3722,1805
14.3750,1777
14.3778,1730
14.3806,1721
14.3833,1744
14.3861,1742
14.3889,1757
14.3917,1742
14.3944,1718
14.3972,1692
14.4000,1708
14.4028,1734
14.4056,1747
14.4083,1763
14.4111,1768
14.4139,1754
14.4167,1716
14.4194,1719
14.4222,1741
14.4250,1763
14.4278,1769
14.4306,1772
14.4333,1762
14.4361,1727
14.4389,1699
14.4417,1723
14.4444,1726
14.4472,1745
14.4500,1749
14.4528,1760
14.4556,1721
14.4583,1713
14.4611,1744
14.4639,1747
14.4667,1767
14.4694,1772
14.4722,1778
14.4750,1755
14.4778,1723
14.4806,1743
14.4833,1747
14.4861,1743
14.4889,1759
14.4917,1778
14.4944,1749
14.4972,1732
14.5000,1744
14.5028,1764
14.5056,1758
14.5083,1757
14.5111,1759
14.5139,1749
14.5167,1712
14.5194,1717
14.5222,1732
14.5250,1737
14.5278,1747
14.5306,1749
14.5333,1758
14.5361,1742
14.5389,1736
14.5417,1748
14.5444,1756
14.5472,1754
14.5500,1765
14.5528,1764
14.5556,1728
14.5583,1712
14.5611,1729
14.5639,1728
14.5667,1731
14.5694,1724
14.5722,1731
14.5750,1708
14.5778,1694
14.5806,1722
14.5833,1754
14.5861,1770
14.5889,1775
14.5917,1777
14.5944,1750
14.5972,1702
14.6000,1697
14.6028,1702
14.6056,1692
14.6083,1709
14.6111,1724
14.6139,1731
14.6167,1719
14.6194,1725
14.6222,1732
14.6250,1719
14.6278,1711
14.6306,1719
14.6333,1716
14.6361,1692
14.6389,1683
14.6417,1687
14.6444,1702
14.6472,1709
14.6500,1712
14.6528,1711
14.6556,1697
14.6583,1679
14.6611,1673
14.6639,1679
14.6667,1682
14.6694,1688
14.6722,1694
14.6750,1677
14.6778,1656
14.6806,1666
14.6833,1696
14.6861,1683
14.6889,1704
14.6917,1713
14.6944,1694
14.6972,1677
14.7000,1695
14.7028,1705
14.7056,1720
14.7083,1710
14.7111,1715
14.7139,1698
14.7167,1677
14.7194,1682
14.7222,1701
14.7250,1694
14.7278,1693
14.7306,1702
14.7333,1701
14.7361,1682
14.7389,1680
14.7417,1694
14.7444,1703
14.7472,1696
14.7500,1691
14.7528,1699
14.7556,1680
14.7583,1675
14.7611,1683
14.7639,1695
14.7667,1698
14.7694,1704
14.7722,1703
14.7750,1699
14.7778,1669
14.7806,1671
14.7833,1690
14.7861,1692
14.7889,1715
14.7917,1730
14.7944,1735
14.7972,1701
14.8000,1696
14.8028,1715
14.8056,1703
14.8083,1703
14.8111,1728
14.8139,1740
14.8167,1737
14.8194,1750
14.8222,1774
14.8250,1776
14.8278,1783
14.8306,1804
14.8333,1838
14.8361,1839
14.8389,1825
14.8417,1829
14.8444,1819
14.8472,1824
14.8500,1797
14.8528,1787
14.8556,1755
14.8583,1749
14.8611,1753
14.8639,1727
14.8667,1707
14.8694,1688
14.8722,1676
14.8750,1668
14.8778,1663
14.8806,1678
14.8833,1697
14.8861,1674
14.8889,1672
14.8917,1662
14.8944,1647
14.8972,1620
14.9000,1625
14.9028,1649
14.9056,1660
14.9083,1665
14.9111,1683
14.9139,1690
14.9167,1663
14.9194,1656
14.9222,1653
14.9250,1651
14.9278,1662
14.9306,1667
14.9333,1688
14.9361,1682
14.9389,1672
14.9417,1671
14.9444,1667
14.9472,1669
14.9500,1683
14.9528,1723
14.9556,1754
14.9583,1823
14.9611,1905
14.9639,1974
14.9667,2035
14.9694,2105
14.9722,2168
14.9750,2196
14.9778,2173
14.9806,2096
14.9833,1958
14.9861,1815
14.9889,1657
14.9917,1531
14.9944,1472
14.9972,1442
15.0000,1492
15.0028,1551
15.0056,1603
15.0083,1652
15.0111,1680
15.0139,1689
15.0167,1674
15.0194,1663
15.0222,1680
15.0250,1684
15.0278,1678
15.0306,1682
15.0333,1709
15.0361,1687
15.0389,1681
15.0417,1687
15.0444,1668
15.0472,1661
15.0500,1678
15.0528,1673
15.0556,1671
15.0583,1668
15.0611,1685
15.0639,1692
15.0667,1687
15.0694,1694
15.0722,1707
15.0750,1705
15.0778,1680
15.0806,1685
15.0833,1694
15.0861,1685
15.0889,1702
15.0917,1719
15.0944,1705
15.0972,1694
15.1000,1709
15.1028,1712
15.1056,1722
15.1083,1726
15.1111,1753
15.1139,1749
15.1167,1743
15.1194,1745
15.1222,1751
15.1250,1739
15.1278,1743
15.1306,1753
15.1333,1768
15.1361,1743
15.1389,1754
15.1417,1765
15.1444,1770
15.1472,1739
15.1500,1747
15.1528,1764
15.1556,1768
15.1583,1763
15.1611,1764
15.1639,1771
15.1667,1760
15.1694,1777
15.1722,1781
15.1750,1797
15.1778,1790
15.1806,1802
15.1833,1874
15.1861,1852
15.1889,1864
15.1917,1852
15.1944,1830
15.1972,1805
15.2000,1804
15.2028,1824
15.2056,1832
15.2083,1840
15.2111,1831
15.2139,1768
15.2167,1718
15.2194,1734
15.2222,1764
15.2250,1775
15.2278,1776
15.2306,1762
15.2333,1736
15.2361,1686
15.2389,1680
15.2417,1701
15.2444,1713
15.2472,1726
15.2500,1737
15.2528,1727
15.2556,1684
15.2583,1674
15.2611,1697
15.2639,1704
15.2667,1705
15.2694,1713
15.2722,1699
15.2750,1665
15.2778,1670
15.2806,1697
15.2833,1739
15.2861,1747
15.2889,1742
15.2917,1737
15.2944,1706
15.2972,1663
15.3000,1680
15.3028,1696
15.3056,1694
15.3083,1723
15.3111,1736
15.3139,1712
15.3167,1682
15.3194,1686
15.3222,1704
15.3250,1707
15.3278,1717
15.3306,1725
15.3333,1721
15.3361,1677
15.3389,1684
15.3417,1704
15.3444,1705
15.3472,1693
15.3500,1711
15.3528,1686
15.3556,1661
15.3583,1667
15.3611,1693
15.3639,1712
15.3667,1730
15.3694,1729
15.3722,1740
15.3750,1698
15.3778,1684
15.3806,1691
15.3833,1717
15.3861,1722
15.3889,1738
15.3917,1764
15.3944,1731
15.3972,1708
15.4000,1715
15.4028,1736
15.4056,1720
15.4083,1730
15.4111,1737
15.4139,1717
15.4167,1704
15.4194,1706
15.4222,1724
15.4250,1733
15.4278,1721
15.4306,1734
15.4333,1714
15.4361,1679
15.4389,1677
15.4417,1696
15.4444,1710
15.4472,1730
15.4500,1748
15.4528,1740
15.4556,1710
15.4583,1706
15.4611,1709
15.4639,1714
15.4667,1725
15.4694,1717
15.4722,1724
15.4750,1707
15.4778,1699
15.4806,1723
15.4833,1737
15.4861,1712
15.4889,1710
15.4917,1706
15.4944,1693
15.4972,1688
15.5000,1693
15.5028,1702
15.5056,1708
15.5083,1724
15.5111,1740
15.5139,1726
15.5167,1686
15.5194,1696
15.5222,1694
15.5250,1691
15.5278,1693
15.5306,1729
15.5333,1719
15.5361,1735
15.5389,1724
15.5417,1719
15.5444,1725
15.5472,1720
15.5500,1715
15.5528,1715
15.5556,1686
15.5583,1680
15.5611,1696
15.5639,1700
15.5667,1694
15.5694,1697
15.5722,1720
15.5750,1697
15.5778,1690
15.5806,1706
15.5833,1710
15.5861,1711
15.5889,1707
15.5917,1712
15.5944,1702
15.5972,1689
15.6000,1698
15.6028,1694
15.6056,1687
15.6083,1684
15.6111,1706
15.6139,1694
15.6167,1664
15.6194,1676
15.6222,1683
15.6250,1687
15.6278,1669
15.6306,1684
15.6333,1674
15.6361,1665
15.6389,1670
15.6417,1689
15.6444,1698
15.6472,1705
15.6500,1707
15.6528,1713
15.6556,1691
15.6583,1708
15.6611,1729
15.6639,1738
15.6667,1730
15.6694,1731
15.6722,1752
15.6750,1756
15.6778,1781
15.6806,1804
15.6833,1793
15.6861,1766
15.6889,1766
15.6917,1770
15.6944,1755
15.6972,1736
15.7000,1736
15.7028,1733
15.7056,1727
15.7083,1701
15.7111,1694
15.7139,1651
15.7167,1628
15.7194,1631
15.7222,1650
15.7250,1650
15.7278,1650
15.7306,1661
15.7333,1642
15.7361,1603
15.7389,1601
15.7417,1608
15.7444,1596
15.7472,1590
15.7500,1602
15.7528,1614
15.7556,1614
15.7583,1621
15.7611,1650
15.7639,1630
15.7667,1626
15.7694,1630
15.7722,1647
15.7750,1624
15.7778,1626
15.7806,1648
15.7833,1647
15.7861,1621
15.7889,1625
15.7917,1635
15.7944,1649
15.7972,1682
15.8000,1731
15.8028,1800
15.8056,1862
15.8083,1935
15.8111,2013
15.8139,2070
15.8167,2120
15.8194,2181
15.8222,2163
15.8250,2076
15.8278,1960
15.8306,1842
15.8333,1706
15.8361,1585
15.8389,1505
15.8417,1476
15.8444,1492
15.8472,1534
15.8500,1588
15.8528,1640
15.8556,1648
15.8583,1663
15.8611,1682
15.8639,1680
15.8667,1670
15.8694,1679
15.8722,1678
15.8750,1670
15.8778,1658
15.8806,1692
15.8833,1683
15.8861,1687
15.8889,1684
15.8917,1694
15.8944,1687
15.8972,1678
15.9000,1693
15.9028,1694
15.9056,1675
15.9083,1667
15.9111,1673
15.9139,1673
15.9167,1650
15.9194,1656
15.9222,1676
15.9250,1671
15.9278,1696
15.9306,1701
15.9333,1706
15.9361,1706
15.9389,1701
15.9417,1705
15.9444,1672
15.9472,1666
15.9500,1672
15.9528,1689
15.9556,1672
15.9583,1675
15.9611,1704
15.9639,1702
15.9667,1688
15.9694,1719
15.9722,1729
15.9750,1710
15.9778,1694
15.9806,1703
15.9833,1699
15.9861,1689
15.9889,1703
15.9917,1715
15.9944,1722
15.9972,1728
16.0000,1755
16.0028,1753
16.0056,1763
16.0083,1750
16.0111,1768
16.0139,1748
16.0167,1732
16.0194,1749
16.0222,1758
16.0250,1758
16.0278,1939
16.0306,1852
16.0333,1810
16.0361,1761
16.0389,1771
16.0417,1797
16.0444,1807
16.0472,1809
16.0500,1786
16.0528,1741
16.0556,1688
16.0583,1670
16.0611,1714
16.0639,1727
16.0667,1742
16.0694,1745
16.0722,1700
16.0750,1652
16.0778,1637
16.0806,1653
16.0833,1652
16.0861,1642
16.0889,1637
16.0917,1630
16.0944,1601
16.0972,1609
16.1000,1643
16.1028,1652
16.1056,1659
16.1083,1669
16.1111,1648
16.1139,1610
16.1167,1606
16.1194,1623
16.1222,1637
16.1250,1640
16.1278,1658
16.1306,1643
16.1333,1608
16.1361,1594
16.1389,1620
16.1417,1651
16.1444,1681
16.1472,1689
16.1500,1703
16.1528,1676
16.1556,1643
16.1583,1662
16.1611,1669
16.1639,1678
16.1667,1684
16.1694,1666
16.1722,1659
16.1750,1642
16.1778,1669
16.1806,1674
16.1833,1690
16.1861,1679
16.1889,1690
16.1917,1690
16.1944,1646
16.1972,1642
16.2000,1647
16.2028,1662
16.2056,1686
16.2083,1708
16.2111,1709
16.2139,1688
16.2167,1676
16.2194,1677
16.2222,1698
16.2250,1711
16.2278,1713
16.2306,1729
16.2333,1690
16.2361,1661
16.2389,1674
16.2417,1673
16.2444,1662
16.2472,1671
16.2500,1691
16.2528,1690
16.2556,1663
16.2583,1656
16.2611,1673
16.2639,1678
16.2667,1671
16.2694,1677
16.2722,1650
16.2750,1609
16.2778,1604
16.2806,1622
16.2833,1636
16.2861,1652
16.2889,1667
16.2917,1648
16.2944,1633
16.2972,1646
16.3000,1668
16.3028,1692
16.3056,1698
16.3083,1693
16.3111,1676
16.3139,1648
16.3167,1635
16.3194,1649
16.3222,1666
16.3250,1675
16.3278,1704
16.3306,1727
16.3333,1712
16.3361,1681
16.3389,1697
16.3417,1685
16.3444,1668
16.3472,1656
16.3500,1665
16.3528,1653
16.3556,1638
16.3583,1672
16.3611,1703
16.3639,1696
16.3667,1700
16.3694,1682
16.3722,1649
16.3750,1613
16.3778,1599
16.3806,1618
16.3833,1651
16.3861,1664
16.3889,1687
16.3917,1697
16.3944,1686
16.3972,1660
16.4000,1654
16.4028,1646
16.4056,1640
16.4083,1656
16.4111,1671
16.4139,1658
16.4167,1635
16.4194,1652
16.4222,1660
16.4250,1667
16.4278,1676
16.4306,1686
16.4333,1680
16.4361,1664
16.4389,1668
16.4417,1681
16.4444,1692
16.4472,1703
16.4500,1716
16.4528,1717
16.4556,1680
16.4583,1679
16.4611,1684
16.4639,1677
16.4667,1677
16.4694,1683
16.4722,1701
16.4750,1701
16.4778,1745
16.4806,1780
16.4833,1777
16.4861,1764
16.4889,1773
16.4917,1773
16.4944,1733
16.4972,1732
16.5000,1752
16.5028,1737
16.5056,1724
16.5083,1709
16.5111,1702
16.5139,1667
16.5167,1665
16.5194,1689
16.5222,1684
16.5250,1669
16.5278,1661
16.5306,1658
16.5333,1619
16.5361,1592
16.5389,1630
16.5417,1652
16.5444,1655
16.5472,1668
16.5500,1678
16.5528,1662
16.5556,1644
16.5583,1640
16.5611,1639
16.5639,1652
16.5667,1641
16.5694,1650
16.5722,1639
16.5750,1620
16.5778,1647
16.5806,1680
16.5833,1665
16.5861,1649
16.5889,1650
16.5917,1666
16.5944,1641
16.5972,1666
16.6000,1701
16.6028,1740
16.6056,1786
16.6083,1848
16.6111,1914
16.6139,1959
16.6167,2023
16.6194,2088
16.6222,2136
16.6250,2135
16.6278,2093
16.6306,2021
16.6333,1895
16.6361,1745
16.6389,1609
16.6417,1500
16.6444,1446
16.6472,1431
16.6500,1500
16.6528,1560
16.6556,1595
16.6583,1633
16.6611,1665
16.6639,1681
16.6667,1672
16.6694,1683
16.6722,1658
16.6750,1658
16.6778,1650
16.6806,1658
16.6833,1631
16.6861,1628
16.6889,1638
16.6917,1662
16.6944,1667
16.6972,1671
16.7000,1685
16.7028,1674
16.7056,1672
16.7083,1680
16.7111,1674
16.7139,1669
16.7167,1655
16.7194,1672
16.7222,1673
16.7250,1667
16.7278,1666
16.7306,1680
16.7333,1690
16.7361,1699
16.7389,1715
16.7417,1735
16.7444,1735
16.7472,1734
16.7500,1729
16.7528,1704
16.7556,1694
16.7583,1697
16.7611,1729
16.7639,1721
16.7667,1701
16.7694,1713
16.7722,1718
16.7750,1710
16.7778,1723
16.7806,1754
16.7833,1753
16.7861,1744
16.7889,1761
16.7917,1780
16.7944,1758
16.7972,1745
16.8000,1765
16.8028,1763
16.8056,1758
16.8083,1765
16.8111,1778
16.8139,1784
16.8167,1778
16.8194,1787
16.8222,1772
16.8250,1775
16.8278,1776
16.8306,1788
16.8333,1731
16.8361,1804
16.8389,1818
16.8417,1832
16.8444,1842
16.8472,1851
16.8500,1852
16.8528,1809
16.8556,1786
16.8583,1791
16.8611,1799
16.8639,1800
16.8667,1792
16.8694,1774
16.8722,1713
16.8750,1673
16.8778,1685
16.8806,1711
16.8833,1727
16.8861,1729
16.8889,1726
16.8917,1700
16.8944,1660
16.8972,1652
16.9000,1666
16.9028,1676
16.9056,1688
16.9083,1694
16.9111,1672
16.9139,1642
16.9167,1656
16.9194,1699
16.9222,1707
16.9250,1721
16.9278,1721
16.9306,1687
16.9333,1643
16.9361,1640
16.9389,1674
16.9417,1695
16.9444,1713
16.9472,1725
16.9500,1713
16.9528,1686
16.9556,1663
16.9583,1670
16.9611,1697
16.9639,1720
16.9667,1736
16.9694,1735
16.9722,1710
16.9750,1677
16.9778,1698
16.9806,1710
16.9833,1708
16.9861,1719
16.9889,1716
16.9917,1685
16.9944,1659
16.9972,1666
17.0000,1699
17.0028,1700
17.0056,1722
17.0083,1723
17.0111,1736
17.0139,1703
17.0167,1710
17.0194,1719
17.0222,1720
17.0250,1699
17.0278,1714
17.0306,1709
17.0333,1669
17.0361,1676
17.0389,1700
17.0417,1714
17.0444,1705
17.0472,1714
17.0500,1706
17.0528,1686
17.0556,1671
17.0583,1691
17.0611,1693
17.0639,1706
17.0667,1710
17.0694,1720
17.0722,1703
17.0750,1685
17.0778,1702
17.0806,1714
17.0833,1695
17.0861,1700
17.0889,1723
17.0917,1711
17.0944,1694
17.0972,1694
17.1000,1702
17.1028,1709
17.1056,1695
17.1083,1703
17.1111,1698
17.1139,1683
17.1167,1686
17.1194,1701
17.1222,1682
17.1250,1693
17.1278,1691
17.1306,1677
17.1333,1662
17.1361,1661
17.1389,1676
17.1417,1700
17.1444,1700
17.1472,1722
17.1500,1725
17.1528,1704
17.1556,1697
17.1583,1712
17.1611,1693
17.1639,1697
17.1667,1689
17.1694,1705
17.1722,1673
17.1750,1653
17.1778,1655
17.1806,1668
17.1833,1679
17.1861,1683
17.1889,1707
17.1917,1687
17.1944,1671
17.1972,1677
17.2000,1682
17.2028,1677
17.2056,1670
17.2083,1683
17.2111,1691
17.2139,1678
17.2167,1704
17.2194,1737
17.2222,1740
17.2250,1748
17.2278,1744
17.2306,1734
17.2333,1700
17.2361,1696
17.2389,1715
17.2417,1716
17.2444,1721
17.2472,1723
17.2500,1735
17.2528,1723
17.2556,1728
17.2583,1754
17.2611,1772
17.2639,1768
17.2667,1769
17.2694,1774
17.2722,1753
17.2750,1726
17.2778,1724
17.2806,1706
17.2833,1684
17.2861,1679
17.2889,1693
17.2917,1690
17.2944,1680
17.2972,1671
17.3000,1682
17.3028,1656
17.3056,1653
17.3083,1667
17.3111,1668
17.3139,1645
17.3167,1659
17.3194,1673
17.3222,1669
17.3250,1641
17.3278,1660
17.3306,1664
17.3333,1641
17.3361,1639
17.3389,1656
17.3417,1651
17.3444,1635
17.3472,1645
17.3500,1665
17.3528,1665
17.3556,1654
17.3583,1668
17.3611,1654
17.3639,1640
17.3667,1657
17.3694,1667
17.3722,1678
17.3750,1697
17.3778,1742
17.3806,1806
17.3833,1875
17.3861,1926
17.3889,2004
17.3917,2067
17.3944,2105
17.3972,2159
17.4000,2166
17.4028,2102
17.4056,1989
17.4083,1874
17.4111,1730
17.4139,1570
17.4167,1479
17.4194,1463
17.4222,1499
17.4250,1559
17.4278,1617
17.4306,1668
17.4333,1673
17.4361,1690
17.4389,1700
17.4417,1686
17.4444,1681
17.4472,1685
17.4500,1680
17.4528,1667
17.4556,1668
17.4583,1660
17.4611,1668
17.4639,1650
17.4667,1659
17.4694,1677
17.4722,1669
17.4750,1656
17.4778,1668
17.4806,1675
17.4833,1665
17.4861,1661
17.4889,1686
17.4917,1683
17.4944,1686
17.4972,1694
17.5000,1700
17.5028,1675
17.5056,1675
17.5083,1690
17.5111,1680
17.5139,1684
17.5167,1685
17.5194,1693
17.5222,1687
17.5250,1677
17.5278,1685
17.5306,1696
17.5333,1674
17.5361,1680
17.5389,1703
17.5417,1707
17.5444,1706
17.5472,1699
17.5500,1700
17.5528,1687
17.5556,1684
17.5583,1698
17.5611,1696
17.5639,1685
17.5667,1694
17.5694,1712
17.5722,1721
17.5750,1727
17.5778,1736
17.5806,1748
17.5833,1735
17.5861,1725
17.5889,1749
17.5917,1745
17.5944,1732
17.5972,1742
17.6000,1762
17.6028,1761
17.6056,1924
17.6083,1838
17.6111,1783
17.6139,1761
17.6167,1777
17.6194,1807
17.6222,1836
17.6250,1843
17.6278,1829
17.6306,1782
17.6333,1734
17.6361,1734
17.6389,1747
17.6417,1745
17.6444,1763
17.6472,1763
17.6500,1750
17.6528,1693
17.6556,1685
17.6583,1709
17.6611,1719
17.6639,1725
17.6667,1726
17.6694,1703
17.6722,1677
17.6750,1660
17.6778,1669
17.6806,1685
17.6833,1696
17.6861,1707
17.6889,1695
17.6917,1665
17.6944,1629
17.6972,1653
17.7000,1676
17.7028,1676
17.7056,1682
17.7083,1678
17.7111,1668
17.7139,1651
17.7167,1661
17.7194,1692
17.7222,1698
17.7250,1688
17.7278,1702
17.7306,1673
17.7333,1639
17.7361,1655
17.7389,1690
17.7417,1697
17.7444,1706
17.7472,1701
17.7500,1673
17.7528,1629
17.7556,1632
17.7583,1668
17.7611,1673
17.7639,1698
17.7667,1716
17.7694,1697
17.7722,1672
17.7750,1638
17.7778,1665
17.7806,1691
17.7833,1715
17.7861,1724
17.7889,1707
17.7917,1687
17.7944,1670
17.7972,1689
17.8000,1710
17.8028,1726
17.8056,1735
17.8083,1729
17.8111,1699
17.8139,1678
17.8167,1684
17.8194,1695
17.8222,1702
17.8250,1722
17.8278,1737
17.8306,1711
17.8333,1683
17.8361,1664
17.8389,1683
17.8417,1663
17.8444,1662
17.8472,1692
17.8500,1688
17.8528,1680
17.8556,1687
17.8583,1707
17.8611,1705
17.8639,1694
17.8667,1712
17.8694,1711
17.8722,1678
17.8750,1680
17.8778,1701
17.8806,1730
17.8833,1730
17.8861,1725
17.8889,1728
17.8917,1687
17.8944,1667
17.8972,1681
17.9000,1693
17.9028,1703
17.9056,1694
17.9083,1701
17.9111,1685
17.9139,1683
17.9167,1707
17.9194,1711
17.9222,1706
17.9250,1689
17.9278,1694
17.9306,1695
17.9333,1671
17.9361,1690
17.9389,1704
17.9417,1700
17.9444,1698
17.9472,1704
17.9500,1698
17.9528,1663
17.9556,1665
17.9583,1691
17.9611,1694
17.9639,1684
17.9667,1681
17.9694,1692
17.9722,1685
17.9750,1676
17.9778,1690
17.9806,1691
17.9833,1678
17.9861,1677
17.9889,1678
17.9917,1662
17.9944,1647
17.9972,1662
18.0000,1681
18.0028,1674
18.0056,1683
18.0083,1701
18.0111,1709
18.0139,1684
18.0167,1700
18.0194,1692
18.0222,1682
18.0250,1689
18.0278,1719
18.0306,1709
18.0333,1693
18.0361,1696
18.0389,1711
18.0417,1719
18.0444,1706
18.0472,1730
18.0500,1731
18.0528,1713
18.0556,1703
18.0583,1716
18.0611,1710
18.0639,1715
18.0667,1762
18.0694,1780
18.0722,1759
18.0750,1746
18.0778,1759
18.0806,1741
18.0833,1731
18.0861,1735
18.0889,1755
18.0917,1753
18.0944,1767
18.0972,1774
18.1000,1773
18.1028,1781
18.1056,1818
18.1083,1842
18.1111,1826
18.1139,1808
18.1167,1796
18.1194,1809
18.1222,1792
18.1250,1794
18.1278,1795
18.1306,1781
18.1333,1750
18.1361,1749
18.1389,1737
18.1417,1717
18.1444,1701
18.1472,1709
18.1500,1702
18.1528,1701
18.1556,1705
18.1583,1714
18.1611,1711
18.1639,1704
18.1667,1695
18.1694,1692
18.1722,1672
18.1750,1676
18.1778,1681
18.1806,1680
18.1833,1685
18.1861,1697
18.1889,1721
18.1917,1702
18.1944,1682
18.1972,1696
18.2000,1690
18.2028,1690
18.2056,1700
18.2083,1714
18.2111,1693
18.2139,1697
18.2167,1703
18.2194,1722
18.2222,1713
18.2250,1707
18.2278,1731
18.2306,1763
18.2333,1792
18.2361,1866
18.2389,1942
18.2417,1994
18.2444,2066
18.2472,2138
18.2500,2215
18.2528,2225
18.2556,2172
18.2583,2090
18.2611,1943
18.2639,1795
18.2667,1656
18.2694,1554
18.2722,1469
18.2750,1471
18.2778,1534
18.2806,1599
18.2833,1647
18.2861,1689
18.2889,1709
18.2917,1699
18.2944,1684
18.2972,1682
18.3000,1672
18.3028,1668
18.3056,1662
18.3083,1679
18.3111,1667
18.3139,1663
18.3167,1664
18.3194,1669
18.3222,1664
18.3250,1669
18.3278,1681
18.3306,1681
18.3333,1653
18.3361,1663
18.3389,1661
18.3417,1654
18.3444,1657
18.3472,1688
18.3500,1700
18.3528,1687
18.3556,1692
18.3583,1715
18.3611,1694
18.3639,1685
18.3667,1688
18.3694,1699
18.3722,1697
18.3750,1693
18.3778,1711
18.3806,1710
18.3833,1689
18.3861,1693
18.3889,1700
18.3917,1694
18.3944,1690
18.3972,1721
18.4000,1721
18.4028,1721
18.4056,1708
18.4083,1724
18.4111,1713
18.4139,1713
18.4167,1730
18.4194,1753
18.4222,1740
18.4250,1730
18.4278,1756
18.4306,1749
18.4333,1736
18.4361,1745
18.4389,1750
18.4417,1741
18.4444,1743
18.4472,1761
18.4500,1766
18.4528,1775
18.4556,1767
18.4583,1780
18.4611,1947
18.4639,1873
18.4667,1877
18.4694,1846
18.4722,1793
18.4750,1782
18.4778,1791
18.4806,1801
18.4833,1808
18.4861,1804
18.4889,1775
18.4917,1731
18.4944,1704
18.4972,1729
18.5000,1721
18.5028,1722
18.5056,1718
18.5083,1699
18.5111,1661
18.5139,1645
18.5167,1654
18.5194,1667
18.5222,1675
18.5250,1684
18.5278,1690
18.5306,1660
18.5333,1621
18.5361,1625
18.5389,1652
18.5417,1663
18.5444,1654
18.5472,1660
18.5500,1649
18.5528,1599
18.5556,1621
18.5583,1622
18.5611,1636
18.5639,1648
18.5667,1659
18.5694,1641
18.5722,1631
18.5750,1637
18.5778,1672
18.5806,1699
18.5833,1695
18.5861,1699
18.5889,1692
18.5917,1640
18.5944,1632
18.5972,1663
18.6000,1694
18.6028,1691
18.6056,1699
18.6083,1694
18.6111,1670
18.6139,1659
18.6167,1670
18.6194,1689
18.6222,1704
18.6250,1703
18.6278,1706
18.6306,1674
18.6333,1644
18.6361,1663
18.6389,1686
18.6417,1693
18.6444,1703
18.6472,1703
18.6500,1685
18.6528,1652
18.6556,1660
18.6583,1672
18.6611,1670
18.6639,1678
18.6667,1696
18.6694,1688
18.6722,1682
18.6750,1694
18.6778,1711
18.6806,1706
18.6833,1712
18.6861,1723
18.6889,1723
18.6917,1684
18.6944,1696
18.6972,1711
18.7000,1715
18.7028,1714
18.7056,1728
18.7083,1724
18.7111,1697
18.7139,1677
18.7167,1689
18.7194,1700
18.7222,1691
18.7250,1701
18.7278,1711
18.7306,1694
18.7333,1692
18.7361,1701
18.7389,1733
18.7417,1726
18.7444,1707
18.7472,1713
18.7500,1685
18.7528,1663
18.7556,1678
18.7583,1696
18.7611,1703
18.7639,1707
18.7667,1718
18.7694,1708
18.7722,1676
18.7750,1681
18.7778,1696
18.7806,1703
18.7833,1686
18.7861,1687
18.7889,1693
18.7917,1668
18.7944,1670
18.7972,1688
18.8000,1689
18.8028,1686
18.8056,1706
18.8083,1707
18.8111,1689
18.8139,1666
18.8167,1685
18.8194,1682
18.8222,1699
18.8250,1715
18.8278,1722
18.8306,1700
18.8333,1676
18.8361,1684
18.8389,1693
18.8417,1682
18.8444,1672
18.8472,1679
18.8500,1673
18.8528,1668
18.8556,1680
18.8583,1700
18.8611,1698
18.8639,1690
18.8667,1716
18.8694,1713
18.8722,1688
18.8750,1698
18.8778,1706
18.8806,1709
18.8833,1718
18.8861,1729
18.8889,1730
18.8917,1711
18.8944,1715
18.8972,1714
18.9000,1720
18.9028,1732
18.9056,1745
18.9083,1742
18.9111,1753
18.9139,1739
18.9167,1747
18.9194,1739
18.9222,1738
18.9250,1732
18.9278,1743
18.9306,1747
18.9333,1745
18.9361,1774
18.9389,1788
18.9417,1791
18.9444,1774
18.9472,1787
18.9500,1768
18.9528,1740
18.9556,1715
18.9583,1708
18.9611,1711
18.9639,1715
18.9667,1722
18.9694,1723
18.9722,1696
18.9750,1685
18.9778,1681
18.9806,1661
18.9833,1663
18.9861,1664
18.9889,1673
18.9917,1650
18.9944,1648
18.9972,1663
19.0000,1669
19.0028,1669
19.0056,1667
19.0083,1667
19.0111,1658
19.0139,1645
19.0167,1662
19.0194,1675
19.0222,1663
19.0250,1679
19.0278,1696
19.0306,1697
19.0333,1693
19.0361,1704
19.0389,1713
19.0417,1694
19.0444,1680
19.0472,1687
19.0500,1703
19.0528,1718
19.0556,1763
19.0583,1827
19.0611,1865
19.0639,1939
19.0667,2016
19.0694,2103
19.0722,2167
19.0750,2214
19.0778,2182
19.0806,2076
19.0833,1928
19.0861,1772
19.0889,1637
19.0917,1523
19.0944,1488
19.0972,1498
19.1000,1531
19.1028,1579
19.1056,1629
19.1083,1679
19.1111,1703
19.1139,1706
19.1167,1718
19.1194,1682
19.1222,1671
19.1250,1656
19.1278,1676
19.1306,1659
19.1333,1670
19.1361,1683
19.1389,1680
19.1417,1661
19.1444,1663
19.1472,1707
19.1500,1716
19.1528,1717
19.1556,1715
19.1583,1712
19.1611,1688
19.1639,1668
19.1667,1682
19.1694,1674
19.1722,1668
19.1750,1675
19.1778,1681
19.1806,1687
19.1833,1693
19.1861,1716
19.1889,1729
19.1917,1717
19.1944,1703
19.1972,1714
19.2000,1712
19.2028,1704
19.2056,1705
19.2083,1713
19.2111,1722
19.2139,1709
19.2167,1714
19.2194,1711
19.2222,1697
19.2250,1701
19.2278,1737
19.2306,1733
19.2333,1723
19.2361,1743
19.2389,1752
19.2417,1745
19.2444,1760
19.2472,1796
19.2500,1779
19.2528,1767
19.2556,1756
19.2583,1751
19.2611,1745
19.2639,1738
19.2667,1756
19.2694,1770
19.2722,1746
19.2750,1774
19.2778,1768
19.2806,1772
19.2833,2012
19.2861,1905
19.2889,1884
19.2917,1832
19.2944,1827
19.2972,1833
19.3000,1835
19.3028,1828
19.3056,1822
19.3083,1781
19.3111,1749
19.3139,1727
19.3167,1764
19.3194,1793
19.3222,1803
19.3250,1796
19.3278,1774
19.3306,1730
19.3333,1701
19.3361,1707
19.3389,1711
19.3417,1712
19.3444,1716
19.3472,1694
19.3500,1653
19.3528,1649
19.3556,1670
19.3583,1700
19.3611,1703
19.3639,1710
19.3667,1698
19.3694,1666
19.3722,1634
19.3750,1641
19.3778,1654
19.3806,1678
19.3833,1693
19.3861,1708
19.3889,1674
19.3917,1644
19.3944,1647
19.3972,1663
19.4000,1676
19.4028,1698
19.4056,1716
19.4083,1706
19.4111,1674
19.4139,1658
19.4167,1683
19.4194,1689
19.4222,1695
19.4250,1701
19.4278,1700
19.4306,1645
19.4333,1643
19.4361,1657
19.4389,1684
19.4417,1681
19.4444,1713
19.4472,1696
19.4500,1688
19.4528,1676
19.4556,1692
19.4583,1723
19.4611,1740
19.4639,1742
19.4667,1746
19.4694,1702
19.4722,1682
19.4750,1681
19.4778,1696
19.4806,1711
19.4833,1722
19.4861,1728
19.4889,1724
19.4917,1696
19.4944,1703
19.4972,1704
19.5000,1700
19.5028,1719
19.5056,1720
19.5083,1716
19.5111,1679
19.5139,1694
19.5167,1714
19.5194,1720
19.5222,1717
19.5250,1712
19.5278,1709
19.5306,1676
19.5333,1661
19.5361,1687
19.5389,1702
19.5417,1699
19.5444,1718
19.5472,1712
19.5500,1674
19.5528,1664
19.5556,1698
19.5583,1742
19.5611,1755
19.5639,1743
19.5667,1739
19.5694,1711
19.5722,1669
19.5750,1679
19.5778,1707
19.5806,1708
19.5833,1711
19.5861,1715
19.5889,1715
19.5917,1702
19.5944,1711
19.5972,1729
19.6000,1735
19.6028,1717
19.6056,1694
19.6083,1684
19.6111,1631
19.6139,1655
19.6167,1669
19.6194,1674
19.6222,1677
19.6250,1680
19.6278,1666
19.6306,1652
19.6333,1672
19.6361,1678
19.6389,1666
19.6417,1668
19.6444,1673
19.6472,1682
19.6500,1672
19.6528,1661
19.6556,1678
19.6583,1681
19.6611,1684
19.6639,1694
19.6667,1696
19.6694,1679
19.6722,1660
19.6750,1674
19.6778,1685
19.6806,1690
19.6833,1688
19.6861,1694
19.6889,1687
19.6917,1668
19.6944,1674
19.6972,1684
19.7000,1676
19.7028,1676
19.7056,1685
19.7083,1675
19.7111,1652
19.7139,1653
19.7167,1674
19.7194,1684
19.7222,1691
19.7250,1698
19.7278,1709
19.7306,1697
19.7333,1689
19.7361,1706
19.7389,1719
19.7417,1724
19.7444,1731
19.7472,1756
19.7500,1752
19.7528,1763
19.7556,1765
19.7583,1749
19.7611,1733
19.7639,1731
19.7667,1749
19.7694,1751
19.7722,1747
19.7750,1771
19.7778,1762
19.7806,1762
19.7833,1765
19.7861,1779
19.7889,1768
19.7917,1732
19.7944,1725
19.7972,1719
19.8000,1714
19.8028,1707
19.8056,1725
19.8083,1721
19.8111,1695
19.8139,1677
19.8167,1682
19.8194,1655
19.8222,1640
19.8250,1633
19.8278,1651
19.8306,1663
19.8333,1669
19.8361,1691
19.8389,1692
19.8417,1670
19.8444,1670
19.8472,1687
19.8500,1675
19.8528,1684
19.8556,1687
19.8583,1692
19.8611,1661
19.8639,1656
19.8667,1664
19.8694,1659
19.8722,1643
19.8750,1657
19.8778,1650
19.8806,1655
19.8833,1662
19.8861,1701
19.8889,1730
19.8917,1747
19.8944,1799
19.8972,1849
19.9000,1913
19.9028,1990
19.9056,2097
19.9083,2167
19.9111,2187
19.9139,2145
19.9167,2073
19.9194,1950
19.9222,1815
19.9250,1681
19.9278,1563
19.9306,1489
19.9333,1441
19.9361,1481
19.9389,1536
19.9417,1592
19.9444,1656
19.9472,1710
19.9500,1696
19.9528,1685
19.9556,1676
19.9583,1636
19.9611,1620
19.9639,1625
19.9667,1645
19.9694,1646
19.9722,1645
19.9750,1670
19.9778,1682
19.9806,1655
19.9833,1654
19.9861,1663
19.9889,1685
19.9917,1682
19.9944,1696
19.9972,1691
20.0000,1673
20.0028,1669
20.0056,1689
20.0083,1686
20.0111,1667
20.0139,1678
20.0167,1703
20.0194,1703
20.0222,1694
20.0250,1695
20.0278,1695
20.0306,1690
20.0333,1670
20.0361,1690
20.0389,1678
20.0417,1672
20.0444,1677
20.0472,1701
20.0500,1696
20.0528,1706
20.0556,1719
20.0583,1704
20.0611,1692
20.0639,1691
20.0667,1717
20.0694,1730
20.0722,1716
20.0750,1733
20.0778,1733
20.0806,1705
20.0833,1689
20.0861,1718
20.0889,1717
20.0917,1711
20.0944,1748
20.0972,1762
20.1000,1768
20.1028,1745
20.1056,1741
20.1083,1725
20.1111,1715
20.1139,1722
20.1167,1747
20.1194,1912
20.1222,1837
20.1250,1833
20.1278,1792
20.1306,1763
20.1333,1743
20.1361,1785
20.1389,1793
20.1417,1795
20.1444,1788
20.1472,1756
20.1500,1711
20.1528,1714
20.1556,1732
20.1583,1757
20.1611,1753
20.1639,1747
20.1667,1727
20.1694,1696
20.1722,1676
20.1750,1689
20.1778,1724
20.1806,1738
20.1833,1739
20.1861,1717
20.1889,1665
20.1917,1635
20.1944,1632
20.1972,1643
20.2000,1667
20.2028,1689
20.2056,1699
20.2083,1678
20.2111,1663
20.2139,1694
20.2167,1717
20.2194,1719
20.2222,1713
20.2250,1721
20.2278,1694
20.2306,1659
20.2333,1639
20.2361,1664
20.2389,1666
20.2417,1674
20.2444,1694
20.2472,1700
20.2500,1677
20.2528,1662
20.2556,1669
20.2583,1666
20.2611,1675
20.2639,1673
20.2667,1680
20.2694,1666
20.2722,1665
20.2750,1687
20.2778,1710
20.2806,1710
20.2833,1727
20.2861,1718
20.2889,1688
20.2917,1676
20.2944,1673
20.2972,1669
20.3000,1675
20.3028,1686
20.3056,1698
20.3083,1695
20.3111,1661
20.3139,1669
20.3167,1679
20.3194,1678
20.3222,1686
20.3250,1691
20.3278,1673
20.3306,1655
20.3333,1652
20.3361,1681
20.3389,1670
20.3417,1683
20.3444,1687
20.3472,1681
20.3500,1654
20.3528,1672
20.3556,1710
20.3583,1722
20.3611,1721
20.3639,1708
20.3667,1696
20.3694,1668
20.3722,1655
20.3750,1666
20.3778,1647
20.3806,1661
20.3833,1666
20.3861,1685
20.3889,1674
20.3917,1661
20.3944,1658
20.3972,1681
20.4000,1667
20.4028,1669
20.4056,1678
20.4083,1655
20.4111,1645
20.4139,1649
20.4167,1673
20.4194,1667
20.4222,1666
20.4250,1675
20.4278,1654
20.4306,1634
20.4333,1631
20.4361,1652
20.4389,1665
20.4417,1677
20.4444,1694
20.4472,1714
20.4500,1694
20.4528,1702
20.4556,1724
20.4583,1711
20.4611,1687
20.4639,1693
20.4667,1701
20.4694,1686
20.4722,1695
20.4750,1718
20.4778,1720
20.4806,1713
20.4833,1705
20.4861,1696
20.4889,1679
20.4917,1666
20.4944,1672
20.4972,1680
20.5000,1660
20.5028,1667
20.5056,1715
20.5083,1701
20.5111,1680
20.5139,1674
20.5167,1674
20.5194,1655
20.5222,1661
20.5250,1685
20.5278,1682
20.5306,1685
20.5333,1701
20.5361,1703
20.5389,1702
20.5417,1698
20.5444,1702
20.5472,1700
20.5500,1672
20.5528,1683
20.5556,1710
20.5583,1703
20.5611,1690
20.5639,1693
20.5667,1704
20.5694,1692
20.5722,1685
20.5750,1690
20.5778,1701
20.5806,1695
20.5833,1702
20.5861,1709
20.5889,1709
20.5917,1699
20.5944,1719
20.5972,1741
20.6000,1733
20.6028,1739
20.6056,1745
20.6083,1733
20.6111,1738
20.6139,1765
20.6167,1777
20.6194,1766
20.6222,1759
20.6250,1756
20.6278,1753
20.6306,1720
20.6333,1736
20.6361,1727
20.6389,1707
20.6417,1705
20.6444,1715
20.6472,1700
20.6500,1670
20.6528,1658
20.6556,1666
20.6583,1679
20.6611,1678
20.6639,1690
20.6667,1689
20.6694,1660
20.6722,1651
20.6750,1652
20.6778,1636
20.6806,1635
20.6833,1646
20.6861,1666
20.6889,1663
20.6917,1659
20.6944,1671
20.6972,1692
20.7000,1679
20.7028,1687
20.7056,1683
20.7083,1682
20.7111,1664
20.7139,1679
20.7167,1675
20.7194,1649
20.7222,1648
20.7250,1684
20.7278,1741
20.7306,1747
20.7333,1814
20.7361,1881
20.7389,1931
20.7417,1984
20.7444,2051
20.7472,2136
20.7500,2179
20.7528,2217
20.7556,2200
20.7583,2105
20.7611,1965
20.7639,1821
20.7667,1671
20.7694,1533
20.7722,1465
20.7750,1474
20.7778,1527
20.7806,1605
20.7833,1654
20.7861,1697
20.7889,1693
20.7917,1690
20.7944,1701
20.7972,1712
20.8000,1694
20.8028,1696
20.8056,1708
20.8083,1684
20.8111,1672
20.8139,1659
20.8167,1662
20.8194,1646
20.8222,1648
20.8250,1668
20.8278,1675
20.8306,1673
20.8333,1675
20.8361,1678
20.8389,1668
20.8417,1677
20.8444,1685
20.8472,1700
20.8500,1681
20.8528,1683
20.8556,1680
20.8583,1695
20.8611,1685
20.8639,1692
20.8667,1693
20.8694,1697
20.8722,1686
20.8750,1690
20.8778,1688
20.8806,1688
20.8833,1692
20.8861,1713
20.8889,1689
20.8917,1670
20.8944,1681
20.8972,1700
20.9000,1702
20.9028,1701
20.9056,1720
20.9083,1736
20.9111,1726
20.9139,1743
20.9167,1722
20.9194,1723
20.9222,1715
20.9250,1712
20.9278,1720
20.9306,1725
20.9333,1727
20.9361,1735
20.9389,1723
20.9417,1732
20.9444,1749
20.9472,1765
20.9500,1757
20.9528,1741
20.9556,1760
20.9583,1792
20.9611,1960
20.9639,1864
20.9667,1840
20.9694,1790
20.9722,1773
20.9750,1795
20.9778,1824
20.9806,1832
20.9833,1846
20.9861,1817
20.9889,1754
20.9917,1718
20.9944,1734
20.9972,1734
21.0000,1729
21.0028,1734
21.0056,1721
21.0083,1672
21.0111,1657
21.0139,1665
21.0167,1666
21.0194,1685
21.0222,1699
21.0250,1698
21.0278,1665
21.0306,1633
21.0333,1635
21.0361,1654
21.0389,1658
21.0417,1675
21.0444,1687
21.0472,1669
21.0500,1630
21.0528,1610
21.0556,1630
21.0583,1645
21.0611,1655
21.0639,1676
21.0667,1664
21.0694,1643
21.0722,1628
21.0750,1657
21.0778,1684
21.0806,1683
21.0833,1675
21.0861,1663
21.0889,1624
21.0917,1636
21.0944,1646
21.0972,1663
21.1000,1681
21.1028,1697
21.1056,1696
21.1083,1674
21.1111,1671
21.1139,1686
21.1167,1692
21.1194,1701
21.1222,1706
21.1250,1713
21.1278,1679
21.1306,1664
21.1333,1674
21.1361,1696
21.1389,1707
21.1417,1716
21.1444,1725
21.1472,1713
21.1500,1678
21.1528,1673
21.1556,1675
21.1583,1694
21.1611,1702
21.1639,1718
21.1667,1702
21.1694,1671
21.1722,1677
21.1750,1696
21.1778,1699
21.1806,1688
21.1833,1700
21.1861,1705
21.1889,1678
21.1917,1676
21.1944,1695
21.1972,1694
21.2000,1692
21.2028,1687
21.2056,1692
21.2083,1662
21.2111,1670
21.2139,1682
21.2167,1709
21.2194,1716
21.2222,1722
21.2250,1725
21.2278,1683
21.2306,1669
21.2333,1693
21.2361,1691
21.2389,1690
21.2417,1708
21.2444,1708
21.2472,1678
21.2500,1669
21.2528,1669
21.2556,1684
21.2583,1673
21.2611,1666
21.2639,1673
21.2667,1676
21.2694,1660
21.2722,1673
21.2750,1678
21.2778,1666
21.2806,1682
21.2833,1689
21.2861,1697
21.2889,1677
21.2917,1666
21.2944,1687
21.2972,1683
21.3000,1675
21.3028,1685
21.3056,1689
21.3083,1688
21.3111,1691
21.3139,1703
21.3167,1703
21.3194,1695
21.3222,1696
21.3250,1687
21.3278,1669
21.3306,1659
21.3333,1678
21.3361,1687
21.3389,1680
21.3417,1666
21.3444,1680
21.3472,1687
21.3500,1683
21.3528,1688
21.3556,1700
21.3583,1690
21.3611,1700
21.3639,1719
21.3667,1720
21.3694,1679
21.3722,1676
21.3750,1698
21.3778,1695
21.3806,1706
21.3833,1716
21.3861,1728
21.3889,1703
21.3917,1693
21.3944,1712
21.3972,1715
21.4000,1717
21.4028,1724
21.4056,1746
21.4083,1752
21.4111,1751
21.4139,1767
21.4167,1766
21.4194,1752
21.4222,1752
21.4250,1757
21.4278,1724
21.4306,1701
21.4333,1692
21.4361,1676
21.4389,1689
21.4417,1697
21.4444,1716
21.4472,1716
21.4500,1686
21.4528,1679
21.4556,1680
21.4583,1686
21.4611,1668
21.4639,1680
21.4667,1686
21.4694,1680
21.4722,1664
21.4750,1696
21.4778,1688
21.4806,1685
21.4833,1682
21.4861,1688
21.4889,1664
21.4917,1667
21.4944,1685
21.4972,1682
21.5000,1681
21.5028,1686
21.5056,1716
21.5083,1713
21.5111,1699
21.5139,1702
21.5167,1690
21.5194,1682
21.5222,1677
21.5250,1691
21.5278,1699
21.5306,1717
21.5333,1777
21.5361,1827
21.5389,1867
21.5417,1922
21.5444,2006
21.5472,2078
21.5500,2144
21.5528,2188
21.5556,2190
21.5583,2108
21.5611,1977
21.5639,1858
21.5667,1718
21.5694,1581
21.5722,1484
21.5750,1483
21.5778,1497
21.5806,1535
21.5833,1605
21.5861,1664
21.5889,1697
21.5917,1709
21.5944,1711
21.5972,1703
21.6000,1665
21.6028,1655
21.6056,1668
21.6083,1661
21.6111,1661
21.6139,1685
21.6167,1698
21.6194,1691
21.6222,1700
21.6250,1712
21.6278,1703
21.6306,1684
21.6333,1695
21.6361,1703
21.6389,1683
21.6417,1687
21.6444,1706
21.6472,1697
21.6500,1686
21.6528,1678
21.6556,1692
21.6583,1688
21.6611,1673
21.6639,1693
21.6667,1704
21.6694,1696
21.6722,1685
21.6750,1705
21.6778,1688
21.6806,1694
21.6833,1690
21.6861,1705
21.6889,1700
21.6917,1705
21.6944,1728
21.6972,1723
21.7000,1714
21.7028,1707
21.7056,1724
21.7083,1708
21.7111,1705
21.7139,1715
21.7167,1723
21.7194,1703
21.7222,1714
21.7250,1742
21.7278,1760
21.7306,1758
21.7333,1772
21.7361,1780
21.7389,1764
21.7417,1757
21.7444,1777
21.7472,1759
21.7500,1753
21.7528,1755
21.7556,1792
21.7583,1785
21.7611,1932
21.7639,1831
21.7667,1811
21.7694,1770
21.7722,1790
21.7750,1820
21.7778,1837
21.7806,1824
21.7833,1821
21.7861,1795
21.7889,1741
21.7917,1729
21.7944,1741
21.7972,1732
21.8000,1736
21.8028,1738
21.8056,1722
21.8083,1678
21.8111,1655
21.8139,1675
21.8167,1702
21.8194,1705
21.8222,1701
21.8250,1688
21.8278,1639
21.8306,1640
21.8333,1665
21.8361,1699
21.8389,1720
21.8417,1716
21.8444,1725
21.8472,1689
21.8500,1657
21.8528,1675
21.8556,1672
21.8583,1668
21.8611,1685
21.8639,1683
21.8667,1656
21.8694,1639
21.8722,1639
21.8750,1664
21.8778,1671
21.8806,1693
21.8833,1686
21.8861,1663
21.8889,1640
21.8917,1648
21.8944,1652
21.8972,1680
21.9000,1686
21.9028,1717
21.9056,1712
21.9083,1681
21.9111,1686
21.9139,1702
21.9167,1718
21.9194,1730
21.9222,1731
21.9250,1723
21.9278,1707
21.9306,1685
21.9333,1695
21.9361,1698
21.9389,1716
21.9417,1723
21.9444,1727
21.9472,1699
21.9500,1687
21.9528,1691
21.9556,1707
21.9583,1702
21.9611,1691
21.9639,1721
21.9667,1700
21.9694,1692
21.9722,1705
21.9750,1718
21.9778,1708
21.9806,1706
21.9833,1708
21.9861,1694
21.9889,1679
21.9917,1703
21.9944,1707
21.9972,1699
22.0000,1708
22.0028,1703
22.0056,1701
22.0083,1673
22.0111,1671
22.0139,1680
22.0167,1688
22.0194,1688
22.0222,1699
22.0250,1707
22.0278,1694
22.0306,1702
22.0333,1716
22.0361,1710
22.0389,1693
22.0417,1687
22.0444,1710
22.0472,1698
22.0500,1699
22.0528,1735
22.0556,1741
22.0583,1737
22.0611,1724
22.0639,1738
22.0667,1718
22.0694,1689
22.0722,1699
22.0750,1704
22.0778,1687
22.0806,1693
22.0833,1724
22.0861,1717
22.0889,1684
22.0917,1692
22.0944,1698
22.0972,1700
22.1000,1695
22.1028,1700
22.1056,1707
22.1083,1693
22.1111,1690
22.1139,1697
22.1167,1691
22.1194,1688
22.1222,1686
22.1250,1672
22.1278,1659
22.1306,1663
22.1333,1691
22.1361,1712
22.1389,1706
22.1417,1704
22.1444,1719
22.1472,1699
22.1500,1685
22.1528,1697
22.1556,1693
22.1583,1690
22.1611,1695
22.1639,1705
22.1667,1694
22.1694,1673
22.1722,1689
22.1750,1699
22.1778,1693
22.1806,1698
22.1833,1706
22.1861,1695
22.1889,1675
22.1917,1676
22.1944,1704
22.1972,1699
22.2000,1697
22.2028,1694
22.2056,1698
22.2083,1683
22.2111,1692
22.2139,1692
22.2167,1699
22.2194,1693
22.2222,1689
22.2250,1696
22.2278,1681
22.2306,1669
22.2333,1673
22.2361,1674
22.2389,1659
22.2417,1676
22.2444,1692
22.2472,1699
22.2500,1664
22.2528,1686
22.2556,1698
22.2583,1687
22.2611,1704
22.2639,1725
22.2667,1708
22.2694,1706
22.2722,1707
22.2750,1711
22.2778,1724
22.2806,1731
22.2833,1749
22.2861,1752
22.2889,1732
22.2917,1727
22.2944,1725
22.2972,1736
22.3000,1739
22.3028,1747
22.3056,1739
22.3083,1723
22.3111,1725
22.3139,1729
22.3167,1705
22.3194,1713
22.3222,1712
22.3250,1725
22.3278,1710
22.3306,1702
22.3333,1715
22.3361,1716
22.3389,1677
22.3417,1655
22.3444,1667
22.3472,1665
22.3500,1657
22.3528,1662
22.3556,1689
22.3583,1669
22.3611,1659
22.3639,1674
22.3667,1655
22.3694,1655
22.3722,1667
22.3750,1677
22.3778,1668
22.3806,1667
22.3833,1675
22.3861,1670
22.3889,1670
22.3917,1674
22.3944,1695
22.3972,1682
22.4000,1664
22.4028,1679
22.4056,1690
22.4083,1678
22.4111,1699
22.4139,1760
22.4167,1788
22.4194,1851
22.4222,1929
22.4250,2010
22.4278,2088
22.4306,2140
22.4333,2218
22.4361,2217
22.4389,2119
22.4417,2002
22.4444,1886
22.4472,1746
22.4500,1598
22.4528,1534
22.4556,1492
22.4583,1499
22.4611,1558
22.4639,1616
22.4667,1681
22.4694,1696
22.4722,1723
22.4750,1732
22.4778,1697
22.4806,1668
22.4833,1674
22.4861,1681
22.4889,1665
22.4917,1672
22.4944,1691
22.4972,1679
22.5000,1685
22.5028,1706
22.5056,1712
22.5083,1701
22.5111,1717
22.5139,1732
22.5167,1721
22.5194,1732
22.5222,1730
22.5250,1744
22.5278,1723
22.5306,1712
22.5333,1716
22.5361,1710
22.5389,1703
22.5417,1698
22.5444,1731
22.5472,1723
22.5500,1724
22.5528,1737
22.5556,1751
22.5583,1728
22.5611,1722
22.5639,1742
22.5667,1745
22.5694,1723
22.5722,1733
22.5750,1723
22.5778,1727
22.5806,1714
22.5833,1721
22.5861,1716
22.5889,1713
22.5917,1714
22.5944,1724
22.5972,1720
22.6000,1690
22.6028,1712
22.6056,1736
22.6083,1744
22.6111,1754
22.6139,1779
22.6167,1756
22.6194,1746
22.6222,1738
22.6250,1752
22.6278,1746
22.6306,1734
22.6333,1744
22.6361,1756
22.6389,1756
22.6417,1918
22.6444,1835
22.6472,1807
22.6500,1780
22.6528,1798
22.6556,1808
22.6583,1815
22.6611,1813
22.6639,1797
22.6667,1758
22.6694,1729
22.6722,1715
22.6750,1730
22.6778,1743
22.6806,1749
22.6833,1735
22.6861,1728
22.6889,1685
22.6917,1694
22.6944,1708
22.6972,1704
22.7000,1714
22.7028,1707
22.7056,1680
22.7083,1644
22.7111,1636
22.7139,1666
22.7167,1682
22.7194,1693
22.7222,1694
22.7250,1664
22.7278,1623
22.7306,1627
22.7333,1680
22.7361,1698
22.7389,1701
22.7417,1717
22.7444,1699
22.7472,1655
22.7500,1654
22.7528,1676
22.7556,1704
22.7583,1711
22.7611,1701
22.7639,1712
22.7667,1705
22.7694,1674
22.7722,1687
22.7750,1695
22.7778,1682
22.7806,1697
22.7833,1707
22.7861,1673
22.7889,1675
22.7917,1681
22.7944,1688
22.7972,1683
22.8000,1695
22.8028,1700
22.8056,1693
22.8083,1669
22.8111,1695
22.8139,1696
22.8167,1732
22.8194,1746
22.8222,1744
22.8250,1728
22.8278,1701
22.8306,1682
22.8333,1693
22.8361,1692
22.8389,1700
22.8417,1702
22.8444,1723
22.8472,1706
22.8500,1686
22.8528,1710
22.8556,1727
22.8583,1719
22.8611,1722
22.8639,1736
22.8667,1724
22.8694,1705
22.8722,1716
22.8750,1729
22.8778,1724
22.8806,1713
22.8833,1726
22.8861,1711
22.8889,1693
22.8917,1720
22.8944,1726
22.8972,1731
22.9000,1719
22.9028,1722
22.9056,1712
22.9083,1692
22.9111,1698
22.9139,1723
22.9167,1717
22.9194,1724
22.9222,1718
22.9250,1724
22.9278,1706
22.9306,1691
22.9333,1698
22.9361,1705
22.9389,1708
22.9417,1716
22.9444,1725
22.9472,1706
22.9500,1682
22.9528,1697
22.9556,1698
22.9583,1699
22.9611,1692
22.9639,1731
22.9667,1716
22.9694,1688
22.9722,1693
22.9750,1699
22.9778,1691
22.9806,1693
22.9833,1706
22.9861,1695
22.9889,1686
22.9917,1694
22.9944,1714
22.9972,1705
23.0000,1719
23.0028,1719
23.0056,1718
23.0083,1680
23.0111,1682
23.0139,1699
23.0167,1697
23.0194,1698
23.0222,1703
23.0250,1711
23.0278,1699
23.0306,1694
23.0333,1707
23.0361,1704
23.0389,1682
23.0417,1707
23.0444,1701
23.0472,1685
23.0500,1674
23.0528,1681
23.0556,1681
23.0583,1700
23.0611,1702
23.0639,1718
23.0667,1706
23.0694,1700
23.0722,1696
23.0750,1701
23.0778,1690
23.0806,1693
23.0833,1705
23.0861,1711
23.0889,1689
23.0917,1724
23.0944,1751
23.0972,1743
23.1000,1744
23.1028,1758
23.1056,1753
23.1083,1727
23.1111,1726
23.1139,1733
23.1167,1727
23.1194,1746
23.1222,1759
23.1250,1771
23.1278,1769
23.1306,1781
23.1333,1782
23.1361,1785
23.1389,1791
23.1417,1792
23.1444,1791
23.1472,1764
23.1500,1750
23.1528,1743
23.1556,1733
23.1583,1720
23.1611,1722
23.1639,1717
23.1667,1702
23.1694,1707
23.1722,1719
23.1750,1716
23.1778,1686
23.1806,1688
23.1833,1699
23.1861,1691
23.1889,1669
23.1917,1676
23.1944,1681
23.1972,1682
23.2000,1668
23.2028,1685
23.2056,1674
23.2083,1657
23.2111,1646
23.2139,1666
23.2167,1659
23.2194,1647
23.2222,1667
23.2250,1674
23.2278,1649
23.2306,1650
23.2333,1654
23.2361,1651
23.2389,1632
23.2417,1643
23.2444,1645
23.2472,1638
23.2500,1639
23.2528,1654
23.2556,1676
23.2583,1707
23.2611,1757
23.2639,1829
23.2667,1883
23.2694,1938
23.2722,2013
23.2750,2075
23.2778,2116
23.2806,2143
23.2833,2130
23.2861,2031
23.2889,1908
23.2917,1770
23.2944,1628
23.2972,1502
23.3000,1455
23.3028,1463
23.3056,1524
23.3083,1557
23.3111,1610
23.3139,1660
23.3167,1659
23.3194,1659
23.3222,1677
23.3250,1679
23.3278,1656
23.3306,1633
23.3333,1635
23.3361,1639
23.3389,1642
23.3417,1640
23.3444,1660
23.3472,1671
23.3500,1679
23.3528,1696
23.3556,1687
23.3583,1671
23.3611,1653
23.3639,1641
23.3667,1646
23.3694,1646
23.3722,1664
23.3750,1667
23.3778,1655
23.3806,1653
23.3833,1654
23.3861,1653
23.3889,1641
23.3917,1684
23.3944,1705
23.3972,1691
23.4000,1693
23.4028,1700
23.4056,1719
23.4083,1700
23.4111,1703
23.4139,1697
23.4167,1675
23.4194,1661
23.4222,1661
23.4250,1686
23.4278,1673
23.4306,1683
23.4333,1690
23.4361,1679
23.4389,1672
23.4417,1681
23.4444,1702
23.4472,1697
23.4500,1696
23.4528,1706
23.4556,1697
23.4583,1697
23.4611,1695
23.4639,1717
23.4667,1725
23.4694,1739
23.4722,1761
23.4750,1755
23.4778,1740
23.4806,1734
23.4833,1766
23.4861,1763
23.4889,1692
23.4917,1797
23.4944,1810
23.4972,1822
23.5000,1822
23.5028,1840
23.5056,1806
23.5083,1781
23.5111,1788
23.5139,1805
23.5167,1816
23.5194,1803
23.5222,1797
23.5250,1744
23.5278,1702
23.5306,1688
23.5333,1712
23.5361,1720
23.5389,1729
23.5417,1727
23.5444,1696
23.5472,1642
23.5500,1642
23.5528,1665
23.5556,1683
23.5583,1700
23.5611,1716
23.5639,1714
23.5667,1669
23.5694,1664
23.5722,1679
23.5750,1689
23.5778,1710
23.5806,1724
23.5833,1734
23.5861,1692
23.5889,1669
23.5917,1677
23.5944,1717
23.5972,1739
23.6000,1727
23.6028,1726
23.6056,1703
23.6083,1653
23.6111,1659
23.6139,1676
23.6167,1703
23.6194,1700
23.6222,1717
23.6250,1697
23.6278,1668
23.6306,1688
23.6333,1729
23.6361,1748
23.6389,1749
23.6417,1730
23.6444,1704
23.6472,1647
23.6500,1637
23.6528,1648
23.6556,1683
23.6583,1705
23.6611,1710
23.6639,1709
23.6667,1675
23.6694,1649
23.6722,1680
23.6750,1686
23.6778,1681
23.6806,1689
23.6833,1692
23.6861,1661
23.6889,1652
23.6917,1669
23.6944,1666
23.6972,1659
23.7000,1678
23.7028,1693
23.7056,1663
23.7083,1641
23.7111,1648
23.7139,1663
23.7167,1658
23.7194,1657
23.7222,1677
23.7250,1674
23.7278,1660
23.7306,1659
23.7333,1673
23.7361,1674
23.7389,1683
23.7417,1701
23.7444,1706
23.7472,1688
23.7500,1688
23.7528,1696
23.7556,1689
23.7583,1688
23.7611,1684
23.7639,1680
23.7667,1652
23.7694,1661
23.7722,1678
23.7750,1686
23.7778,1678
23.7806,1688
23.7833,1691
23.7861,1683
23.7889,1666
23.7917,1672
23.7944,1705
23.7972,1686
23.8000,1685
23.8028,1678
23.8056,1661
23.8083,1628
23.8111,1634
23.8139,1647
23.8167,1661
23.8194,1668
23.8222,1694
23.8250,1674
23.8278,1658
23.8306,1655
23.8333,1680
23.8361,1689
23.8389,1689
23.8417,1701
23.8444,1710
23.8472,1692
23.8500,1703
23.8528,1724
23.8556,1723
23.8583,1719
23.8611,1714
23.8639,1714
23.8667,1688
23.8694,1656
23.8722,1662
23.8750,1660
23.8778,1669
23.8806,1686
23.8833,1684
23.8861,1667
23.8889,1676
23.8917,1688
23.8944,1681
23.8972,1659
23.9000,1649
23.9028,1672
23.9056,1662
23.9083,1684
23.9111,1702
23.9139,1716
23.9167,1714
23.9194,1716
23.9222,1733
23.9250,1719
23.9278,1705
23.9306,1697
23.9333,1712
23.9361,1709
23.9389,1724
23.9417,1756
23.9444,1769
23.9472,1755
23.9500,1734
23.9528,1739
23.9556,1730
23.9583,1742
23.9611,1766
23.9639,1785
23.9667,1769
23.9694,1769
23.9722,1768
23.9750,1772
23.9778,1755
23.9806,1742
23.9833,1737
23.9861,1724
23.9889,1732
23.9917,1747
23.9944,1750
23.9972,1738
24.0000,1747
24.0028,1757
24.0056,1722
24.0083,1696
24.0111,1686
24.0139,1674
24.0167,1666
24.0194,1663
24.0222,1681
24.0250,1688
24.0278,1683
24.0306,1689
24.0333,1686
24.0361,1697
24.0389,1693
24.0417,1695
24.0444,1697
24.0472,1685
24.0500,1684
24.0528,1678
24.0556,1660
24.0583,1669
24.0611,1681
24.0639,1669
24.0667,1660
24.0694,1649
24.0722,1658
24.0750,1672
24.0778,1691
24.0806,1733
24.0833,1818
24.0861,1867
24.0889,1926
24.0917,1995
24.0944,2064
24.0972,2125
24.1000,2175
24.1028,2178
24.1056,2139
24.1083,2010
24.1111,1881
24.1139,1732
24.1167,1589
24.1194,1511
24.1222,1478
24.1250,1490
24.1278,1531
24.1306,1603
24.1333,1670
24.1361,1693
24.1389,1701
24.1417,1701
24.1444,1682
24.1472,1654
24.1500,1662
24.1528,1678
24.1556,1683
24.1583,1675
24.1611,1660
24.1639,1671
24.1667,1656
24.1694,1674
24.1722,1696
24.1750,1707
24.1778,1675
24.1806,1657
24.1833,1651
24.1861,1634
24.1889,1633
24.1917,1669
24.1944,1681
24.1972,1674
24.2000,1684
24.2028,1703
24.2056,1712
24.2083,1701
24.2111,1706
24.2139,1719
24.2167,1698
24.2194,1683
24.2222,1695
24.2250,1709
24.2278,1704
24.2306,1727
24.2333,1737
24.2361,1728
24.2389,1700
24.2417,1699
24.2444,1693
24.2472,1686
24.2500,1676
24.2528,1706
24.2556,1708
24.2583,1719
24.2611,1720
24.2639,1745
24.2667,1743
24.2694,1735
24.2722,1726
24.2750,1721
24.2778,1718
24.2806,1727
24.2833,1748
24.2861,1758
24.2889,1753
24.2917,1773
24.2944,1760
24.2972,1747
24.3000,1738
24.3028,1779
24.3056,1794
24.3083,1727
24.3111,1827
24.3139,1838
24.3167,1863
24.3194,1858
24.3222,1839
24.3250,1790
24.3278,1730
24.3306,1736
24.3333,1762
24.3361,1777
24.3389,1774
24.3417,1772
24.3444,1738
24.3472,1711
24.3500,1703
24.3528,1708
24.3556,1714
24.3583,1702
24.3611,1677
24.3639,1667
24.3667,1643
24.3694,1647
24.3722,1683
24.3750,1691
24.3778,1699
24.3806,1699
24.3833,1676
24.3861,1635
24.3889,1625
24.3917,1668
24.3944,1677
24.3972,1693
24.4000,1695
24.4028,1693
24.4056,1659
24.4083,1640
24.4111,1644
24.4139,1641
24.4167,1639
24.4194,1649
24.4222,1659
24.4250,1637
24.4278,1630
24.4306,1648
24.4333,1677
24.4361,1683
24.4389,1692
24.4417,1677
24.4444,1647
24.4472,1619
24.4500,1617
24.4528,1652
24.4556,1682
24.4583,1692
24.4611,1694
24.4639,1680
24.4667,1648
24.4694,1635
24.4722,1662
24.4750,1679
24.4778,1690
24.4806,1704
24.4833,1699
24.4861,1669
24.4889,1649
24.4917,1679
24.4944,1690
24.4972,1711
24.5000,1720
24.5028,1733
24.5056,1718
24.5083,1691
24.5111,1677
24.5139,1666
24.5167,1671
24.5194,1674
24.5222,1697
24.5250,1694
24.5278,1669
24.5306,1698
24.5333,1695
24.5361,1702
24.5389,1687
24.5417,1703
24.5444,1694
24.5472,1678
24.5500,1694
24.5528,1717
24.5556,1710
24.5583,1704
24.5611,1692
24.5639,1676
24.5667,1683
24.5694,1681
24.5722,1715
24.5750,1716
24.5778,1729
24.5806,1723
24.5833,1729
24.5861,1700
24.5889,1690
24.5917,1710
24.5944,1702
24.5972,1688
24.6000,1699
24.6028,1731
24.6056,1722
24.6083,1702
24.6111,1724
24.6139,1707
24.6167,1714
24.6194,1715
24.6222,1737
24.6250,1736
24.6278,1716
24.6306,1731
24.6333,1740
24.6361,1718
24.6389,1716
24.6417,1710
24.6444,1704
24.6472,1692
24.6500,1687
24.6528,1690
24.6556,1678
24.6583,1688
24.6611,1694
24.6639,1716
24.6667,1689
24.6694,1698
24.6722,1718
24.6750,1727
24.6778,1714
24.6806,1698
24.6833,1695
24.6861,1665
24.6889,1674
24.6917,1694
24.6944,1702
24.6972,1705
24.7000,1718
24.7028,1727
24.7056,1703
24.7083,1698
24.7111,1712
24.7139,1733
24.7167,1723
24.7194,1727
24.7222,1749
24.7250,1721
24.7278,1696
24.7306,1723
24.7333,1737
24.7361,1760
24.7389,1759
24.7417,1768
24.7444,1739
24.7472,1713
24.7500,1715
24.7528,1735
24.7556,1735
24.7583,1738
24.7611,1763
24.7639,1762
24.7667,1729
24.7694,1726
24.7722,1744
24.7750,1733
24.7778,1750
24.7806,1769
24.7833,1791
24.7861,1776
24.7889,1759
24.7917,1768
24.7944,1763
24.7972,1749
24.8000,1755
24.8028,1774
24.8056,1795
24.8083,1782
24.8111,1803
24.8139,1787
24.8167,1789
24.8194,1779
24.8222,1811
24.8250,1826
24.8278,1820
24.8306,1833
24.8333,1808
24.8361,1782
24.8389,1769
24.8417,1769
24.8444,1741
24.8472,1735
24.8500,1732
24.8528,1747
24.8556,1739
24.8583,1734
24.8611,1730
24.8639,1732
24.8667,1719
24.8694,1723
24.8722,1731
24.8750,1720
24.8778,1700
24.8806,1707
24.8833,1707
24.8861,1706
24.8889,1708
24.8917,1725
24.8944,1716
24.8972,1706
24.9000,1731
24.9028,1734
24.9056,1724
24.9083,1706
24.9111,1729
24.9139,1733
24.9167,1720
24.9194,1712
24.9222,1727
24.9250,1718
24.9278,1715
24.9306,1720
24.9333,1727
24.9361,1737
24.9389,1746
24.9417,1792
24.9444,1841
24.9472,1882
24.9500,1944
24.9528,2025
24.9556,2079
24.9583,2138
24.9611,2203
24.9639,2244
24.9667,2185
24.9694,2074
24.9722,1943
24.9750,1787
24.9778,1644
24.9806,1542
24.9833,1511
24.9861,1517
24.9889,1572
24.9917,1650
24.9944,1698
24.9972,1706
25.0000,1713
25.0028,1730
25.0056,1713
25.0083,1693
25.0111,1693
25.0139,1691
25.0167,1687
25.0194,1691
25.0222,1707
25.0250,1703
25.0278,1683
25.0306,1693
25.0333,1692
25.0361,1678
25.0389,1674
25.0417,1689
25.0444,1684
25.0472,1676
25.0500,1676
25.0528,1696
25.0556,1697
25.0583,1698
25.0611,1696
25.0639,1706
25.0667,1697
25.0694,1692
25.0722,1694
25.0750,1697
25.0778,1696
25.0806,1713
25.0833,1734
25.0861,1731
25.0889,1727
25.0917,1748
25.0944,1746
25.0972,1742
25.1000,1743
25.1028,1748
25.1056,1734
25.1083,1718
25.1111,1746
25.1139,1760
25.1167,1758
25.1194,1771
25.1222,1766
25.1250,1759
25.1278,1763
25.1306,1763
25.1333,1772
25.1361,1778
25.1389,1768
25.1417,1784
25.1444,1786
25.1472,1779
25.1500,1787
25.1528,1781
25.1556,1766
25.1583,1758
25.1611,1768
25.1639,1775
25.1667,1775
25.1694,1769
25.1722,1850
25.1750,1860
25.1778,1856
25.1806,1860
25.1833,1821
25.1861,1790
25.1889,1787
25.1917,1803
25.1944,1811
25.1972,1820
25.2000,1833
25.2028,1787
25.2056,1762
25.2083,1732
25.2111,1740
25.2139,1752
25.2167,1762
25.2194,1760
25.2222,1764
25.2250,1704
25.2278,1678
25.2306,1683
25.2333,1696
25.2361,1707
25.2389,1708
25.2417,1722
25.2444,1688
25.2472,1654
25.2500,1666
25.2528,1678
25.2556,1676
25.2583,1697
25.2611,1714
25.2639,1696
25.2667,1671
25.2694,1671
25.2722,1686
25.2750,1713
25.2778,1707
25.2806,1722
25.2833,1696
25.2861,1665
25.2889,1666
25.2917,1699
25.2944,1705
25.2972,1706
25.3000,1708
25.3028,1695
25.3056,1666
25.3083,1663
25.3111,1703
25.3139,1711
25.3167,1723
25.3194,1724
25.3222,1727
25.3250,1675
25.3278,1652
25.3306,1676
25.3333,1695
25.3361,1709
25.3389,1720
25.3417,1744
25.3444,1724
25.3472,1708
25.3500,1714
25.3528,1711
25.3556,1713
25.3583,1707
25.3611,1711
25.3639,1712
25.3667,1694
25.3694,1727
25.3722,1741
25.3750,1733
25.3778,1718
25.3806,1720
25.3833,1696
25.3861,1673
25.3889,1682
25.3917,1711
25.3944,1731
25.3972,1738
25.4000,1722
25.4028,1716
25.4056,1689
25.4083,1690
25.4111,1707
25.4139,1717
25.4167,1708
25.4194,1718
25.4222,1712
25.4250,1684
25.4278,1668
25.4306,1685
25.4333,1674
25.4361,1678
25.4389,1691
25.4417,1697
25.4444,1678
25.4472,1683
25.4500,1694
25.4528,1705
25.4556,1698
25.4583,1689
25.4611,1704
25.4639,1679
25.4667,1665
25.4694,1665
25.4722,1687
25.4750,1693
25.4778,1701
25.4806,1710
25.4833,1705
25.4861,1688
25.4889,1680
25.4917,1688
25.4944,1699
25.4972,1693
25.5000,1721
25.5028,1719
25.5056,1691
25.5083,1688
25.5111,1710
25.5139,1717
25.5167,1705
25.5194,1703
25.5222,1720
25.5250,1692
25.5278,1681
25.5306,1684
25.5333,1695
25.5361,1699
25.5389,1685
25.5417,1687
25.5444,1663
25.5472,1649
25.5500,1672
25.5528,1684
25.5556,1688
25.5583,1687
25.5611,1701
25.5639,1705
25.5667,1689
25.5694,1678
25.5722,1693
25.5750,1670
25.5778,1662
25.5806,1682
25.5833,1679
25.5861,1661
25.5889,1665
25.5917,1696
25.5944,1691
25.5972,1674
25.6000,1677
25.6028,1689
25.6056,1686
25.6083,1693
25.6111,1718
25.6139,1732
25.6167,1727
25.6194,1736
25.6222,1742
25.6250,1712
25.6278,1713
25.6306,1733
25.6333,1738
25.6361,1754
25.6389,1750
25.6417,1757
25.6444,1729
25.6472,1693
25.6500,1714
25.6528,1711
25.6556,1700
25.6583,1685
25.6611,1699
25.6639,1676
25.6667,1675
25.6694,1659
25.6722,1670
25.6750,1658
25.6778,1652
25.6806,1659
25.6833,1656
25.6861,1626
25.6889,1626
25.6917,1632
25.6944,1624
25.6972,1623
25.7000,1651
25.7028,1656
25.7056,1649
25.7083,1622
25.7111,1656
25.7139,1645
25.7167,1648
25.7194,1651
25.7222,1666
25.7250,1657
25.7278,1662
25.7306,1670
25.7333,1674
25.7361,1679
25.7389,1658
25.7417,1658
25.7444,1661
25.7472,1672
25.7500,1697
25.7528,1746
25.7556,1788
25.7583,1852
25.7611,1926
25.7639,1979
25.7667,2044
25.7694,2119
25.7722,2179
25.7750,2170
25.7778,2090
25.7806,1984
25.7833,1859
25.7861,1694
25.7889,1569
25.7917,1491
25.7944,1456
25.7972,1485
25.8000,1540
25.8028,1607
25.8056,1651
25.8083,1675
25.8111,1695
25.8139,1712
25.8167,1694
25.8194,1679
25.8222,1678
25.8250,1682
25.8278,1679
25.8306,1692
25.8333,1674
25.8361,1659
25.8389,1658
25.8417,1663
25.8444,1672
25.8472,1673
25.8500,1690
25.8528,1699
25.8556,1665
25.8583,1665
25.8611,1674
25.8639,1671
25.8667,1657
25.8694,1654
25.8722,1668
25.8750,1656
25.8778,1668
25.8806,1674
25.8833,1680
25.8861,1676
25.8889,1688
25.8917,1690
25.8944,1677
25.8972,1666
25.9000,1683
25.9028,1686
25.9056,1688
25.9083,1679
25.9111,1676
25.9139,1669
25.9167,1665
25.9194,1661
25.9222,1691
25.9250,1696
25.9278,1686
25.9306,1699
25.9333,1695
25.9361,1683
25.9389,1681
25.9417,1701
25.9444,1696
25.9472,1706
25.9500,1709
25.9528,1693
25.9556,1691
25.9583,1677
25.9611,1704
25.9639,1707
25.9667,1699
25.9694,1705
25.9722,1732
25.9750,1715
25.9778,1717
25.9806,1872
25.9833,1819
25.9861,1782
25.9889,1785
25.9917,1816
25.9944,1832
25.9972,1839
26.0000,1816
26.0028,1777
26.0056,1726
26.0083,1706
26.0111,1712
26.0139,1725
26.0167,1729
26.0194,1738
26.0222,1722
26.0250,1663
26.0278,1649
26.0306,1648
26.0333,1663
26.0361,1661
26.0389,1655
26.0417,1635
26.0444,1609
26.0472,1606
26.0500,1627
26.0528,1651
26.0556,1654
26.0583,1652
26.0611,1641
26.0639,1611
26.0667,1601
26.0694,1627
26.0722,1658
26.0750,1665
26.0778,1678
26.0806,1662
26.0833,1630
26.0861,1600
26.0889,1617
26.0917,1644
26.0944,1667
26.0972,1662
26.1000,1669
26.1028,1669
26.1056,1620
26.1083,1615
26.1111,1646
26.1139,1657
26.1167,1660
26.1194,1672
26.1222,1661
26.1250,1621
26.1278,1631
26.1306,1660
26.1333,1661
26.1361,1672
26.1389,1676
26.1417,1674
26.1444,1639
26.1472,1639
26.1500,1650
26.1528,1671
26.1556,1676
26.1583,1670
26.1611,1687
26.1639,1658
26.1667,1631
26.1694,1654
26.1722,1657
26.1750,1656
26.1778,1650
26.1806,1644
26.1833,1637
26.1861,1619
26.1889,1622
26.1917,1643
26.1944,1653
26.1972,1661
26.2000,1667
26.2028,1647
26.2056,1630
26.2083,1635
26.2111,1660
26.2139,1652
26.2167,1645
26.2194,1651
26.2222,1633
26.2250,1616
26.2278,1608
26.2306,1644
26.2333,1666
26.2361,1662
26.2389,1678
26.2417,1672
26.2444,1654
26.2472,1640
26.2500,1660
26.2528,1671
26.2556,1672
26.2583,1665
26.2611,1689
26.2639,1680
26.2667,1650
26.2694,1667
26.2722,1678
26.2750,1684
26.2778,1692
26.2806,1688
26.2833,1693
26.2861,1658
26.2889,1678
26.2917,1683
26.2944,1684
26.2972,1689
26.3000,1698
26.3028,1691
26.3056,1681
26.3083,1678
26.3111,1686
26.3139,1667
26.3167,1676
26.3194,1681
26.3222,1695
26.3250,1681
26.3278,1690
26.3306,1701
26.3333,1709
26.3361,1704
26.3389,1716
26.3417,1725
26.3444,1692
26.3472,1675
26.3500,1676
26.3528,1681
26.3556,1683
26.3583,1691
26.3611,1707
26.3639,1702
26.3667,1711
26.3694,1723
26.3722,1706
26.3750,1705
26.3778,1702
26.3806,1709
26.3833,1717
26.3861,1699
26.3889,1701
26.3917,1700
26.3944,1699
26.3972,1669
26.4000,1677
26.4028,1685
26.4056,1692
