Tiempo(s),Valor_ADC
0.0028,1928
0.0056,1957
0.0083,1972
0.0111,1984
0.0139,1993
0.0167,1982
0.0194,1952
0.0222,1907
0.0250,1846
0.0278,1754
0.0306,1677
0.0333,1607
0.0361,1561
0.0389,1538
0.0417,1533
0.0444,1520
0.0472,1511
0.0500,1499
0.0528,1463
0.0556,1447
0.0583,1460
0.0611,1483
0.0639,1477
0.0667,1463
0.0694,1482
0.0722,1505
0.0750,1510
0.0778,1518
0.0806,1498
0.0833,1478
0.0861,1461
0.0889,1453
0.0917,1471
0.0944,1487
0.0972,1501
0.1000,1533
0.1028,1537
0.1056,1542
0.1083,1506
0.1111,1469
0.1139,1423
0.1167,1414
0.1194,1498
0.1222,1705
0.1250,2003
0.1278,2390
0.1306,2647
0.1333,2714
0.1361,2684
0.1389,2600
0.1417,2504
0.1444,2301
0.1472,1872
0.1500,1367
0.1528,1015
0.1556,852
0.1583,822
0.1611,814
0.1639,820
0.1667,845
0.1694,886
0.1722,916
0.1750,965
0.1778,1043
0.1806,1118
0.1833,1206
0.1861,1291
0.1889,1384
0.1917,1479
0.1944,1562
0.1972,1610
0.2000,1639
0.2028,1660
0.2056,1661
0.2083,1670
0.2111,1694
0.2139,1708
0.2167,1720
0.2194,1731
0.2222,1729
0.2250,1732
0.2278,1747
0.2306,1752
0.2333,1781
0.2361,1794
0.2389,1786
0.2417,1784
0.2444,1779
0.2472,1780
0.2500,1782
0.2528,1789
0.2556,1803
0.2583,1819
0.2611,1813
0.2639,1817
0.2667,1832
0.2694,1854
0.2722,1863
0.2750,1864
0.2778,1872
0.2806,1863
0.2833,1852
0.2861,1846
0.2889,1842
0.2917,1861
0.2944,1875
0.2972,1872
0.3000,1878
0.3028,1894
0.3056,1898
0.3083,1913
0.3111,1915
0.3139,1934
0.3167,1940
0.3194,1929
0.3222,1923
0.3250,1896
0.3278,1902
0.3306,1904
0.3333,1926
0.3361,1934
0.3389,1937
0.3417,1937
0.3444,1624
0.3472,1635
0.3500,1645
0.3528,1627
0.3556,1619
0.3583,1614
0.3611,1579
0.3639,1540
0.3667,1515
0.3694,1517
0.3722,1526
0.3750,1536
0.3778,1549
0.3806,1552
0.3833,1540
0.3861,1544
0.3889,1555
0.3917,1545
0.3944,1545
0.3972,1542
0.4000,1542
0.4028,1541
0.4056,1549
0.4083,1554
0.4111,1555
0.4139,1551
0.4167,1566
0.4194,1559
0.4222,1562
0.4250,1571
0.4278,1586
0.4306,1612
0.4333,1628
0.4361,1637
0.4389,1647
0.4417,1663
0.4444,1668
0.4472,1676
0.4500,1679
0.4528,1683
0.4556,1673
0.4583,1673
0.4611,1677
0.4639,1681
0.4667,1690
0.4694,1701
0.4722,1704
0.4750,1698
0.4778,1683
0.4806,1670
0.4833,1672
0.4861,1674
0.4889,1684
0.4917,1703
0.4944,1689
0.4972,1678
0.5000,1665
0.5028,1667
0.5056,1667
0.5083,1679
0.5111,1684
0.5139,1700
0.5167,1706
0.5194,1699
0.5222,1688
0.5250,1675
0.5278,1683
0.5306,1696
0.5333,1691
0.5361,1674
0.5389,1658
0.5417,1653
0.5444,1676
0.5472,1675
0.5500,1685
0.5528,1685
0.5556,1678
0.5583,1675
0.5611,1662
0.5639,1664
0.5667,1659
0.5694,1644
0.5722,1639
0.5750,1634
0.5778,1648
0.5806,1661
0.5833,1674
0.5861,1664
0.5889,1664
0.5917,1661
0.5944,1648
0.5972,1641
0.6000,1632
0.6028,1637
0.6056,1650
0.6083,1671
0.6111,1671
0.6139,1671
0.6167,1661
0.6194,1666
0.6222,1668
0.6250,1672
0.6278,1672
0.6306,1673
0.6333,1663
0.6361,1660
0.6389,1657
0.6417,1664
0.6444,1663
0.6472,1661
0.6500,1658
0.6528,1660
0.6556,1660
0.6583,1663
0.6611,1662
0.6639,1652
0.6667,1648
0.6694,1649
0.6722,1654
0.6750,1660
0.6778,1662
0.6806,1651
0.6833,1637
0.6861,1625
0.6889,1627
0.6917,1637
0.6944,1646
0.6972,1647
0.7000,1652
0.7028,1654
0.7056,1678
0.7083,1686
0.7111,1676
0.7139,1674
0.7167,1684
0.7194,1692
0.7222,1710
0.7250,1718
0.7278,1715
0.7306,1724
0.7333,1719
0.7361,1711
0.7389,1718
0.7417,1706
0.7444,1703
0.7472,1704
0.7500,1696
0.7528,1696
0.7556,1684
0.7583,1685
0.7611,1699
0.7639,1704
0.7667,1710
0.7694,1702
0.7722,1703
0.7750,1688
0.7778,1668
0.7806,1662
0.7833,1660
0.7861,1673
0.7889,1711
0.7917,1736
0.7944,1742
0.7972,1760
0.8000,1761
0.8028,1742
0.8056,1715
0.8083,1712
0.8111,1718
0.8139,1718
0.8167,1724
0.8194,1727
0.8222,1737
0.8250,1720
0.8278,1723
0.8306,1713
0.8333,1714
0.8361,1717
0.8389,1746
0.8417,1785
0.8444,1822
0.8472,1855
0.8500,1864
0.8528,1871
0.8556,1886
0.8583,1901
0.8611,1893
0.8639,1898
0.8667,1920
0.8694,1954
0.8722,1974
0.8750,1978
0.8778,1966
0.8806,1964
0.8833,1963
0.8861,1947
0.8889,1927
0.8917,1902
0.8944,1865
0.8972,1829
0.9000,1769
0.9028,1715
0.9056,1685
0.9083,1675
0.9111,1676
0.9139,1681
0.9167,1673
0.9194,1653
0.9222,1641
0.9250,1618
0.9278,1609
0.9306,1610
0.9333,1623
0.9361,1619
0.9389,1627
0.9417,1617
0.9444,1615
0.9472,1602
0.9500,1608
0.9528,1608
0.9556,1610
0.9583,1612
0.9611,1619
0.9639,1612
0.9667,1633
0.9694,1634
0.9722,1640
0.9750,1652
0.9778,1640
0.9806,1621
0.9833,1600
0.9861,1594
0.9889,1646
0.9917,1812
0.9944,2074
0.9972,2431
1.0000,2703
1.0028,2762
1.0056,2709
1.0083,2606
1.0111,2515
1.0139,2408
1.0167,2108
1.0194,1673
1.0222,1286
1.0250,1075
1.0278,985
1.0306,963
1.0333,964
1.0361,982
1.0389,991
1.0417,1031
1.0444,1079
1.0472,1144
1.0500,1203
1.0528,1273
1.0556,1356
1.0583,1465
1.0611,1566
1.0639,1659
1.0667,1718
1.0694,1766
1.0722,1772
1.0750,1774
1.0778,1777
1.0806,1784
1.0833,1819
1.0861,1828
1.0889,1838
1.0917,1843
1.0944,1843
1.0972,1845
1.1000,1862
1.1028,1878
1.1056,1906
1.1083,1899
1.1111,1893
1.1139,1887
1.1167,1888
1.1194,1900
1.1222,1918
1.1250,1939
1.1278,1947
1.1306,1950
1.1333,1946
1.1361,1922
1.1389,1923
1.1417,1934
1.1444,1948
1.1472,1979
1.1500,1995
1.1528,1988
1.1556,1986
1.1583,1998
1.1611,2018
1.1639,2037
1.1667,2047
1.1694,2055
1.1722,2065
1.1750,2058
1.1778,2059
1.1806,2068
1.1833,2077
1.1861,2081
1.1889,2083
1.1917,2090
1.1944,2088
1.1972,2094
1.2000,2108
1.2028,2132
1.2056,2142
1.2083,2157
1.2111,2149
1.2139,2140
1.2167,1887
1.2194,1881
1.2222,1861
1.2250,1844
1.2278,1826
1.2306,1824
1.2333,1814
1.2361,1791
1.2389,1767
1.2417,1747
1.2444,1726
1.2472,1716
1.2500,1704
1.2528,1688
1.2556,1677
1.2583,1668
1.2611,1670
1.2639,1662
1.2667,1659
1.2694,1651
1.2722,1645
1.2750,1645
1.2778,1664
1.2806,1670
1.2833,1664
1.2861,1657
1.2889,1655
1.2917,1653
1.2944,1656
1.2972,1659
1.3000,1673
1.3028,1670
1.3056,1686
1.3083,1687
1.3111,1687
1.3139,1692
1.3167,1695
1.3194,1697
1.3222,1710
1.3250,1711
1.3278,1704
1.3306,1697
1.3333,1690
1.3361,1707
1.3389,1716
1.3417,1726
1.3444,1733
1.3472,1732
1.3500,1717
1.3528,1711
1.3556,1712
1.3583,1710
1.3611,1708
1.3639,1718
1.3667,1721
1.3694,1723
1.3722,1719
1.3750,1714
1.3778,1708
1.3806,1703
1.3833,1705
1.3861,1714
1.3889,1704
1.3917,1694
1.3944,1680
1.3972,1687
1.4000,1689
1.4028,1681
1.4056,1676
1.4083,1662
1.4111,1650
1.4139,1658
1.4167,1668
1.4194,1672
1.4222,1676
1.4250,1672
1.4278,1667
1.4306,1651
1.4333,1645
1.4361,1641
1.4389,1650
1.4417,1654
1.4444,1653
1.4472,1652
1.4500,1641
1.4528,1640
1.4556,1630
1.4583,1645
1.4611,1635
1.4639,1630
1.4667,1623
1.4694,1626
1.4722,1619
1.4750,1625
1.4778,1626
1.4806,1631
1.4833,1625
1.4861,1619
1.4889,1622
1.4917,1614
1.4944,1612
1.4972,1610
1.5000,1601
1.5028,1604
1.5056,1602
1.5083,1602
1.5111,1599
1.5139,1597
1.5167,1604
1.5194,1618
1.5222,1620
1.5250,1619
1.5278,1619
1.5306,1616
1.5333,1606
1.5361,1606
1.5389,1610
1.5417,1611
1.5444,1618
1.5472,1623
1.5500,1620
1.5528,1618
1.5556,1610
1.5583,1612
1.5611,1611
1.5639,1625
1.5667,1630
1.5694,1636
1.5722,1634
1.5750,1625
1.5778,1626
1.5806,1630
1.5833,1623
1.5861,1629
1.5889,1628
1.5917,1617
1.5944,1627
1.5972,1624
1.6000,1635
1.6028,1636
1.6056,1636
1.6083,1624
1.6111,1620
1.6139,1623
1.6167,1617
1.6194,1628
1.6222,1628
1.6250,1636
1.6278,1636
1.6306,1627
1.6333,1625
1.6361,1621
1.6389,1628
1.6417,1645
1.6444,1640
1.6472,1639
1.6500,1634
1.6528,1627
1.6556,1621
1.6583,1622
1.6611,1618
1.6639,1613
1.6667,1618
1.6694,1628
1.6722,1633
1.6750,1639
1.6778,1643
1.6806,1632
1.6833,1628
1.6861,1627
1.6889,1623
1.6917,1622
1.6944,1623
1.6972,1637
1.7000,1646
1.7028,1649
1.7056,1644
1.7083,1651
1.7111,1660
1.7139,1651
1.7167,1647
1.7194,1642
1.7222,1637
1.7250,1636
1.7278,1638
1.7306,1652
1.7333,1639
1.7361,1642
1.7389,1637
1.7417,1634
1.7444,1632
1.7472,1629
1.7500,1635
1.7528,1635
1.7556,1643
1.7583,1647
1.7611,1642
1.7639,1640
1.7667,1634
1.7694,1631
1.7722,1645
1.7750,1659
1.7778,1695
1.7806,1713
1.7833,1740
1.7861,1762
1.7889,1781
1.7917,1791
1.7944,1798
1.7972,1806
1.8000,1807
1.8028,1813
1.8056,1829
1.8083,1869
1.8111,1882
1.8139,1898
1.8167,1901
1.8194,1894
1.8222,1886
1.8250,1867
1.8278,1850
1.8306,1813
1.8333,1773
1.8361,1729
1.8389,1705
1.8417,1682
1.8444,1673
1.8472,1647
1.8500,1626
1.8528,1607
1.8556,1590
1.8583,1579
1.8611,1561
1.8639,1551
1.8667,1535
1.8694,1532
1.8722,1534
1.8750,1545
1.8778,1542
1.8806,1529
1.8833,1529
1.8861,1528
1.8889,1522
1.8917,1520
1.8944,1519
1.8972,1519
1.9000,1517
1.9028,1539
1.9056,1562
1.9083,1587
1.9111,1602
1.9139,1585
1.9167,1546
1.9194,1504
1.9222,1487
1.9250,1535
1.9278,1652
1.9306,1867
1.9333,2182
1.9361,2470
1.9389,2566
1.9417,2513
1.9444,2422
1.9472,2328
1.9500,2251
1.9528,2051
1.9556,1729
1.9583,1429
1.9611,1245
1.9639,1144
1.9667,1082
1.9694,1026
1.9722,980
1.9750,959
1.9778,970
1.9806,1008
1.9833,1061
1.9861,1118
1.9889,1174
1.9917,1220
1.9944,1286
1.9972,1353
2.0000,1438
2.0028,1517
2.0056,1576
2.0083,1607
2.0111,1637
2.0139,1651
2.0167,1672
2.0194,1699
2.0222,1710
2.0250,1715
2.0278,1718
2.0306,1718
2.0333,1729
2.0361,1745
2.0389,1761
2.0417,1772
2.0444,1783
2.0472,1779
2.0500,1773
2.0528,1791
2.0556,1798
2.0583,1809
2.0611,1822
2.0639,1819
2.0667,1828
2.0694,1822
2.0722,1813
2.0750,1815
2.0778,1841
2.0806,1855
2.0833,1871
2.0861,1874
2.0889,1882
2.0917,1882
2.0944,1888
2.0972,1893
2.1000,1907
2.1028,1929
2.1056,1942
2.1083,1943
2.1111,1942
2.1139,1946
2.1167,1951
2.1194,1970
2.1222,1976
2.1250,1989
2.1278,1991
2.1306,1993
2.1333,1972
2.1361,1957
2.1389,1938
2.1417,1929
2.1444,1903
2.1472,1873
2.1500,1854
2.1528,1822
2.1556,1801
2.1583,1787
2.1611,1778
2.1639,1745
2.1667,1718
2.1694,1688
2.1722,1677
2.1750,1661
2.1778,1664
2.1806,1655
2.1833,1650
2.1861,1635
2.1889,1619
2.1917,1605
2.1944,1606
2.1972,1602
2.2000,1594
2.2028,1594
2.2056,1598
2.2083,1600
2.2111,1595
2.2139,1592
2.2167,1594
2.2194,1601
2.2222,1608
2.2250,1599
2.2278,1587
2.2306,1589
2.2333,1588
2.2361,1596
2.2389,1599
2.2417,1609
2.2444,1610
2.2472,1619
2.2500,1615
2.2528,1607
2.2556,1615
2.2583,1625
2.2611,1646
2.2639,1636
2.2667,1631
2.2694,1623
2.2722,1618
2.2750,1624
2.2778,1628
2.2806,1636
2.2833,1651
2.2861,1649
2.2889,1656
2.2917,1653
2.2944,1637
2.2972,1628
2.3000,1621
2.3028,1624
2.3056,1634
2.3083,1634
2.3111,1641
2.3139,1626
2.3167,1623
2.3194,1629
2.3222,1627
2.3250,1627
2.3278,1616
2.3306,1610
2.3333,1604
2.3361,1602
2.3389,1599
2.3417,1598
2.3444,1605
2.3472,1604
2.3500,1590
2.3528,1583
2.3556,1585
2.3583,1588
2.3611,1594
2.3639,1592
2.3667,1587
2.3694,1579
2.3722,1571
2.3750,1570
2.3778,1572
2.3806,1578
2.3833,1580
2.3861,1565
2.3889,1579
2.3917,1572
2.3944,1575
2.3972,1561
2.4000,1567
2.4028,1576
2.4056,1581
2.4083,1583
2.4111,1583
2.4139,1572
2.4167,1573
2.4194,1575
2.4222,1575
2.4250,1564
2.4278,1574
2.4306,1575
2.4333,1573
2.4361,1565
2.4389,1566
2.4417,1562
2.4444,1570
2.4472,1573
2.4500,1578
2.4528,1582
2.4556,1573
2.4583,1581
2.4611,1580
2.4639,1586
2.4667,1589
2.4694,1591
2.4722,1604
2.4750,1602
2.4778,1587
2.4806,1584
2.4833,1578
2.4861,1588
2.4889,1589
2.4917,1590
2.4944,1584
2.4972,1587
2.5000,1593
2.5028,1587
2.5056,1589
2.5083,1596
2.5111,1590
2.5139,1589
2.5167,1601
2.5194,1594
2.5222,1609
2.5250,1608
2.5278,1613
2.5306,1617
2.5333,1617
2.5361,1619
2.5389,1616
2.5417,1621
2.5444,1620
2.5472,1617
2.5500,1622
2.5528,1618
2.5556,1635
2.5583,1626
2.5611,1631
2.5639,1623
2.5667,1630
2.5694,1631
2.5722,1632
2.5750,1627
2.5778,1627
2.5806,1627
2.5833,1633
2.5861,1639
2.5889,1643
2.5917,1642
2.5944,1643
2.5972,1638
2.6000,1641
2.6028,1638
2.6056,1638
2.6083,1636
2.6111,1631
2.6139,1622
2.6167,1629
2.6194,1640
2.6222,1642
2.6250,1646
2.6278,1645
2.6306,1650
2.6333,1656
2.6361,1681
2.6389,1700
2.6417,1728
2.6444,1732
2.6472,1749
2.6500,1748
2.6528,1766
2.6556,1780
2.6583,1791
2.6611,1813
2.6639,1837
2.6667,1861
2.6694,1870
2.6722,1895
2.6750,1931
2.6778,1957
2.6806,1972
2.6833,1978
2.6861,1976
2.6889,1946
2.6917,1913
2.6944,1857
2.6972,1798
2.7000,1732
2.7028,1674
2.7056,1635
2.7083,1607
2.7111,1587
2.7139,1566
2.7167,1554
2.7194,1536
2.7222,1533
2.7250,1534
2.7278,1532
2.7306,1530
2.7333,1523
2.7361,1526
2.7389,1527
2.7417,1530
2.7444,1520
2.7472,1525
2.7500,1521
2.7528,1518
2.7556,1523
2.7583,1518
2.7611,1535
2.7639,1560
2.7667,1583
2.7694,1590
2.7722,1579
2.7750,1553
2.7778,1524
2.7806,1508
2.7833,1535
2.7861,1635
2.7889,1841
2.7917,2143
2.7944,2394
2.7972,2466
2.8000,2422
2.8028,2362
2.8056,2317
2.8083,2277
2.8111,2114
2.8139,1859
2.8167,1617
2.8194,1453
2.8222,1341
2.8250,1263
2.8278,1165
2.8306,1082
2.8333,1026
2.8361,1015
2.8389,1040
2.8417,1079
2.8444,1125
2.8472,1180
2.8500,1236
2.8528,1293
2.8556,1358
2.8583,1423
2.8611,1488
2.8639,1556
2.8667,1602
2.8694,1635
2.8722,1662
2.8750,1681
2.8778,1700
2.8806,1725
2.8833,1739
2.8861,1741
2.8889,1742
2.8917,1743
2.8944,1759
2.8972,1782
2.9000,1802
2.9028,1807
2.9056,1812
2.9083,1793
2.9111,1793
2.9139,1800
2.9167,1810
2.9194,1824
2.9222,1837
2.9250,1845
2.9278,1844
2.9306,1833
2.9333,1845
2.9361,1861
2.9389,1875
2.9417,1881
2.9444,1874
2.9472,1880
2.9500,1888
2.9528,1900
2.9556,1910
2.9583,1924
2.9611,1934
2.9639,1942
2.9667,1940
2.9694,1942
2.9722,1947
2.9750,1956
2.9778,1969
2.9806,1995
2.9833,1995
2.9861,2009
2.9889,1997
2.9917,1974
2.9944,1967
2.9972,1942
3.0000,1926
3.0028,1902
3.0056,1890
3.0083,1860
3.0111,1838
3.0139,1802
3.0167,1780
3.0194,1757
3.0222,1755
3.0250,1725
3.0278,1693
3.0306,1680
3.0333,1661
3.0361,1642
3.0389,1633
3.0417,1631
3.0444,1623
3.0472,1612
3.0500,1609
3.0528,1608
3.0556,1612
3.0583,1604
3.0611,1597
3.0639,1596
3.0667,1586
3.0694,1580
3.0722,1585
3.0750,1603
3.0778,1609
3.0806,1613
3.0833,1622
3.0861,1622
3.0889,1613
3.0917,1603
3.0944,1613
3.0972,1613
3.1000,1623
3.1028,1640
3.1056,1642
3.1083,1649
3.1111,1641
3.1139,1641
3.1167,1651
3.1194,1665
3.1222,1662
3.1250,1654
3.1278,1653
3.1306,1657
3.1333,1663
3.1361,1667
3.1389,1671
3.1417,1679
3.1444,1670
3.1472,1678
3.1500,1666
3.1528,1657
3.1556,1655
3.1583,1647
3.1611,1643
3.1639,1639
3.1667,1646
3.1694,1645
3.1722,1651
3.1750,1658
3.1778,1662
3.1806,1674
3.1833,1669
3.1861,1666
3.1889,1650
3.1917,1642
3.1944,1638
3.1972,1632
3.2000,1637
3.2028,1648
3.2056,1636
3.2083,1633
3.2111,1624
3.2139,1620
3.2167,1609
3.2194,1612
3.2222,1613
3.2250,1605
3.2278,1608
3.2306,1604
3.2333,1605
3.2361,1620
3.2389,1612
3.2417,1605
3.2444,1605
3.2472,1609
3.2500,1609
3.2528,1604
3.2556,1613
3.2583,1621
3.2611,1611
3.2639,1604
3.2667,1597
3.2694,1593
3.2722,1602
3.2750,1609
3.2778,1609
3.2806,1616
3.2833,1612
3.2861,1607
3.2889,1598
3.2917,1595
3.2944,1601
3.2972,1593
3.3000,1610
3.3028,1608
3.3056,1608
3.3083,1606
3.3111,1600
3.3139,1596
3.3167,1609
3.3194,1606
3.3222,1634
3.3250,1662
3.3278,1697
3.3306,1713
3.3333,1721
3.3361,1745
3.3389,1739
3.3417,1755
3.3444,1764
3.3472,1790
3.3500,1810
3.3528,1838
3.3556,1862
3.3583,1887
3.3611,1913
3.3639,1927
3.3667,1949
3.3694,1959
3.3722,1970
3.3750,1965
3.3778,1947
3.3806,1904
3.3833,1852
3.3861,1782
3.3889,1701
3.3917,1641
3.3944,1598
3.3972,1569
3.4000,1556
3.4028,1542
3.4056,1538
3.4083,1531
3.4111,1521
3.4139,1526
3.4167,1514
3.4194,1508
3.4222,1518
3.4250,1514
3.4278,1505
3.4306,1496
3.4333,1490
3.4361,1493
3.4389,1500
3.4417,1496
3.4444,1509
3.4472,1503
3.4500,1509
3.4528,1533
3.4556,1562
3.4583,1586
3.4611,1592
3.4639,1574
3.4667,1538
3.4694,1512
3.4722,1513
3.4750,1583
3.4778,1733
3.4806,1978
3.4833,2312
3.4861,2507
3.4889,2535
3.4917,2497
3.4944,2436
3.4972,2397
3.5000,2304
3.5028,2052
3.5056,1713
3.5083,1468
3.5111,1305
3.5139,1221
3.5167,1148
3.5194,1080
3.5222,1028
3.5250,1024
3.5278,1048
3.5306,1091
3.5333,1156
3.5361,1221
3.5389,1291
3.5417,1346
3.5444,1422
3.5472,1494
3.5500,1578
3.5528,1655
3.5556,1701
3.5583,1744
3.5611,1764
3.5639,1790
3.5667,1807
3.5694,1832
3.5722,1846
3.5750,1849
3.5778,1847
3.5806,1857
3.5833,1862
3.5861,1875
3.5889,1887
3.5917,1905
3.5944,1914
3.5972,1909
3.6000,1912
3.6028,1914
3.6056,1923
3.6083,1935
3.6111,1941
3.6139,1940
3.6167,1947
3.6194,1942
3.6222,1938
3.6250,1953
3.6278,1961
3.6306,1978
3.6333,1983
3.6361,1977
3.6389,1981
3.6417,1977
3.6444,1981
3.6472,1983
3.6500,2002
3.6528,2009
3.6556,2009
3.6583,2017
3.6611,2021
3.6639,2027
3.6667,2051
3.6694,2058
3.6722,2073
3.6750,2067
3.6778,2066
3.6806,2062
3.6833,2059
3.6861,2059
3.6889,2070
3.6917,2069
3.6944,2071
3.6972,2066
3.7000,2058
3.7028,1726
3.7056,1740
3.7083,1722
3.7111,1709
3.7139,1680
3.7167,1662
3.7194,1639
3.7222,1632
3.7250,1627
3.7278,1607
3.7306,1612
3.7333,1599
3.7361,1576
3.7389,1574
3.7417,1569
3.7444,1580
3.7472,1576
3.7500,1581
3.7528,1578
3.7556,1578
3.7583,1568
3.7611,1569
3.7639,1568
3.7667,1572
3.7694,1586
3.7722,1586
3.7750,1578
3.7778,1581
3.7806,1599
3.7833,1618
3.7861,1638
3.7889,1636
3.7917,1644
3.7944,1635
3.7972,1626
3.8000,1618
3.8028,1616
3.8056,1630
3.8083,1636
3.8111,1644
3.8139,1637
3.8167,1637
3.8194,1632
3.8222,1640
3.8250,1646
3.8278,1648
3.8306,1644
3.8333,1644
3.8361,1633
3.8389,1626
3.8417,1629
3.8444,1637
3.8472,1639
3.8500,1648
3.8528,1650
3.8556,1656
3.8583,1637
3.8611,1638
3.8639,1646
3.8667,1646
3.8694,1645
3.8722,1648
3.8750,1642
3.8778,1631
3.8806,1625
3.8833,1625
3.8861,1639
3.8889,1641
3.8917,1656
3.8944,1640
3.8972,1633
3.9000,1622
3.9028,1619
3.9056,1622
3.9083,1629
3.9111,1625
3.9139,1632
3.9167,1629
3.9194,1619
3.9222,1621
3.9250,1630
3.9278,1637
3.9306,1635
3.9333,1625
3.9361,1623
3.9389,1617
3.9417,1626
3.9444,1622
3.9472,1631
3.9500,1629
3.9528,1646
3.9556,1643
3.9583,1638
3.9611,1642
3.9639,1638
3.9667,1636
3.9694,1636
3.9722,1621
3.9750,1619
3.9778,1616
3.9806,1622
3.9833,1619
3.9861,1624
3.9889,1629
3.9917,1630
3.9944,1615
3.9972,1607
4.0000,1596
4.0028,1598
4.0056,1598
4.0083,1602
4.0111,1614
4.0139,1617
4.0167,1635
4.0194,1654
4.0222,1686
4.0250,1727
4.0278,1751
4.0306,1767
4.0333,1776
4.0361,1768
4.0389,1764
4.0417,1770
4.0444,1789
4.0472,1818
4.0500,1844
4.0528,1877
4.0556,1907
4.0583,1931
4.0611,1960
4.0639,1968
4.0667,1986
4.0694,1981
4.0722,1975
4.0750,1961
4.0778,1926
4.0806,1880
4.0833,1829
4.0861,1751
4.0889,1680
4.0917,1625
4.0944,1586
4.0972,1560
4.1000,1545
4.1028,1520
4.1056,1518
4.1083,1511
4.1111,1502
4.1139,1490
4.1167,1482
4.1194,1472
4.1222,1481
4.1250,1486
4.1278,1473
4.1306,1470
4.1333,1459
4.1361,1453
4.1389,1441
4.1417,1446
4.1444,1453
4.1472,1467
4.1500,1484
4.1528,1511
4.1556,1537
4.1583,1549
4.1611,1544
4.1639,1508
4.1667,1476
4.1694,1450
4.1722,1464
4.1750,1557
4.1778,1771
4.1806,2088
4.1833,2438
4.1861,2642
4.1889,2667
4.1917,2598
4.1944,2520
4.1972,2436
4.2000,2244
4.2028,1848
4.2056,1410
4.2083,1106
4.2111,959
4.2139,896
4.2167,867
4.2194,848
4.2222,861
4.2250,882
4.2278,926
4.2306,984
4.2333,1057
4.2361,1121
4.2389,1203
4.2417,1298
4.2444,1386
4.2472,1475
4.2500,1556
4.2528,1613
4.2556,1655
4.2583,1664
4.2611,1672
4.2639,1676
4.2667,1695
4.2694,1715
4.2722,1734
4.2750,1741
4.2778,1742
4.2806,1762
4.2833,1773
4.2861,1788
4.2889,1811
4.2917,1821
4.2944,1810
4.2972,1808
4.3000,1788
4.3028,1800
4.3056,1821
4.3083,1836
4.3111,1850
4.3139,1851
4.3167,1858
4.3194,1853
4.3222,1861
4.3250,1875
4.3278,1879
4.3306,1897
4.3333,1910
4.3361,1917
4.3389,1921
4.3417,1925
4.3444,1937
4.3472,1959
4.3500,1970
4.3528,1976
4.3556,1982
4.3583,1988
4.3611,2003
4.3639,2020
4.3667,2035
4.3694,2057
4.3722,2074
4.3750,2083
4.3778,2077
4.3806,2085
4.3833,2092
4.3861,2106
4.3889,2130
4.3917,2130
4.3944,2131
4.3972,2130
4.4000,1825
4.4028,1828
4.4056,1803
4.4083,1780
4.4111,1753
4.4139,1732
4.4167,1714
4.4194,1704
4.4222,1678
4.4250,1675
4.4278,1656
4.4306,1649
4.4333,1633
4.4361,1612
4.4389,1609
4.4417,1613
4.4444,1611
4.4472,1608
4.4500,1629
4.4528,1625
4.4556,1624
4.4583,1623
4.4611,1618
4.4639,1634
4.4667,1625
4.4694,1631
4.4722,1621
4.4750,1617
4.4778,1609
4.4806,1615
4.4833,1628
4.4861,1642
4.4889,1661
4.4917,1664
4.4944,1657
4.4972,1657
4.5000,1650
4.5028,1661
4.5056,1668
4.5083,1666
4.5111,1665
4.5139,1667
4.5167,1664
4.5194,1671
4.5222,1678
4.5250,1693
4.5278,1704
4.5306,1688
4.5333,1693
4.5361,1678
4.5389,1659
4.5417,1651
4.5444,1655
4.5472,1676
4.5500,1693
4.5528,1693
4.5556,1688
4.5583,1679
4.5611,1675
4.5639,1673
4.5667,1666
4.5694,1666
4.5722,1666
4.5750,1660
4.5778,1650
4.5806,1647
4.5833,1648
4.5861,1655
4.5889,1655
4.5917,1656
4.5944,1659
4.5972,1653
4.6000,1645
4.6028,1637
4.6056,1635
4.6083,1631
4.6111,1631
4.6139,1621
4.6167,1617
4.6194,1624
4.6222,1636
4.6250,1631
4.6278,1637
4.6306,1646
4.6333,1639
4.6361,1640
4.6389,1635
4.6417,1640
4.6444,1636
4.6472,1644
4.6500,1644
4.6528,1659
4.6556,1663
4.6583,1674
4.6611,1673
4.6639,1680
4.6667,1694
4.6694,1697
4.6722,1701
4.6750,1699
4.6778,1699
4.6806,1715
4.6833,1717
4.6861,1719
4.6889,1725
4.6917,1731
4.6944,1720
4.6972,1708
4.7000,1706
4.7028,1706
4.7056,1710
4.7083,1708
4.7111,1710
4.7139,1711
4.7167,1711
4.7194,1712
4.7222,1729
4.7250,1734
4.7278,1744
4.7306,1760
4.7333,1771
4.7361,1784
4.7389,1802
4.7417,1826
4.7444,1842
4.7472,1859
4.7500,1876
4.7528,1898
4.7556,1929
4.7583,1948
4.7611,1974
4.7639,1998
4.7667,2022
4.7694,2030
4.7722,2028
4.7750,2012
4.7778,1999
4.7806,1978
4.7833,1967
4.7861,1982
4.7889,1993
4.7917,1989
4.7944,1979
4.7972,1955
4.8000,1915
4.8028,1868
4.8056,1822
4.8083,1780
4.8111,1740
4.8139,1705
4.8167,1674
4.8194,1637
4.8222,1613
4.8250,1579
4.8278,1555
4.8306,1527
4.8333,1500
4.8361,1470
4.8389,1450
4.8417,1436
4.8444,1447
4.8472,1466
4.8500,1477
4.8528,1496
4.8556,1510
4.8583,1503
4.8611,1507
4.8639,1514
4.8667,1492
4.8694,1473
4.8722,1462
4.8750,1465
4.8778,1476
4.8806,1482
4.8833,1494
4.8861,1485
4.8889,1444
4.8917,1383
4.8944,1306
4.8972,1240
4.9000,1195
4.9028,1178
4.9056,1167
4.9083,1192
4.9111,1196
4.9139,1208
4.9167,1223
4.9194,1236
4.9222,1252
4.9250,1278
4.9278,1295
4.9306,1310
4.9333,1331
4.9361,1330
4.9389,1335
4.9417,1349
4.9444,1354
4.9472,1350
4.9500,1358
4.9528,1372
4.9556,1387
4.9583,1405
4.9611,1436
4.9639,1457
4.9667,1485
4.9694,1492
4.9722,1473
4.9750,1439
4.9778,1420
4.9806,1438
4.9833,1539
4.9861,1741
4.9889,2051
4.9917,2432
4.9944,2665
4.9972,2693
5.0000,2637
5.0028,2553
5.0056,2473
5.0083,2296
5.0111,1901
5.0139,1456
5.0167,1129
5.0194,964
5.0222,909
5.0250,880
5.0278,872
5.0306,883
5.0333,908
5.0361,944
5.0389,1001
5.0417,1059
5.0444,1131
5.0472,1202
5.0500,1285
5.0528,1378
5.0556,1475
5.0583,1556
5.0611,1626
5.0639,1660
5.0667,1684
5.0694,1695
5.0722,1705
5.0750,1730
5.0778,1748
5.0806,1769
5.0833,1781
5.0861,1785
5.0889,1794
5.0917,1812
5.0944,1826
5.0972,1835
5.1000,1853
5.1028,1844
5.1056,1845
5.1083,1846
5.1111,1860
5.1139,1878
5.1167,1895
5.1194,1920
5.1222,1940
5.1250,1936
5.1278,1932
5.1306,1935
5.1333,1946
5.1361,1959
5.1389,1981
5.1417,1987
5.1444,2006
5.1472,2006
5.1500,2024
5.1528,2041
5.1556,2058
5.1583,2080
5.1611,2096
5.1639,2086
5.1667,2097
5.1694,2104
5.1722,2114
5.1750,2141
5.1778,2177
5.1806,2199
5.1833,2208
5.1861,2279
5.1889,2266
5.1917,2238
5.1944,2221
5.1972,2181
5.2000,2143
5.2028,2088
5.2056,2032
5.2083,1946
5.2111,1867
5.2139,1816
5.2167,1771
5.2194,1744
5.2222,1703
5.2250,1645
5.2278,1604
5.2306,1562
5.2333,1538
5.2361,1519
5.2389,1505
5.2417,1482
5.2444,1451
5.2472,1426
5.2500,1397
5.2528,1384
5.2556,1368
5.2583,1347
5.2611,1316
5.2639,1271
5.2667,1236
5.2694,1230
5.2722,1232
5.2750,1239
5.2778,1244
5.2806,1244
5.2833,1210
5.2861,1174
5.2889,1141
5.2917,1126
5.2944,1142
5.2972,1182
5.3000,1221
5.3028,1265
5.3056,1315
5.3083,1356
5.3111,1400
5.3139,1430
5.3167,1434
5.3194,1460
5.3222,1464
5.3250,1466
5.3278,1467
5.3306,1460
5.3333,1470
5.3361,1481
5.3389,1507
5.3417,1535
5.3444,1555
5.3472,1569
5.3500,1580
5.3528,1575
5.3556,1572
5.3583,1581
5.3611,1583
5.3639,1578
5.3667,1571
5.3694,1560
5.3722,1570
5.3750,1584
5.3778,1596
5.3806,1604
5.3833,1596
5.3861,1584
5.3889,1567
5.3917,1566
5.3944,1561
5.3972,1574
5.4000,1581
5.4028,1589
5.4056,1581
5.4083,1594
5.4111,1582
5.4139,1595
5.4167,1607
5.4194,1610
5.4222,1611
5.4250,1598
5.4278,1604
5.4306,1601
5.4333,1617
5.4361,1622
5.4389,1634
5.4417,1630
5.4444,1623
5.4472,1621
5.4500,1618
5.4528,1616
5.4556,1612
5.4583,1619
5.4611,1623
5.4639,1602
5.4667,1613
5.4694,1617
5.4722,1632
5.4750,1626
5.4778,1630
5.4806,1625
5.4833,1622
5.4861,1614
5.4889,1603
5.4917,1604
5.4944,1619
5.4972,1621
5.5000,1624
5.5028,1622
5.5056,1624
5.5083,1620
5.5111,1620
5.5139,1628
5.5167,1636
5.5194,1635
5.5222,1632
5.5250,1640
5.5278,1636
5.5306,1629
5.5333,1629
5.5361,1627
5.5389,1632
5.5417,1654
5.5444,1661
5.5472,1654
5.5500,1657
5.5528,1645
5.5556,1639
5.5583,1642
5.5611,1654
5.5639,1678
5.5667,1696
5.5694,1689
5.5722,1682
5.5750,1669
5.5778,1662
5.5806,1672
5.5833,1679
5.5861,1689
5.5889,1686
5.5917,1691
5.5944,1690
5.5972,1693
5.6000,1683
5.6028,1664
5.6056,1662
5.6083,1665
5.6111,1669
5.6139,1675
5.6167,1672
5.6194,1670
5.6222,1667
5.6250,1678
5.6278,1679
5.6306,1689
5.6333,1703
5.6361,1725
5.6389,1754
5.6417,1773
5.6444,1782
5.6472,1798
5.6500,1807
5.6528,1816
5.6556,1820
5.6583,1841
5.6611,1856
5.6639,1867
5.6667,1898
5.6694,1929
5.6722,1968
5.6750,1994
5.6778,2009
5.6806,2006
5.6833,1981
5.6861,1953
5.6889,1913
5.6917,1866
5.6944,1818
5.6972,1766
5.7000,1705
5.7028,1657
5.7056,1619
5.7083,1596
5.7111,1570
5.7139,1565
5.7167,1555
5.7194,1547
5.7222,1543
5.7250,1533
5.7278,1521
5.7306,1522
5.7333,1515
5.7361,1520
5.7389,1517
5.7417,1515
5.7444,1517
5.7472,1509
5.7500,1508
5.7528,1512
5.7556,1508
5.7583,1523
5.7611,1526
5.7639,1536
5.7667,1557
5.7694,1572
5.7722,1574
5.7750,1561
5.7778,1544
5.7806,1516
5.7833,1528
5.7861,1595
5.7889,1764
5.7917,2037
5.7944,2366
5.7972,2541
5.8000,2543
5.8028,2503
5.8056,2462
5.8083,2431
5.8111,2312
5.8139,2029
5.8167,1734
5.8194,1514
5.8222,1388
5.8250,1285
5.8278,1198
5.8306,1120
5.8333,1066
5.8361,1051
5.8389,1067
5.8417,1098
5.8444,1142
5.8472,1195
5.8500,1249
5.8528,1302
5.8556,1386
5.8583,1468
5.8611,1554
5.8639,1617
5.8667,1667
5.8694,1690
5.8722,1721
5.8750,1745
5.8778,1762
5.8806,1789
5.8833,1795
5.8861,1801
5.8889,1796
5.8917,1806
5.8944,1804
5.8972,1826
5.9000,1846
5.9028,1866
5.9056,1874
5.9083,1868
5.9111,1864
5.9139,1864
5.9167,1880
5.9194,1884
5.9222,1913
5.9250,1927
5.9278,1931
5.9306,1942
5.9333,1939
5.9361,1940
5.9389,1943
5.9417,1947
5.9444,1962
5.9472,1963
5.9500,1969
5.9528,1983
5.9556,1988
5.9583,1997
5.9611,2010
5.9639,2016
5.9667,2007
5.9694,2001
5.9722,2002
5.9750,2012
5.9778,2022
5.9806,2043
5.9833,2065
5.9861,2072
5.9889,2071
5.9917,2066
5.9944,2046
5.9972,2041
6.0000,2037
6.0028,2019
6.0056,1999
6.0083,1966
6.0111,1931
6.0139,1896
6.0167,1875
6.0194,1853
6.0222,1826
6.0250,1809
6.0278,1784
6.0306,1756
6.0333,1734
6.0361,1722
6.0389,1717
6.0417,1725
6.0444,1722
6.0472,1716
6.0500,1705
6.0528,1689
6.0556,1674
6.0583,1671
6.0611,1676
6.0639,1681
6.0667,1684
6.0694,1684
6.0722,1685
6.0750,1684
6.0778,1693
6.0806,1696
6.0833,1688
6.0861,1690
6.0889,1689
6.0917,1696
6.0944,1702
6.0972,1714
6.1000,1730
6.1028,1712
6.1056,1718
6.1083,1704
6.1111,1698
6.1139,1693
6.1167,1708
6.1194,1724
6.1222,1730
6.1250,1731
6.1278,1726
6.1306,1718
6.1333,1704
6.1361,1715
6.1389,1721
6.1417,1718
6.1444,1722
6.1472,1722
6.1500,1718
6.1528,1713
6.1556,1706
6.1583,1716
6.1611,1714
6.1639,1713
6.1667,1702
6.1694,1694
6.1722,1687
6.1750,1695
6.1778,1703
6.1806,1697
6.1833,1699
6.1861,1687
6.1889,1691
6.1917,1672
6.1944,1672
6.1972,1682
6.2000,1678
6.2028,1672
6.2056,1677
6.2083,1685
6.2111,1689
6.2139,1700
6.2167,1685
6.2194,1677
6.2222,1675
6.2250,1663
6.2278,1670
6.2306,1662
6.2333,1651
6.2361,1651
6.2389,1650
6.2417,1646
6.2444,1663
6.2472,1673
6.2500,1675
6.2528,1668
6.2556,1661
6.2583,1659
6.2611,1663
6.2639,1661
6.2667,1666
6.2694,1656
6.2722,1659
6.2750,1657
6.2778,1657
6.2806,1661
6.2833,1672
6.2861,1667
6.2889,1669
6.2917,1671
6.2944,1666
6.2972,1667
6.3000,1665
6.3028,1660
6.3056,1658
6.3083,1664
6.3111,1656
6.3139,1661
6.3167,1669
6.3194,1668
6.3222,1664
6.3250,1662
6.3278,1664
6.3306,1654
6.3333,1672
6.3361,1666
6.3389,1674
6.3417,1678
6.3444,1679
6.3472,1670
6.3500,1663
6.3528,1659
6.3556,1664
6.3583,1679
6.3611,1703
6.3639,1734
6.3667,1752
6.3694,1780
6.3722,1793
6.3750,1800
6.3778,1816
6.3806,1829
6.3833,1846
6.3861,1848
6.3889,1856
6.3917,1865
6.3944,1878
6.3972,1915
6.4000,1961
6.4028,1987
6.4056,2005
6.4083,2016
6.4111,2022
6.4139,2006
6.4167,1985
6.4194,1945
6.4222,1891
6.4250,1815
6.4278,1736
6.4306,1687
6.4333,1649
6.4361,1632
6.4389,1614
6.4417,1607
6.4444,1596
6.4472,1587
6.4500,1584
6.4528,1572
6.4556,1558
6.4583,1561
6.4611,1560
6.4639,1559
6.4667,1562
6.4694,1555
6.4722,1550
6.4750,1545
6.4778,1539
6.4806,1538
6.4833,1542
6.4861,1550
6.4889,1555
6.4917,1566
6.4944,1583
6.4972,1612
6.5000,1610
6.5028,1606
6.5056,1572
6.5083,1544
6.5111,1524
6.5139,1546
6.5167,1611
6.5194,1782
6.5222,2065
6.5250,2384
6.5278,2550
6.5306,2560
6.5333,2529
6.5361,2492
6.5389,2449
6.5417,2303
6.5444,2002
6.5472,1681
6.5500,1455
6.5528,1329
6.5556,1242
6.5583,1153
6.5611,1059
6.5639,997
6.5667,989
6.5694,1012
6.5722,1063
6.5750,1118
6.5778,1185
6.5806,1240
6.5833,1296
6.5861,1364
6.5889,1445
6.5917,1501
6.5944,1562
6.5972,1617
6.6000,1660
6.6028,1683
6.6056,1696
6.6083,1721
6.6111,1728
6.6139,1745
6.6167,1747
6.6194,1765
6.6222,1770
6.6250,1776
6.6278,1787
6.6306,1793
6.6333,1798
6.6361,1799
6.6389,1798
6.6417,1801
6.6444,1805
6.6472,1821
6.6500,1834
6.6528,1841
6.6556,1840
6.6583,1841
6.6611,1828
6.6639,1844
6.6667,1871
6.6694,1886
6.6722,1895
6.6750,1891
6.6778,1886
6.6806,1889
6.6833,1892
6.6861,1897
6.6889,1905
6.6917,1925
6.6944,1929
6.6972,1931
6.7000,1927
6.7028,1929
6.7056,1929
6.7083,1949
6.7111,1959
6.7139,1965
6.7167,1982
6.7194,1979
6.7222,1979
6.7250,1973
6.7278,1958
6.7306,1926
6.7333,1906
6.7361,1876
6.7389,1849
6.7417,1815
6.7444,1793
6.7472,1774
6.7500,1761
6.7528,1733
6.7556,1718
6.7583,1698
6.7611,1673
6.7639,1651
6.7667,1640
6.7694,1623
6.7722,1620
6.7750,1611
6.7778,1615
6.7806,1606
6.7833,1601
6.7861,1596
6.7889,1594
6.7917,1592
6.7944,1602
6.7972,1604
6.8000,1594
6.8028,1594
6.8056,1592
6.8083,1601
6.8111,1597
6.8139,1600
6.8167,1606
6.8194,1605
6.8222,1612
6.8250,1613
6.8278,1616
6.8306,1625
6.8333,1617
6.8361,1617
6.8389,1617
6.8417,1619
6.8444,1625
6.8472,1633
6.8500,1628
6.8528,1625
6.8556,1627
6.8583,1621
6.8611,1607
6.8639,1612
6.8667,1619
6.8694,1638
6.8722,1645
6.8750,1644
6.8778,1637
6.8806,1641
6.8833,1624
6.8861,1622
6.8889,1618
6.8917,1618
6.8944,1614
6.8972,1600
6.9000,1596
6.9028,1591
6.9056,1592
6.9083,1601
6.9111,1606
6.9139,1608
6.9167,1603
6.9194,1602
6.9222,1600
6.9250,1603
6.9278,1594
6.9306,1580
6.9333,1582
6.9361,1581
6.9389,1586
6.9417,1590
6.9444,1589
6.9472,1592
6.9500,1585
6.9528,1586
6.9556,1575
6.9583,1569
6.9611,1572
6.9639,1575
6.9667,1574
6.9694,1589
6.9722,1590
6.9750,1589
6.9778,1573
6.9806,1565
6.9833,1563
6.9861,1564
6.9889,1568
6.9917,1574
6.9944,1566
6.9972,1563
7.0000,1566
7.0028,1563
7.0056,1570
7.0083,1578
7.0111,1580
7.0139,1579
7.0167,1562
7.0194,1563
7.0222,1562
7.0250,1558
7.0278,1575
7.0306,1574
7.0333,1573
7.0361,1579
7.0389,1577
7.0417,1586
7.0444,1582
7.0472,1593
7.0500,1581
7.0528,1578
7.0556,1567
7.0583,1566
7.0611,1568
7.0639,1572
7.0667,1579
7.0694,1579
7.0722,1577
7.0750,1569
7.0778,1557
7.0806,1568
7.0833,1589
7.0861,1630
7.0889,1663
7.0917,1682
7.0944,1678
7.0972,1685
7.1000,1698
7.1028,1712
7.1056,1729
7.1083,1759
7.1111,1779
7.1139,1805
7.1167,1821
7.1194,1843
7.1222,1867
7.1250,1888
7.1278,1906
7.1306,1916
7.1333,1913
7.1361,1909
7.1389,1891
7.1417,1853
7.1444,1798
7.1472,1729
7.1500,1657
7.1528,1606
7.1556,1565
7.1583,1542
7.1611,1518
7.1639,1506
7.1667,1498
7.1694,1505
7.1722,1508
7.1750,1495
7.1778,1492
7.1806,1473
7.1833,1462
7.1861,1460
7.1889,1463
7.1917,1468
7.1944,1468
7.1972,1467
7.2000,1467
7.2028,1458
7.2056,1461
7.2083,1471
7.2111,1475
7.2139,1489
7.2167,1504
7.2194,1528
7.2222,1535
7.2250,1526
7.2278,1505
7.2306,1478
7.2333,1462
7.2361,1475
7.2389,1550
7.2417,1729
7.2444,2038
7.2472,2353
7.2500,2514
7.2528,2512
7.2556,2465
7.2583,2437
7.2611,2384
7.2639,2236
7.2667,1903
7.2694,1565
7.2722,1320
7.2750,1182
7.2778,1109
7.2806,1043
7.2833,964
7.2861,913
7.2889,903
7.2917,916
7.2944,961
7.2972,1024
7.3000,1098
7.3028,1157
7.3056,1229
7.3083,1313
7.3111,1400
7.3139,1471
7.3167,1519
7.3194,1560
7.3222,1589
7.3250,1610
7.3278,1637
7.3306,1664
7.3333,1685
7.3361,1700
7.3389,1703
7.3417,1706
7.3444,1704
7.3472,1716
7.3500,1723
7.3528,1738
7.3556,1759
7.3583,1766
7.3611,1772
7.3639,1763
7.3667,1768
7.3694,1778
7.3722,1800
7.3750,1826
7.3778,1832
7.3806,1830
7.3833,1829
7.3861,1844
7.3889,1858
7.3917,1870
7.3944,1881
7.3972,1882
7.4000,1888
7.4028,1889
7.4056,1893
7.4083,1901
7.4111,1922
7.4139,1923
7.4167,1933
7.4194,1945
7.4222,1941
7.4250,1947
7.4278,1955
7.4306,1981
7.4333,1996
7.4361,2002
7.4389,2006
7.4417,2021
7.4444,2007
7.4472,1998
7.4500,1968
7.4528,1946
7.4556,1920
7.4583,1887
7.4611,1859
7.4639,1824
7.4667,1807
7.4694,1783
7.4722,1764
7.4750,1742
7.4778,1722
7.4806,1701
7.4833,1665
7.4861,1658
7.4889,1651
7.4917,1653
7.4944,1655
7.4972,1648
7.5000,1626
7.5028,1629
7.5056,1625
7.5083,1626
7.5111,1630
7.5139,1625
7.5167,1632
7.5194,1636
7.5222,1624
7.5250,1610
7.5278,1602
7.5306,1598
7.5333,1606
7.5361,1624
7.5389,1638
7.5417,1643
7.5444,1631
7.5472,1614
7.5500,1616
7.5528,1620
7.5556,1624
7.5583,1634
7.5611,1635
7.5639,1635
7.5667,1652
7.5694,1647
7.5722,1652
7.5750,1644
7.5778,1648
7.5806,1632
7.5833,1619
7.5861,1626
7.5889,1617
7.5917,1618
7.5944,1613
7.5972,1605
7.6000,1602
7.6028,1595
7.6056,1596
7.6083,1588
7.6111,1585
7.6139,1575
7.6167,1576
7.6194,1561
7.6222,1570
7.6250,1576
7.6278,1590
7.6306,1594
7.6333,1589
7.6361,1575
7.6389,1559
7.6417,1561
7.6444,1557
7.6472,1562
7.6500,1562
7.6528,1564
7.6556,1572
7.6583,1573
7.6611,1571
7.6639,1568
7.6667,1559
7.6694,1545
7.6722,1539
7.6750,1545
7.6778,1540
7.6806,1537
7.6833,1535
7.6861,1532
7.6889,1534
7.6917,1531
7.6944,1530
7.6972,1535
7.7000,1542
7.7028,1545
7.7056,1541
7.7083,1532
7.7111,1526
7.7139,1530
7.7167,1531
7.7194,1528
7.7222,1521
7.7250,1531
7.7278,1554
7.7306,1558
7.7333,1553
7.7361,1559
7.7389,1569
7.7417,1569
7.7444,1558
7.7472,1551
7.7500,1560
7.7528,1565
7.7556,1581
7.7583,1576
7.7611,1564
7.7639,1564
7.7667,1553
7.7694,1557
7.7722,1570
7.7750,1565
7.7778,1558
7.7806,1555
7.7833,1553
7.7861,1552
7.7889,1564
7.7917,1571
7.7944,1579
7.7972,1584
7.8000,1570
7.8028,1558
7.8056,1561
7.8083,1568
7.8111,1575
7.8139,1569
7.8167,1573
7.8194,1567
7.8222,1580
7.8250,1579
7.8278,1597
7.8306,1609
7.8333,1633
7.8361,1664
7.8389,1698
7.8417,1733
7.8444,1755
7.8472,1757
7.8500,1762
7.8528,1769
7.8556,1785
7.8583,1810
7.8611,1841
7.8639,1867
7.8667,1891
7.8694,1924
7.8722,1951
7.8750,1972
7.8778,1977
7.8806,1970
7.8833,1963
7.8861,1947
7.8889,1908
7.8917,1868
7.8944,1810
7.8972,1737
7.9000,1662
7.9028,1615
7.9056,1583
7.9083,1561
7.9111,1542
7.9139,1521
7.9167,1519
7.9194,1510
7.9222,1504
7.9250,1501
7.9278,1500
7.9306,1505
7.9333,1502
7.9361,1502
7.9389,1497
7.9417,1492
7.9444,1484
7.9472,1486
7.9500,1495
7.9528,1496
7.9556,1494
7.9583,1497
7.9611,1497
7.9639,1500
7.9667,1533
7.9694,1560
7.9722,1561
7.9750,1538
7.9778,1512
7.9806,1484
7.9833,1480
7.9861,1555
7.9889,1729
7.9917,1983
7.9944,2370
7.9972,2675
8.0000,2773
8.0028,2724
8.0056,2648
8.0083,2590
8.0111,2463
8.0139,2127
8.0167,1609
8.0194,1152
8.0222,892
8.0250,783
8.0278,766
8.0306,770
8.0333,806
8.0361,834
8.0389,885
8.0417,936
8.0444,1014
8.0472,1098
8.0500,1187
8.0528,1291
8.0556,1401
8.0583,1490
8.0611,1573
8.0639,1628
8.0667,1672
8.0694,1691
8.0722,1692
8.0750,1703
8.0778,1721
8.0806,1739
8.0833,1761
8.0861,1761
8.0889,1750
8.0917,1751
8.0944,1761
8.0972,1780
8.1000,1798
8.1028,1826
8.1056,1828
8.1083,1827
8.1111,1803
8.1139,1814
8.1167,1828
8.1194,1844
8.1222,1868
8.1250,1870
8.1278,1863
8.1306,1872
8.1333,1862
8.1361,1867
8.1389,1881
8.1417,1890
8.1444,1887
8.1472,1894
8.1500,1884
8.1528,1892
8.1556,1913
8.1583,1945
8.1611,1973
8.1639,1983
8.1667,1975
8.1694,1964
8.1722,1951
8.1750,1958
8.1778,1970
8.1806,1987
8.1833,2011
8.1861,2021
8.1889,2025
8.1917,2034
8.1944,2031
8.1972,2049
8.2000,2061
8.2028,2067
8.2056,2070
8.2083,2067
8.2111,2051
8.2139,1837
8.2167,1848
8.2194,1833
8.2222,1818
8.2250,1785
8.2278,1755
8.2306,1720
8.2333,1695
8.2361,1674
8.2389,1672
8.2417,1663
8.2444,1651
8.2472,1627
8.2500,1621
8.2528,1602
8.2556,1608
8.2583,1615
8.2611,1619
8.2639,1603
8.2667,1589
8.2694,1586
8.2722,1594
8.2750,1602
8.2778,1610
8.2806,1629
8.2833,1640
8.2861,1621
8.2889,1616
8.2917,1606
8.2944,1607
8.2972,1610
8.3000,1633
8.3028,1646
8.3056,1651
8.3083,1644
8.3111,1648
8.3139,1650
8.3167,1645
8.3194,1649
8.3222,1641
8.3250,1657
8.3278,1654
8.3306,1647
8.3333,1648
8.3361,1660
8.3389,1660
8.3417,1671
8.3444,1671
8.3472,1665
8.3500,1648
8.3528,1649
8.3556,1644
8.3583,1655
8.3611,1655
8.3639,1654
8.3667,1656
8.3694,1657
8.3722,1654
8.3750,1660
8.3778,1654
8.3806,1641
8.3833,1628
8.3861,1619
8.3889,1618
8.3917,1610
8.3944,1628
8.3972,1647
8.4000,1646
8.4028,1645
8.4056,1641
8.4083,1634
8.4111,1617
8.4139,1619
8.4167,1613
8.4194,1605
8.4222,1615
8.4250,1622
8.4278,1613
8.4306,1609
8.4333,1599
8.4361,1609
8.4389,1613
8.4417,1622
8.4444,1617
8.4472,1621
8.4500,1613
8.4528,1610
8.4556,1603
8.4583,1607
8.4611,1605
8.4639,1613
8.4667,1606
8.4694,1620
8.4722,1618
8.4750,1614
8.4778,1620
8.4806,1630
8.4833,1633
8.4861,1635
8.4889,1627
8.4917,1614
8.4944,1610
8.4972,1612
8.5000,1617
8.5028,1632
8.5056,1642
8.5083,1640
8.5111,1625
8.5139,1618
8.5167,1628
8.5194,1626
8.5222,1634
8.5250,1637
8.5278,1637
8.5306,1634
8.5333,1637
8.5361,1631
8.5389,1626
8.5417,1634
8.5444,1635
8.5472,1642
8.5500,1646
8.5528,1653
8.5556,1645
8.5583,1651
8.5611,1646
8.5639,1640
8.5667,1652
8.5694,1651
8.5722,1644
8.5750,1661
8.5778,1661
8.5806,1667
8.5833,1661
8.5861,1655
8.5889,1654
8.5917,1658
8.5944,1653
8.5972,1658
8.6000,1659
8.6028,1660
8.6056,1661
8.6083,1669
8.6111,1662
8.6139,1665
8.6167,1665
8.6194,1671
8.6222,1677
8.6250,1679
8.6278,1687
8.6306,1688
8.6333,1714
8.6361,1757
8.6389,1802
8.6417,1838
8.6444,1854
8.6472,1863
8.6500,1856
8.6528,1870
8.6556,1884
8.6583,1901
8.6611,1923
8.6639,1954
8.6667,1982
8.6694,2015
8.6722,2040
8.6750,2064
8.6778,2079
8.6806,2071
8.6833,2048
8.6861,2022
8.6889,1999
8.6917,1952
8.6944,1890
8.6972,1811
8.7000,1750
8.7028,1707
8.7056,1677
8.7083,1656
8.7111,1647
8.7139,1642
8.7167,1633
8.7194,1637
8.7222,1637
8.7250,1621
8.7278,1618
8.7306,1619
8.7333,1617
8.7361,1618
8.7389,1626
8.7417,1633
8.7444,1628
8.7472,1630
8.7500,1627
8.7528,1634
8.7556,1624
8.7583,1625
8.7611,1627
8.7639,1631
8.7667,1646
8.7694,1672
8.7722,1661
8.7750,1636
8.7778,1594
8.7806,1565
8.7833,1562
8.7861,1631
8.7889,1794
8.7917,2064
8.7944,2444
8.7972,2724
8.8000,2801
8.8028,2753
8.8056,2649
8.8083,2562
8.8111,2407
8.8139,2024
8.8167,1568
8.8194,1221
8.8222,1053
8.8250,981
8.8278,946
8.8306,922
8.8333,933
8.8361,950
8.8389,981
8.8417,1020
8.8444,1084
8.8472,1149
8.8500,1209
8.8528,1297
8.8556,1387
8.8583,1487
8.8611,1586
8.8639,1659
8.8667,1694
8.8694,1699
8.8722,1702
8.8750,1714
8.8778,1728
8.8806,1747
8.8833,1764
8.8861,1778
8.8889,1779
8.8917,1781
8.8944,1792
8.8972,1806
8.9000,1834
8.9028,1847
8.9056,1852
8.9083,1854
8.9111,1836
8.9139,1825
8.9167,1826
8.9194,1849
8.9222,1860
8.9250,1864
8.9278,1860
8.9306,1862
8.9333,1868
8.9361,1886
8.9389,1902
8.9417,1922
8.9444,1921
8.9472,1913
8.9500,1918
8.9528,1918
8.9556,1936
8.9583,1960
8.9611,1981
8.9639,1984
8.9667,1976
8.9694,1969
8.9722,1959
8.9750,1960
8.9778,1962
8.9806,1970
8.9833,1983
8.9861,1979
8.9889,1978
8.9917,1982
8.9944,1983
8.9972,1981
9.0000,1989
9.0028,1992
9.0056,1982
9.0083,1964
9.0111,1954
9.0139,1793
9.0167,1796
9.0194,1783
9.0222,1763
9.0250,1757
9.0278,1726
9.0306,1709
9.0333,1698
9.0361,1685
9.0389,1677
9.0417,1668
9.0444,1658
9.0472,1648
9.0500,1630
9.0528,1626
9.0556,1632
9.0583,1631
9.0611,1634
9.0639,1631
9.0667,1625
9.0694,1622
9.0722,1621
9.0750,1619
9.0778,1621
9.0806,1631
9.0833,1636
9.0861,1641
9.0889,1645
9.0917,1645
9.0944,1649
9.0972,1652
9.1000,1667
9.1028,1682
9.1056,1677
9.1083,1673
9.1111,1673
9.1139,1677
9.1167,1686
9.1194,1687
9.1222,1688
9.1250,1678
9.1278,1664
9.1306,1652
9.1333,1663
9.1361,1678
9.1389,1684
9.1417,1681
9.1444,1675
9.1472,1670
9.1500,1670
9.1528,1663
9.1556,1662
9.1583,1672
9.1611,1667
9.1639,1657
9.1667,1652
9.1694,1647
9.1722,1649
9.1750,1650
9.1778,1649
9.1806,1638
9.1833,1633
9.1861,1628
9.1889,1629
9.1917,1612
9.1944,1611
9.1972,1613
9.2000,1626
9.2028,1632
9.2056,1629
9.2083,1615
9.2111,1611
9.2139,1601
9.2167,1604
9.2194,1601
9.2222,1592
9.2250,1591
9.2278,1583
9.2306,1580
9.2333,1576
9.2361,1581
9.2389,1579
9.2417,1583
9.2444,1574
9.2472,1571
9.2500,1562
9.2528,1553
9.2556,1558
9.2583,1568
9.2611,1572
9.2639,1580
9.2667,1577
9.2694,1578
9.2722,1589
9.2750,1585
9.2778,1590
9.2806,1592
9.2833,1597
9.2861,1589
9.2889,1577
9.2917,1570
9.2944,1576
9.2972,1573
9.3000,1579
9.3028,1583
9.3056,1587
9.3083,1591
9.3111,1579
9.3139,1577
9.3167,1579
9.3194,1590
9.3222,1593
9.3250,1589
9.3278,1578
9.3306,1580
9.3333,1591
9.3361,1595
9.3389,1594
9.3417,1599
9.3444,1602
9.3472,1599
9.3500,1602
9.3528,1598
9.3556,1598
9.3583,1604
9.3611,1607
9.3639,1605
9.3667,1612
9.3694,1608
9.3722,1606
9.3750,1610
9.3778,1604
9.3806,1619
9.3833,1619
9.3861,1618
9.3889,1617
9.3917,1613
9.3944,1615
9.3972,1619
9.4000,1627
9.4028,1632
9.4056,1629
9.4083,1626
9.4111,1618
9.4139,1618
9.4167,1624
9.4194,1623
9.4222,1612
9.4250,1614
9.4278,1622
9.4306,1631
9.4333,1650
9.4361,1666
9.4389,1686
9.4417,1715
9.4444,1755
9.4472,1789
9.4500,1797
9.4528,1796
9.4556,1803
9.4583,1804
9.4611,1815
9.4639,1823
9.4667,1846
9.4694,1869
9.4722,1901
9.4750,1931
9.4778,1965
9.4806,1986
9.4833,1997
9.4861,1996
9.4889,1986
9.4917,1966
9.4944,1926
9.4972,1868
9.5000,1808
9.5028,1731
9.5056,1671
9.5083,1628
9.5111,1597
9.5139,1584
9.5167,1572
9.5194,1563
9.5222,1537
9.5250,1528
9.5278,1524
9.5306,1526
9.5333,1522
9.5361,1516
9.5389,1524
9.5417,1522
9.5444,1515
9.5472,1506
9.5500,1501
9.5528,1497
9.5556,1502
9.5583,1499
9.5611,1517
9.5639,1523
9.5667,1543
9.5694,1570
9.5722,1576
9.5750,1576
9.5778,1564
9.5806,1531
9.5833,1499
9.5861,1482
9.5889,1509
9.5917,1616
9.5944,1817
9.5972,2126
9.6000,2515
9.6028,2733
9.6056,2743
9.6083,2652
9.6111,2537
9.6139,2430
9.6167,2221
9.6194,1839
9.6222,1451
9.6250,1211
9.6278,1091
9.6306,1026
9.6333,985
9.6361,936
9.6389,937
9.6417,946
9.6444,980
9.6472,1028
9.6500,1074
9.6528,1144
9.6556,1202
9.6583,1279
9.6611,1367
9.6639,1441
9.6667,1521
9.6694,1596
9.6722,1640
9.6750,1677
9.6778,1693
9.6806,1700
9.6833,1715
9.6861,1734
9.6889,1750
9.6917,1753
9.6944,1760
9.6972,1764
9.7000,1779
9.7028,1781
9.7056,1793
9.7083,1800
9.7111,1806
9.7139,1813
9.7167,1819
9.7194,1822
9.7222,1836
9.7250,1848
9.7278,1856
9.7306,1853
9.7333,1858
9.7361,1864
9.7389,1882
9.7417,1893
9.7444,1895
9.7472,1904
9.7500,1906
9.7528,1906
9.7556,1914
9.7583,1927
9.7611,1939
9.7639,1944
9.7667,1953
9.7694,1972
9.7722,1973
9.7750,1969
9.7778,1968
9.7806,1983
9.7833,1994
9.7861,2006
9.7889,2006
9.7917,2011
9.7944,2024
9.7972,2021
9.8000,2006
9.8028,1998
9.8056,1992
9.8083,1974
9.8111,1947
9.8139,1917
9.8167,1894
9.8194,1869
9.8222,1845
9.8250,1829
9.8278,1802
9.8306,1781
9.8333,1748
9.8361,1718
9.8389,1713
9.8417,1695
9.8444,1678
9.8472,1671
9.8500,1670
9.8528,1671
9.8556,1672
9.8583,1649
9.8611,1652
9.8639,1650
9.8667,1650
9.8694,1640
9.8722,1638
9.8750,1640
9.8778,1647
9.8806,1650
9.8833,1652
9.8861,1660
9.8889,1661
9.8917,1661
9.8944,1661
9.8972,1670
9.9000,1667
9.9028,1684
9.9056,1686
9.9083,1690
9.9111,1682
9.9139,1666
9.9167,1665
9.9194,1674
9.9222,1684
9.9250,1676
9.9278,1678
9.9306,1683
9.9333,1687
9.9361,1686
9.9389,1683
9.9417,1676
9.9444,1678
9.9472,1686
9.9500,1683
9.9528,1686
9.9556,1692
9.9583,1679
9.9611,1667
9.9639,1668
9.9667,1676
9.9694,1674
9.9722,1666
9.9750,1662
9.9778,1651
9.9806,1651
9.9833,1657
9.9861,1659
9.9889,1657
9.9917,1650
9.9944,1645
9.9972,1641
10.0000,1645
10.0028,1635
10.0056,1635
10.0083,1626
10.0111,1627
10.0139,1620
10.0167,1628
10.0194,1636
10.0222,1635
10.0250,1638
10.0278,1626
10.0306,1616
10.0333,1606
10.0361,1609
10.0389,1608
10.0417,1607
10.0444,1612
10.0472,1623
10.0500,1629
10.0528,1627
10.0556,1624
10.0583,1620
10.0611,1620
10.0639,1620
10.0667,1622
10.0694,1625
10.0722,1621
10.0750,1614
10.0778,1612
10.0806,1612
10.0833,1627
10.0861,1639
10.0889,1642
10.0917,1641
10.0944,1642
10.0972,1632
10.1000,1631
10.1028,1635
10.1056,1626
10.1083,1622
10.1111,1623
10.1139,1620
10.1167,1620
10.1194,1630
10.1222,1632
10.1250,1627
10.1278,1639
10.1306,1633
10.1333,1643
10.1361,1645
10.1389,1627
10.1417,1628
10.1444,1635
10.1472,1642
10.1500,1645
10.1528,1645
10.1556,1643
10.1583,1647
10.1611,1645
10.1639,1648
10.1667,1640
10.1694,1639
10.1722,1648
10.1750,1649
10.1778,1649
10.1806,1641
10.1833,1644
10.1861,1647
10.1889,1651
10.1917,1644
10.1944,1644
10.1972,1649
10.2000,1648
10.2028,1651
10.2056,1657
10.2083,1663
10.2111,1654
10.2139,1653
10.2167,1657
10.2194,1658
10.2222,1677
10.2250,1716
10.2278,1744
10.2306,1775
10.2333,1777
10.2361,1777
10.2389,1784
10.2417,1796
10.2444,1797
10.2472,1815
10.2500,1842
10.2528,1871
10.2556,1896
10.2583,1928
10.2611,1954
10.2639,1988
10.2667,2006
10.2694,2010
10.2722,2012
10.2750,2001
10.2778,1983
10.2806,1947
10.2833,1886
10.2861,1809
10.2889,1732
10.2917,1686
10.2944,1642
10.2972,1622
10.3000,1607
10.3028,1600
10.3056,1588
10.3083,1585
10.3111,1569
10.3139,1575
10.3167,1572
10.3194,1563
10.3222,1568
10.3250,1552
10.3278,1556
10.3306,1545
10.3333,1541
10.3361,1533
10.3389,1536
10.3417,1538
10.3444,1548
10.3472,1557
10.3500,1559
10.3528,1569
10.3556,1588
10.3583,1611
10.3611,1623
10.3639,1615
10.3667,1581
10.3694,1546
10.3722,1533
10.3750,1576
10.3778,1679
10.3806,1879
10.3833,2182
10.3861,2565
10.3889,2787
10.3917,2792
10.3944,2714
10.3972,2613
10.4000,2498
10.4028,2263
10.4056,1874
10.4083,1490
10.4111,1251
10.4139,1130
10.4167,1078
10.4194,1049
10.4222,1014
10.4250,1000
10.4278,992
10.4306,1009
10.4333,1044
10.4361,1108
10.4389,1177
10.4417,1242
10.4444,1330
10.4472,1416
10.4500,1495
10.4528,1572
10.4556,1640
10.4583,1687
10.4611,1703
10.4639,1722
10.4667,1728
10.4694,1741
10.4722,1757
10.4750,1765
10.4778,1771
10.4806,1772
10.4833,1788
10.4861,1803
10.4889,1824
10.4917,1833
10.4944,1857
10.4972,1842
10.5000,1840
10.5028,1836
10.5056,1838
10.5083,1842
10.5111,1845
10.5139,1863
10.5167,1878
10.5194,1887
10.5222,1882
10.5250,1899
10.5278,1899
10.5306,1915
10.5333,1927
10.5361,1932
10.5389,1935
10.5417,1937
10.5444,1933
10.5472,1935
10.5500,1952
10.5528,1968
10.5556,1972
10.5583,1976
10.5611,1977
10.5639,1983
10.5667,1984
10.5694,1995
10.5722,2011
10.5750,2015
10.5778,2024
10.5806,2025
10.5833,2025
10.5861,2042
10.5889,2045
10.5917,2056
10.5944,2062
10.5972,2059
10.6000,2060
10.6028,1876
10.6056,1877
10.6083,1855
10.6111,1843
10.6139,1818
10.6167,1800
10.6194,1789
10.6222,1766
10.6250,1746
10.6278,1735
10.6306,1721
10.6333,1699
10.6361,1690
10.6389,1673
10.6417,1659
10.6444,1658
10.6472,1665
10.6500,1669
10.6528,1677
10.6556,1675
10.6583,1677
10.6611,1675
10.6639,1668
10.6667,1672
10.6694,1672
10.6722,1675
10.6750,1670
10.6778,1667
10.6806,1664
10.6833,1674
10.6861,1680
10.6889,1684
10.6917,1694
10.6944,1692
10.6972,1685
10.7000,1683
10.7028,1684
10.7056,1689
10.7083,1691
10.7111,1694
10.7139,1694
10.7167,1690
10.7194,1686
10.7222,1680
10.7250,1684
10.7278,1684
10.7306,1689
10.7333,1683
10.7361,1692
10.7389,1682
10.7417,1680
10.7444,1670
10.7472,1673
10.7500,1677
10.7528,1677
10.7556,1678
10.7583,1671
10.7611,1666
10.7639,1667
10.7667,1657
10.7694,1657
10.7722,1666
10.7750,1657
10.7778,1644
10.7806,1635
10.7833,1637
10.7861,1642
10.7889,1643
10.7917,1644
10.7944,1644
10.7972,1638
10.8000,1634
10.8028,1632
10.8056,1629
10.8083,1631
10.8111,1622
10.8139,1626
10.8167,1626
10.8194,1618
10.8222,1620
10.8250,1620
10.8278,1626
10.8306,1623
10.8333,1620
10.8361,1610
10.8389,1602
10.8417,1598
10.8444,1609
10.8472,1604
10.8500,1609
10.8528,1603
10.8556,1609
10.8583,1614
10.8611,1610
10.8639,1618
10.8667,1622
10.8694,1619
10.8722,1624
10.8750,1621
10.8778,1620
10.8806,1620
10.8833,1619
10.8861,1615
10.8889,1619
10.8917,1611
10.8944,1618
10.8972,1621
10.9000,1622
10.9028,1620
10.9056,1614
10.9083,1617
10.9111,1628
10.9139,1619
10.9167,1621
10.9194,1615
10.9222,1620
10.9250,1627
10.9278,1630
10.9306,1634
10.9333,1636
10.9361,1635
10.9389,1635
10.9417,1628
10.9444,1629
10.9472,1629
10.9500,1623
10.9528,1623
10.9556,1611
10.9583,1624
10.9611,1630
10.9639,1637
10.9667,1629
10.9694,1644
10.9722,1649
10.9750,1636
10.9778,1642
10.9806,1638
10.9833,1643
10.9861,1643
10.9889,1657
10.9917,1667
10.9944,1705
10.9972,1745
11.0000,1770
11.0028,1781
11.0056,1786
11.0083,1788
11.0111,1785
11.0139,1805
11.0167,1820
11.0194,1851
11.0222,1874
11.0250,1913
11.0278,1928
11.0306,1955
11.0333,1973
11.0361,1993
11.0389,2008
11.0417,2004
11.0444,1993
11.0472,1969
11.0500,1933
11.0528,1878
11.0556,1815
11.0583,1725
11.0611,1669
11.0639,1629
11.0667,1607
11.0694,1599
11.0722,1583
11.0750,1568
11.0778,1561
11.0806,1557
11.0833,1558
11.0861,1545
11.0889,1548
11.0917,1542
11.0944,1544
11.0972,1539
11.1000,1533
11.1028,1522
11.1056,1524
11.1083,1519
11.1111,1518
11.1139,1515
11.1167,1527
11.1194,1518
11.1222,1534
11.1250,1549
11.1278,1571
11.1306,1586
11.1333,1565
11.1361,1533
11.1389,1504
11.1417,1492
11.1444,1536
11.1472,1662
11.1500,1879
11.1528,2206
11.1556,2565
11.1583,2754
11.1611,2760
11.1639,2678
11.1667,2568
11.1694,2455
11.1722,2196
11.1750,1780
11.1778,1394
11.1806,1165
11.1833,1066
11.1861,1029
11.1889,994
11.1917,964
11.1944,949
11.1972,955
11.2000,973
11.2028,1024
11.2056,1090
11.2083,1161
11.2111,1230
11.2139,1326
11.2167,1402
11.2194,1488
11.2222,1573
11.2250,1626
11.2278,1658
11.2306,1683
11.2333,1689
11.2361,1700
11.2389,1720
11.2417,1749
11.2444,1762
11.2472,1766
11.2500,1772
11.2528,1785
11.2556,1806
11.2583,1815
11.2611,1833
11.2639,1831
11.2667,1836
11.2694,1815
11.2722,1822
11.2750,1831
11.2778,1848
11.2806,1857
11.2833,1867
11.2861,1881
11.2889,1871
11.2917,1881
11.2944,1886
11.2972,1902
11.3000,1915
11.3028,1917
11.3056,1923
11.3083,1921
11.3111,1927
11.3139,1936
11.3167,1945
11.3194,1955
11.3222,1960
11.3250,1974
11.3278,1978
11.3306,1989
11.3333,1988
11.3361,1990
11.3389,2000
11.3417,2017
11.3444,2015
11.3472,2017
11.3500,2013
11.3528,2024
11.3556,2029
11.3583,2058
11.3611,2060
11.3639,2060
11.3667,2052
11.3694,2054
11.3722,1884
11.3750,1883
11.3778,1869
11.3806,1855
11.3833,1823
11.3861,1811
11.3889,1778
11.3917,1763
11.3944,1748
11.3972,1734
11.4000,1722
11.4028,1714
11.4056,1697
11.4083,1685
11.4111,1676
11.4139,1676
11.4167,1686
11.4194,1683
11.4222,1692
11.4250,1693
11.4278,1676
11.4306,1667
11.4333,1667
11.4361,1665
11.4389,1661
11.4417,1670
11.4444,1671
11.4472,1680
11.4500,1688
11.4528,1683
11.4556,1690
11.4583,1689
11.4611,1702
11.4639,1694
11.4667,1694
11.4694,1702
11.4722,1701
11.4750,1693
11.4778,1708
11.4806,1708
11.4833,1710
11.4861,1693
11.4889,1697
11.4917,1698
11.4944,1703
11.4972,1709
11.5000,1713
11.5028,1704
11.5056,1700
11.5083,1701
11.5111,1695
11.5139,1700
11.5167,1700
11.5194,1698
11.5222,1704
11.5250,1701
11.5278,1702
11.5306,1692
11.5333,1690
11.5361,1674
11.5389,1676
11.5417,1676
11.5444,1677
11.5472,1661
11.5500,1661
11.5528,1659
11.5556,1661
11.5583,1665
11.5611,1672
11.5639,1667
11.5667,1652
11.5694,1653
11.5722,1644
11.5750,1642
11.5778,1641
11.5806,1646
11.5833,1652
11.5861,1652
11.5889,1650
11.5917,1634
11.5944,1645
11.5972,1638
11.6000,1639
11.6028,1630
11.6056,1625
11.6083,1624
11.6111,1632
11.6139,1626
11.6167,1637
11.6194,1626
11.6222,1629
11.6250,1631
11.6278,1630
11.6306,1630
11.6333,1632
11.6361,1634
11.6389,1637
11.6417,1630
11.6444,1634
11.6472,1628
11.6500,1636
11.6528,1634
11.6556,1635
11.6583,1627
11.6611,1627
11.6639,1624
11.6667,1627
11.6694,1636
11.6722,1639
11.6750,1640
11.6778,1639
11.6806,1636
11.6833,1635
11.6861,1632
11.6889,1633
11.6917,1634
11.6944,1639
11.6972,1636
11.7000,1638
11.7028,1647
11.7056,1645
11.7083,1633
11.7111,1630
11.7139,1624
11.7167,1640
11.7194,1647
11.7222,1653
11.7250,1646
11.7278,1656
11.7306,1644
11.7333,1652
11.7361,1659
11.7389,1670
11.7417,1697
11.7444,1727
11.7472,1760
11.7500,1774
11.7528,1785
11.7556,1782
11.7583,1788
11.7611,1800
11.7639,1809
11.7667,1843
11.7694,1863
11.7722,1892
11.7750,1910
11.7778,1939
11.7806,1968
11.7833,1998
11.7861,2017
11.7889,2029
11.7917,2022
11.7944,1999
11.7972,1973
11.8000,1917
11.8028,1854
11.8056,1769
11.8083,1681
11.8111,1636
11.8139,1611
11.8167,1586
11.8194,1573
11.8222,1556
11.8250,1558
11.8278,1548
11.8306,1543
11.8333,1544
11.8361,1534
11.8389,1534
11.8417,1534
11.8444,1521
11.8472,1511
11.8500,1497
11.8528,1495
11.8556,1498
11.8583,1505
11.8611,1501
11.8639,1507
11.8667,1518
11.8694,1519
11.8722,1530
11.8750,1544
11.8778,1552
11.8806,1554
11.8833,1532
11.8861,1489
11.8889,1473
11.8917,1465
11.8944,1537
11.8972,1675
11.9000,1906
11.9028,2254
11.9056,2598
11.9083,2742
11.9111,2733
11.9139,2645
11.9167,2542
11.9194,2409
11.9222,2115
11.9250,1669
11.9278,1301
11.9306,1087
11.9333,997
11.9361,954
11.9389,923
11.9417,894
11.9444,890
11.9472,899
11.9500,931
11.9528,983
11.9556,1054
11.9583,1119
11.9611,1207
11.9639,1298
11.9667,1391
11.9694,1462
11.9722,1549
11.9750,1596
11.9778,1629
11.9806,1640
11.9833,1656
11.9861,1679
11.9889,1693
11.9917,1719
11.9944,1724
11.9972,1734
12.0000,1735
12.0028,1748
12.0056,1748
12.0083,1762
12.0111,1779
12.0139,1782
12.0167,1774
12.0194,1781
12.0222,1797
12.0250,1804
12.0278,1809
12.0306,1827
12.0333,1832
12.0361,1834
12.0389,1837
12.0417,1837
12.0444,1841
12.0472,1847
12.0500,1866
12.0528,1876
12.0556,1872
12.0583,1879
12.0611,1874
12.0639,1881
12.0667,1896
12.0694,1912
12.0722,1921
12.0750,1925
12.0778,1929
12.0806,1933
12.0833,1943
12.0861,1959
12.0889,1964
12.0917,1977
12.0944,1996
12.0972,1999
12.1000,1987
12.1028,1980
12.1056,1991
12.1083,1998
12.1111,2008
12.1139,2014
12.1167,2016
12.1194,2011
12.1222,1801
12.1250,1803
12.1278,1774
12.1306,1758
12.1333,1744
12.1361,1721
12.1389,1703
12.1417,1697
12.1444,1679
12.1472,1658
12.1500,1646
12.1528,1628
12.1556,1617
12.1583,1600
12.1611,1600
12.1639,1599
12.1667,1610
12.1694,1615
12.1722,1622
12.1750,1619
12.1778,1618
12.1806,1625
12.1833,1618
12.1861,1622
12.1889,1628
12.1917,1616
12.1944,1618
12.1972,1616
12.2000,1612
12.2028,1622
12.2056,1631
12.2083,1642
12.2111,1640
12.2139,1650
12.2167,1639
12.2194,1630
12.2222,1636
12.2250,1634
12.2278,1637
12.2306,1629
12.2333,1630
12.2361,1632
12.2389,1631
12.2417,1648
12.2444,1648
12.2472,1654
12.2500,1666
12.2528,1662
12.2556,1655
12.2583,1645
12.2611,1643
12.2639,1626
12.2667,1623
12.2694,1621
12.2722,1624
12.2750,1627
12.2778,1631
12.2806,1628
12.2833,1624
12.2861,1625
12.2889,1630
12.2917,1629
12.2944,1628
12.2972,1616
12.3000,1610
12.3028,1614
12.3056,1613
12.3083,1611
12.3111,1614
12.3139,1612
12.3167,1592
12.3194,1601
12.3222,1591
12.3250,1592
12.3278,1590
12.3306,1598
12.3333,1595
12.3361,1597
12.3389,1597
12.3417,1596
12.3444,1595
12.3472,1584
12.3500,1580
12.3528,1580
12.3556,1570
12.3583,1571
12.3611,1572
12.3639,1572
12.3667,1569
12.3694,1586
12.3722,1588
12.3750,1590
12.3778,1586
12.3806,1573
12.3833,1564
12.3861,1573
12.3889,1582
12.3917,1583
12.3944,1587
12.3972,1572
12.4000,1573
12.4028,1573
12.4056,1578
12.4083,1579
12.4111,1572
12.4139,1578
12.4167,1572
12.4194,1581
12.4222,1581
12.4250,1583
12.4278,1578
12.4306,1575
12.4333,1582
12.4361,1583
12.4389,1590
12.4417,1585
12.4444,1584
12.4472,1592
12.4500,1588
12.4528,1590
12.4556,1583
12.4583,1593
12.4611,1587
12.4639,1585
12.4667,1583
12.4694,1586
12.4722,1598
12.4750,1602
12.4778,1606
12.4806,1607
12.4833,1600
12.4861,1605
12.4889,1598
12.4917,1604
12.4944,1612
12.4972,1631
12.5000,1664
12.5028,1703
12.5056,1722
12.5083,1731
12.5111,1742
12.5139,1743
12.5167,1740
12.5194,1754
12.5222,1779
12.5250,1803
12.5278,1830
12.5306,1860
12.5333,1877
12.5361,1903
12.5389,1941
12.5417,1956
12.5444,1963
12.5472,1953
12.5500,1936
12.5528,1916
12.5556,1868
12.5583,1794
12.5611,1718
12.5639,1636
12.5667,1603
12.5694,1576
12.5722,1558
12.5750,1550
12.5778,1533
12.5806,1524
12.5833,1510
12.5861,1519
12.5889,1502
12.5917,1504
12.5944,1499
12.5972,1495
12.6000,1484
12.6028,1481
12.6056,1486
12.6083,1499
12.6111,1494
12.6139,1482
12.6167,1488
12.6194,1485
12.6222,1482
12.6250,1484
12.6278,1498
12.6306,1522
12.6333,1532
12.6361,1542
12.6389,1538
12.6417,1514
12.6444,1494
12.6472,1486
12.6500,1529
12.6528,1660
12.6556,1873
12.6583,2210
12.6611,2548
12.6639,2691
12.6667,2686
12.6694,2610
12.6722,2530
12.6750,2423
12.6778,2153
12.6806,1744
12.6833,1386
12.6861,1165
12.6889,1054
12.6917,999
12.6944,954
12.6972,919
12.7000,907
12.7028,926
12.7056,966
12.7083,1027
12.7111,1098
12.7139,1160
12.7167,1216
12.7194,1293
12.7222,1375
12.7250,1461
12.7278,1526
12.7306,1590
12.7333,1619
12.7361,1641
12.7389,1649
12.7417,1665
12.7444,1671
12.7472,1688
12.7500,1701
12.7528,1701
12.7556,1698
12.7583,1691
12.7611,1715
12.7639,1732
12.7667,1741
12.7694,1746
12.7722,1740
12.7750,1745
12.7778,1756
12.7806,1764
12.7833,1769
12.7861,1779
12.7889,1795
12.7917,1799
12.7944,1795
12.7972,1802
12.8000,1808
12.8028,1821
12.8056,1842
12.8083,1861
12.8111,1863
12.8139,1861
12.8167,1857
12.8194,1846
12.8222,1850
12.8250,1858
12.8278,1863
12.8306,1876
12.8333,1890
12.8361,1898
12.8389,1900
12.8417,1920
12.8444,1935
12.8472,1944
12.8500,1947
12.8528,1951
12.8556,1944
12.8583,1944
12.8611,1940
12.8639,1957
12.8667,1948
12.8694,1964
12.8722,1974
12.8750,1969
12.8778,1791
12.8806,1791
12.8833,1767
12.8861,1756
12.8889,1741
12.8917,1731
12.8944,1698
12.8972,1675
12.9000,1662
12.9028,1651
12.9056,1643
12.9083,1627
12.9111,1606
12.9139,1592
12.9167,1597
12.9194,1606
12.9222,1595
12.9250,1594
12.9278,1600
12.9306,1596
12.9333,1598
12.9361,1594
12.9389,1618
12.9417,1635
12.9444,1639
12.9472,1639
12.9500,1619
12.9528,1609
12.9556,1596
12.9583,1603
12.9611,1613
12.9639,1621
12.9667,1628
12.9694,1631
12.9722,1622
12.9750,1613
12.9778,1623
12.9806,1634
12.9833,1640
12.9861,1651
12.9889,1651
12.9917,1652
12.9944,1652
12.9972,1642
13.0000,1642
13.0028,1647
13.0056,1646
13.0083,1646
13.0111,1632
13.0139,1636
13.0167,1649
13.0194,1653
13.0222,1656
13.0250,1661
13.0278,1659
13.0306,1661
13.0333,1652
13.0361,1650
13.0389,1641
13.0417,1642
13.0444,1637
13.0472,1634
13.0500,1630
13.0528,1626
13.0556,1628
13.0583,1627
13.0611,1630
13.0639,1619
13.0667,1613
13.0694,1608
13.0722,1606
13.0750,1606
13.0778,1601
13.0806,1595
13.0833,1592
13.0861,1593
13.0889,1587
13.0917,1596
13.0944,1603
13.0972,1598
13.1000,1594
13.1028,1587
13.1056,1593
13.1083,1587
13.1111,1589
13.1139,1590
13.1167,1597
13.1194,1593
13.1222,1594
13.1250,1595
13.1278,1601
13.1306,1601
13.1333,1588
13.1361,1596
13.1389,1594
13.1417,1600
13.1444,1597
13.1472,1592
13.1500,1583
13.1528,1583
13.1556,1588
13.1583,1589
13.1611,1590
13.1639,1595
13.1667,1599
13.1694,1600
13.1722,1598
13.1750,1600
13.1778,1601
13.1806,1600
13.1833,1607
13.1861,1606
13.1889,1602
13.1917,1592
13.1944,1595
13.1972,1588
13.2000,1590
13.2028,1586
13.2056,1598
13.2083,1604
13.2111,1612
13.2139,1610
13.2167,1601
13.2194,1603
13.2222,1591
13.2250,1593
13.2278,1594
13.2306,1597
13.2333,1599
13.2361,1630
13.2389,1656
13.2417,1678
13.2444,1699
13.2472,1709
13.2500,1716
13.2528,1726
13.2556,1738
13.2583,1763
13.2611,1783
13.2639,1803
13.2667,1819
13.2694,1844
13.2722,1859
13.2750,1892
13.2778,1913
13.2806,1924
13.2833,1946
13.2861,1945
13.2889,1937
13.2917,1906
13.2944,1851
13.2972,1779
13.3000,1707
13.3028,1647
13.3056,1605
13.3083,1581
13.3111,1566
13.3139,1556
13.3167,1550
13.3194,1533
13.3222,1509
13.3250,1516
13.3278,1519
13.3306,1520
13.3333,1508
13.3361,1503
13.3389,1493
13.3417,1492
13.3444,1485
13.3472,1490
13.3500,1494
13.3528,1505
13.3556,1517
13.3583,1520
13.3611,1526
13.3639,1519
13.3667,1527
13.3694,1538
13.3722,1562
13.3750,1573
13.3778,1572
13.3806,1555
13.3833,1518
13.3861,1485
13.3889,1517
13.3917,1592
13.3944,1770
13.3972,2062
13.4000,2376
13.4028,2516
13.4056,2510
13.4083,2452
13.4111,2406
13.4139,2359
13.4167,2214
13.4194,1937
13.4222,1669
13.4250,1485
13.4278,1360
13.4306,1269
13.4333,1179
13.4361,1079
13.4389,1013
13.4417,986
13.4444,999
13.4472,1038
13.4500,1097
13.4528,1158
13.4556,1206
13.4583,1269
13.4611,1340
13.4639,1407
13.4667,1476
13.4694,1544
13.4722,1594
13.4750,1630
13.4778,1657
13.4806,1682
13.4833,1699
13.4861,1720
13.4889,1725
13.4917,1729
13.4944,1735
13.4972,1746
13.5000,1761
13.5028,1779
13.5056,1795
13.5083,1800
13.5111,1810
13.5139,1808
13.5167,1815
13.5194,1806
13.5222,1809
13.5250,1813
13.5278,1827
13.5306,1846
13.5333,1864
13.5361,1867
13.5389,1867
13.5417,1876
13.5444,1883
13.5472,1890
13.5500,1889
13.5528,1900
13.5556,1897
13.5583,1902
13.5611,1917
13.5639,1922
13.5667,1937
13.5694,1945
13.5722,1943
13.5750,1955
13.5778,1963
13.5806,1971
13.5833,1991
13.5861,2005
13.5889,2011
13.5917,2016
13.5944,2033
13.5972,2026
13.6000,2013
13.6028,1994
13.6056,1979
13.6083,1973
13.6111,1929
13.6139,1904
13.6167,1869
13.6194,1838
13.6222,1834
13.6250,1802
13.6278,1780
13.6306,1762
13.6333,1739
13.6361,1716
13.6389,1700
13.6417,1690
13.6444,1693
13.6472,1691
13.6500,1681
13.6528,1664
13.6556,1654
13.6583,1647
13.6611,1655
13.6639,1655
13.6667,1656
13.6694,1654
13.6722,1654
13.6750,1644
13.6778,1636
13.6806,1651
13.6833,1661
13.6861,1668
13.6889,1682
13.6917,1679
13.6944,1662
13.6972,1662
13.7000,1657
13.7028,1669
13.7056,1673
13.7083,1680
13.7111,1687
13.7139,1684
13.7167,1687
13.7194,1689
13.7222,1685
13.7250,1683
13.7278,1699
13.7306,1704
13.7333,1716
13.7361,1706
13.7389,1696
13.7417,1707
13.7444,1714
13.7472,1722
13.7500,1719
13.7528,1712
13.7556,1712
13.7583,1702
13.7611,1700
13.7639,1714
13.7667,1713
13.7694,1711
13.7722,1712
13.7750,1703
13.7778,1704
13.7806,1710
13.7833,1706
13.7861,1708
13.7889,1699
13.7917,1695
13.7944,1688
13.7972,1684
13.8000,1679
13.8028,1670
13.8056,1674
13.8083,1679
13.8111,1687
13.8139,1692
13.8167,1685
13.8194,1672
13.8222,1671
13.8250,1670
13.8278,1672
13.8306,1670
13.8333,1672
13.8361,1671
13.8389,1667
13.8417,1666
13.8444,1669
13.8472,1675
13.8500,1665
13.8528,1654
13.8556,1653
13.8583,1648
13.8611,1644
13.8639,1647
13.8667,1657
13.8694,1664
13.8722,1654
13.8750,1667
13.8778,1660
13.8806,1657
13.8833,1658
13.8861,1655
13.8889,1654
13.8917,1643
13.8944,1641
13.8972,1641
13.9000,1648
13.9028,1657
13.9056,1667
13.9083,1668
13.9111,1662
13.9139,1664
13.9167,1646
13.9194,1647
13.9222,1648
13.9250,1642
13.9278,1648
13.9306,1643
13.9333,1643
13.9361,1641
13.9389,1640
13.9417,1644
13.9444,1642
13.9472,1641
13.9500,1642
13.9528,1647
13.9556,1656
13.9583,1662
13.9611,1663
13.9639,1664
13.9667,1665
13.9694,1659
13.9722,1663
13.9750,1654
13.9778,1657
13.9806,1655
13.9833,1662
13.9861,1666
13.9889,1694
13.9917,1727
13.9944,1752
13.9972,1758
14.0000,1768
14.0028,1780
14.0056,1797
14.0083,1800
14.0111,1807
14.0139,1814
14.0167,1843
14.0194,1863
14.0222,1894
14.0250,1917
14.0278,1953
14.0306,1976
14.0333,1995
14.0361,2008
14.0389,2012
14.0417,1990
14.0444,1956
14.0472,1905
14.0500,1831
14.0528,1758
14.0556,1693
14.0583,1650
14.0611,1623
14.0639,1606
14.0667,1599
14.0694,1589
14.0722,1571
14.0750,1564
14.0778,1557
14.0806,1557
14.0833,1562
14.0861,1568
14.0889,1567
14.0917,1551
14.0944,1543
14.0972,1528
14.1000,1527
14.1028,1534
14.1056,1534
14.1083,1539
14.1111,1551
14.1139,1553
14.1167,1566
14.1194,1574
14.1222,1589
14.1250,1604
14.1278,1618
14.1306,1615
14.1333,1593
14.1361,1566
14.1389,1540
14.1417,1556
14.1444,1633
14.1472,1794
14.1500,2059
14.1528,2388
14.1556,2594
14.1583,2615
14.1611,2570
14.1639,2514
14.1667,2467
14.1694,2348
14.1722,2044
14.1750,1686
14.1778,1420
14.1806,1282
14.1833,1201
14.1861,1137
14.1889,1043
14.1917,996
14.1944,982
14.1972,1004
14.2000,1069
14.2028,1127
14.2056,1178
14.2083,1242
14.2111,1307
14.2139,1384
14.2167,1472
14.2194,1552
14.2222,1613
14.2250,1652
14.2278,1681
14.2306,1702
14.2333,1718
14.2361,1735
14.2389,1744
14.2417,1756
14.2444,1766
14.2472,1775
14.2500,1774
14.2528,1785
14.2556,1803
14.2583,1818
14.2611,1832
14.2639,1840
14.2667,1831
14.2694,1827
14.2722,1826
14.2750,1824
14.2778,1839
14.2806,1862
14.2833,1873
14.2861,1874
14.2889,1867
14.2917,1874
14.2944,1884
14.2972,1902
14.3000,1912
14.3028,1909
14.3056,1902
14.3083,1907
14.3111,1912
14.3139,1917
14.3167,1942
14.3194,1956
14.3222,1955
14.3250,1962
14.3278,1977
14.3306,1972
14.3333,1979
14.3361,2000
14.3389,2023
14.3417,2030
14.3444,2042
14.3472,2038
14.3500,2037
14.3528,2041
14.3556,2045
14.3583,2061
14.3611,2067
14.3639,2061
14.3667,2060
14.3694,2047
14.3722,1853
14.3750,1855
14.3778,1835
14.3806,1818
14.3833,1796
14.3861,1769
14.3889,1735
14.3917,1723
14.3944,1709
14.3972,1705
14.4000,1681
14.4028,1678
14.4056,1659
14.4083,1654
14.4111,1648
14.4139,1649
14.4167,1649
14.4194,1636
14.4222,1625
14.4250,1625
14.4278,1631
14.4306,1635
14.4333,1655
14.4361,1656
14.4389,1647
14.4417,1642
14.4444,1626
14.4472,1622
14.4500,1612
14.4528,1614
14.4556,1611
14.4583,1606
14.4611,1613
14.4639,1612
14.4667,1607
14.4694,1607
14.4722,1610
14.4750,1609
14.4778,1614
14.4806,1614
14.4833,1616
14.4861,1608
14.4889,1602
14.4917,1603
14.4944,1614
14.4972,1617
14.5000,1632
14.5028,1626
14.5056,1613
14.5083,1613
14.5111,1603
14.5139,1611
14.5167,1624
14.5194,1617
14.5222,1613
14.5250,1600
14.5278,1600
14.5306,1609
14.5333,1610
14.5361,1611
14.5389,1607
14.5417,1607
14.5444,1603
14.5472,1593
14.5500,1592
14.5528,1587
14.5556,1582
14.5583,1590
14.5611,1590
14.5639,1590
14.5667,1576
14.5694,1584
14.5722,1576
14.5750,1574
14.5778,1565
14.5806,1579
14.5833,1583
14.5861,1583
14.5889,1578
14.5917,1571
14.5944,1568
14.5972,1562
14.6000,1566
14.6028,1557
14.6056,1554
14.6083,1553
14.6111,1551
14.6139,1564
14.6167,1573
14.6194,1562
14.6222,1565
14.6250,1556
14.6278,1552
14.6306,1554
14.6333,1561
14.6361,1556
14.6389,1556
14.6417,1559
14.6444,1551
14.6472,1557
14.6500,1556
14.6528,1562
14.6556,1559
14.6583,1571
14.6611,1571
14.6639,1568
14.6667,1572
14.6694,1582
14.6722,1575
14.6750,1572
14.6778,1581
14.6806,1581
14.6833,1573
14.6861,1576
14.6889,1573
14.6917,1584
14.6944,1589
14.6972,1580
14.7000,1587
14.7028,1591
14.7056,1590
14.7083,1588
14.7111,1589
14.7139,1592
14.7167,1590
14.7194,1590
14.7222,1594
14.7250,1596
14.7278,1602
14.7306,1599
14.7333,1600
14.7361,1598
14.7389,1604
14.7417,1595
14.7444,1598
14.7472,1597
14.7500,1593
14.7528,1596
14.7556,1606
14.7583,1608
14.7611,1608
14.7639,1610
14.7667,1613
14.7694,1610
14.7722,1617
14.7750,1622
14.7778,1616
14.7806,1618
14.7833,1624
14.7861,1626
14.7889,1622
14.7917,1621
14.7944,1623
14.7972,1630
14.8000,1625
14.8028,1629
14.8056,1632
14.8083,1640
14.8111,1646
14.8139,1638
14.8167,1634
14.8194,1635
14.8222,1633
14.8250,1638
14.8278,1636
14.8306,1635
14.8333,1643
14.8361,1645
14.8389,1663
14.8417,1665
14.8444,1659
14.8472,1661
14.8500,1662
14.8528,1675
14.8556,1671
14.8583,1668
14.8611,1660
14.8639,1654
14.8667,1656
14.8694,1650
14.8722,1653
14.8750,1665
14.8778,1670
14.8806,1669
14.8833,1663
14.8861,1664
14.8889,1669
14.8917,1669
14.8944,1675
14.8972,1670
14.9000,1676
14.9028,1670
14.9056,1685
14.9083,1709
14.9111,1735
14.9139,1758
14.9167,1782
14.9194,1792
14.9222,1815
14.9250,1833
14.9278,1830
14.9306,1833
14.9333,1835
14.9361,1850
14.9389,1889
14.9417,1918
14.9444,1942
14.9472,1968
14.9500,1963
14.9528,1963
14.9556,1959
14.9583,1936
14.9611,1903
14.9639,1854
14.9667,1787
14.9694,1729
14.9722,1693
14.9750,1660
14.9778,1644
14.9806,1637
14.9833,1617
14.9861,1605
14.9889,1590
14.9917,1587
14.9944,1584
14.9972,1579
15.0000,1581
15.0028,1568
15.0056,1560
15.0083,1555
15.0111,1558
15.0139,1557
15.0167,1551
15.0194,1548
15.0222,1555
15.0250,1555
15.0278,1561
15.0306,1568
15.0333,1582
15.0361,1580
15.0389,1584
15.0417,1613
15.0444,1637
15.0472,1642
15.0500,1623
15.0528,1593
15.0556,1564
15.0583,1564
15.0611,1633
15.0639,1808
15.0667,2096
15.0694,2448
15.0722,2653
15.0750,2690
15.0778,2642
15.0806,2589
15.0833,2534
15.0861,2414
15.0889,2090
15.0917,1677
15.0944,1367
15.0972,1206
15.1000,1125
15.1028,1079
15.1056,1044
15.1083,1027
15.1111,1033
15.1139,1064
15.1167,1105
15.1194,1163
15.1222,1208
15.1250,1262
15.1278,1317
15.1306,1400
15.1333,1488
15.1361,1566
15.1389,1624
15.1417,1664
15.1444,1694
15.1472,1715
15.1500,1727
15.1528,1750
15.1556,1765
15.1583,1789
15.1611,1796
15.1639,1789
15.1667,1786
15.1694,1786
15.1722,1808
15.1750,1810
15.1778,1819
15.1806,1830
15.1833,1822
15.1861,1830
15.1889,1824
15.1917,1846
15.1944,1859
15.1972,1875
15.2000,1882
15.2028,1877
15.2056,1870
15.2083,1866
15.2111,1876
15.2139,1890
15.2167,1893
15.2194,1897
15.2222,1892
15.2250,1886
15.2278,1898
15.2306,1913
15.2333,1913
15.2361,1935
15.2389,1937
15.2417,1942
15.2444,1943
15.2472,1941
15.2500,1946
15.2528,1960
15.2556,1981
15.2583,1983
15.2611,1982
15.2639,1979
15.2667,1979
15.2694,1989
15.2722,1998
15.2750,2020
15.2778,2026
15.2806,2031
15.2833,2026
15.2861,2018
15.2889,1796
15.2917,1800
15.2944,1783
15.2972,1765
15.3000,1741
15.3028,1723
15.3056,1699
15.3083,1684
15.3111,1686
15.3139,1669
15.3167,1656
15.3194,1637
15.3222,1620
15.3250,1601
15.3278,1591
15.3306,1590
15.3333,1589
15.3361,1592
15.3389,1576
15.3417,1582
15.3444,1572
15.3472,1572
15.3500,1582
15.3528,1580
15.3556,1588
15.3583,1588
15.3611,1579
15.3639,1564
15.3667,1561
15.3694,1567
15.3722,1578
15.3750,1593
15.3778,1609
15.3806,1600
15.3833,1600
15.3861,1597
15.3889,1597
15.3917,1606
15.3944,1619
15.3972,1625
15.4000,1622
15.4028,1615
15.4056,1617
15.4083,1618
15.4111,1622
15.4139,1631
15.4167,1639
15.4194,1634
15.4222,1627
15.4250,1626
15.4278,1627
15.4306,1632
15.4333,1631
15.4361,1637
15.4389,1635
15.4417,1624
15.4444,1628
15.4472,1628
15.4500,1647
15.4528,1649
15.4556,1652
15.4583,1647
15.4611,1634
15.4639,1621
15.4667,1619
15.4694,1624
15.4722,1634
15.4750,1629
15.4778,1640
15.4806,1633
15.4833,1620
15.4861,1621
15.4889,1622
15.4917,1622
15.4944,1621
15.4972,1619
15.5000,1602
15.5028,1608
15.5056,1604
15.5083,1615
15.5111,1624
15.5139,1627
15.5167,1634
15.5194,1621
15.5222,1605
15.5250,1607
15.5278,1606
15.5306,1606
15.5333,1608
15.5361,1607
15.5389,1612
15.5417,1616
15.5444,1613
15.5472,1612
15.5500,1618
15.5528,1604
15.5556,1611
15.5583,1603
15.5611,1590
15.5639,1594
15.5667,1594
15.5694,1597
15.5722,1617
15.5750,1620
15.5778,1622
15.5806,1623
15.5833,1614
15.5861,1613
15.5889,1610
15.5917,1606
15.5944,1614
15.5972,1620
15.6000,1621
15.6028,1605
15.6056,1613
15.6083,1612
15.6111,1609
15.6139,1623
15.6167,1626
15.6194,1625
15.6222,1615
15.6250,1615
15.6278,1618
15.6306,1626
15.6333,1626
15.6361,1638
15.6389,1632
15.6417,1617
15.6444,1625
15.6472,1618
15.6500,1634
15.6528,1645
15.6556,1646
15.6583,1643
15.6611,1640
15.6639,1627
15.6667,1627
15.6694,1624
15.6722,1630
15.6750,1636
15.6778,1643
15.6806,1657
15.6833,1653
15.6861,1657
15.6889,1658
15.6917,1649
15.6944,1643
15.6972,1645
15.7000,1653
15.7028,1657
15.7056,1658
15.7083,1664
15.7111,1657
15.7139,1668
15.7167,1661
15.7194,1666
15.7222,1665
15.7250,1667
15.7278,1672
15.7306,1675
15.7333,1666
15.7361,1675
15.7389,1680
15.7417,1697
15.7444,1690
15.7472,1699
15.7500,1694
15.7528,1691
15.7556,1692
15.7583,1691
15.7611,1688
15.7639,1688
15.7667,1696
15.7694,1690
15.7722,1695
15.7750,1699
15.7778,1697
15.7806,1704
15.7833,1711
15.7861,1706
15.7889,1698
15.7917,1708
15.7944,1696
15.7972,1704
15.8000,1696
15.8028,1695
15.8056,1695
15.8083,1701
15.8111,1693
15.8139,1700
15.8167,1709
15.8194,1703
15.8222,1693
15.8250,1692
15.8278,1679
15.8306,1683
15.8333,1692
15.8361,1701
15.8389,1708
15.8417,1703
15.8444,1697
15.8472,1696
15.8500,1697
15.8528,1679
15.8556,1674
15.8583,1682
15.8611,1687
15.8639,1697
15.8667,1690
15.8694,1703
15.8722,1702
15.8750,1698
15.8778,1706
15.8806,1702
15.8833,1702
15.8861,1703
15.8889,1705
15.8917,1727
15.8944,1740
15.8972,1765
15.9000,1798
15.9028,1809
15.9056,1829
15.9083,1864
15.9111,1879
15.9139,1897
15.9167,1888
15.9194,1895
15.9222,1901
15.9250,1927
15.9278,1955
15.9306,1987
15.9333,2003
15.9361,2005
15.9389,1994
15.9417,1982
15.9444,1968
15.9472,1943
15.9500,1896
15.9528,1833
15.9556,1771
15.9583,1717
15.9611,1691
15.9639,1673
15.9667,1656
15.9694,1648
15.9722,1647
15.9750,1638
15.9778,1623
15.9806,1619
15.9833,1605
15.9861,1603
15.9889,1595
15.9917,1593
15.9944,1597
15.9972,1598
16.0000,1597
16.0028,1595
16.0056,1584
16.0083,1578
16.0111,1575
16.0139,1583
16.0167,1596
16.0194,1594
16.0222,1616
16.0250,1624
16.0278,1649
16.0306,1669
16.0333,1664
16.0361,1645
16.0389,1600
16.0417,1573
16.0444,1591
16.0472,1691
16.0500,1898
16.0528,2202
16.0556,2557
16.0583,2742
16.0611,2760
16.0639,2704
16.0667,2619
16.0694,2544
16.0722,2375
16.0750,2022
16.0778,1584
16.0806,1274
16.0833,1123
16.0861,1075
16.0889,1034
16.0917,1006
16.0944,1004
16.0972,1010
16.1000,1040
16.1028,1073
16.1056,1115
16.1083,1165
16.1111,1224
16.1139,1304
16.1167,1395
16.1194,1487
16.1222,1570
16.1250,1624
16.1278,1668
16.1306,1684
16.1333,1696
16.1361,1709
16.1389,1720
16.1417,1741
16.1444,1756
16.1472,1769
16.1500,1771
16.1528,1778
16.1556,1791
16.1583,1799
16.1611,1823
16.1639,1837
16.1667,1842
16.1694,1840
16.1722,1840
16.1750,1843
16.1778,1859
16.1806,1881
16.1833,1888
16.1861,1889
16.1889,1888
16.1917,1878
16.1944,1883
16.1972,1900
16.2000,1916
16.2028,1930
16.2056,1933
16.2083,1938
16.2111,1940
16.2139,1944
16.2167,1956
16.2194,1973
16.2222,1976
16.2250,1994
16.2278,1992
16.2306,1998
16.2333,2001
16.2361,2009
16.2389,2026
16.2417,2043
16.2444,2061
16.2472,2073
16.2500,2091
16.2528,2071
16.2556,2064
16.2583,2053
16.2611,2038
16.2639,2013
16.2667,1988
16.2694,1950
16.2722,1914
16.2750,1878
16.2778,1854
16.2806,1831
16.2833,1820
16.2861,1781
16.2889,1752
16.2917,1711
16.2944,1693
16.2972,1687
16.3000,1683
16.3028,1678
16.3056,1664
16.3083,1637
16.3111,1623
16.3139,1609
16.3167,1604
16.3194,1598
16.3222,1610
16.3250,1609
16.3278,1594
16.3306,1592
16.3333,1583
16.3361,1591
16.3389,1595
16.3417,1609
16.3444,1606
16.3472,1597
16.3500,1588
16.3528,1583
16.3556,1592
16.3583,1594
16.3611,1600
16.3639,1615
16.3667,1621
16.3694,1617
16.3722,1614
16.3750,1615
16.3778,1617
16.3806,1620
16.3833,1634
16.3861,1635
16.3889,1636
16.3917,1638
16.3944,1643
16.3972,1647
16.4000,1648
16.4028,1658
16.4056,1663
16.4083,1662
16.4111,1649
16.4139,1647
16.4167,1654
16.4194,1653
16.4222,1664
16.4250,1667
16.4278,1659
16.4306,1663
16.4333,1655
16.4361,1660
16.4389,1667
16.4417,1670
16.4444,1679
16.4472,1678
16.4500,1663
16.4528,1661
16.4556,1664
16.4583,1666
16.4611,1670
16.4639,1677
16.4667,1675
16.4694,1661
16.4722,1661
16.4750,1643
16.4778,1651
16.4806,1651
16.4833,1655
16.4861,1654
16.4889,1651
16.4917,1649
16.4944,1641
16.4972,1643
16.5000,1641
16.5028,1646
16.5056,1645
16.5083,1638
16.5111,1624
16.5139,1623
16.5167,1621
16.5194,1625
16.5222,1632
16.5250,1627
16.5278,1618
16.5306,1617
16.5333,1615
16.5361,1617
16.5389,1610
16.5417,1613
16.5444,1621
16.5472,1611
16.5500,1603
16.5528,1612
16.5556,1604
16.5583,1602
16.5611,1597
16.5639,1603
16.5667,1608
16.5694,1611
16.5722,1623
16.5750,1615
16.5778,1615
16.5806,1624
16.5833,1620
16.5861,1617
16.5889,1613
16.5917,1613
16.5944,1613
16.5972,1607
16.6000,1614
16.6028,1614
16.6056,1613
16.6083,1596
16.6111,1599
16.6139,1598
16.6167,1602
16.6194,1600
16.6222,1605
16.6250,1608
16.6278,1599
16.6306,1602
16.6333,1607
16.6361,1623
16.6389,1622
16.6417,1620
16.6444,1621
16.6472,1610
16.6500,1605
16.6528,1601
16.6556,1610
16.6583,1611
16.6611,1615
16.6639,1621
16.6667,1618
16.6694,1617
16.6722,1619
16.6750,1618
16.6778,1627
16.6806,1617
16.6833,1620
16.6861,1622
16.6889,1621
16.6917,1608
16.6944,1611
16.6972,1618
16.7000,1632
16.7028,1632
16.7056,1636
16.7083,1626
16.7111,1628
16.7139,1636
16.7167,1634
16.7194,1634
16.7222,1624
16.7250,1625
16.7278,1631
16.7306,1630
16.7333,1633
16.7361,1636
16.7389,1637
16.7417,1636
16.7444,1635
16.7472,1637
16.7500,1633
16.7528,1636
16.7556,1639
16.7583,1633
16.7611,1625
16.7639,1630
16.7667,1630
16.7694,1643
16.7722,1649
16.7750,1652
16.7778,1645
16.7806,1633
16.7833,1643
16.7861,1640
16.7889,1642
16.7917,1640
16.7944,1636
16.7972,1641
16.8000,1655
16.8028,1653
16.8056,1657
16.8083,1648
16.8111,1636
16.8139,1633
16.8167,1631
16.8194,1644
16.8222,1640
16.8250,1644
16.8278,1642
16.8306,1636
16.8333,1643
16.8361,1651
16.8389,1657
16.8417,1666
16.8444,1656
16.8472,1652
16.8500,1650
16.8528,1654
16.8556,1666
16.8583,1668
16.8611,1669
16.8639,1661
16.8667,1657
16.8694,1660
16.8722,1670
16.8750,1666
16.8778,1671
16.8806,1677
16.8833,1687
16.8861,1693
16.8889,1704
16.8917,1736
16.8944,1751
16.8972,1771
16.9000,1792
16.9028,1812
16.9056,1829
16.9083,1836
16.9111,1841
16.9139,1842
16.9167,1862
16.9194,1886
16.9222,1912
16.9250,1948
16.9278,1965
16.9306,1983
16.9333,1990
16.9361,1976
16.9389,1962
16.9417,1938
16.9444,1906
16.9472,1835
16.9500,1784
16.9528,1735
16.9556,1690
16.9583,1667
16.9611,1645
16.9639,1634
16.9667,1626
16.9694,1623
16.9722,1609
16.9750,1590
16.9778,1586
16.9806,1582
16.9833,1584
16.9861,1591
16.9889,1591
16.9917,1580
16.9944,1574
16.9972,1568
17.0000,1567
17.0028,1568
17.0056,1564
17.0083,1563
17.0111,1567
17.0139,1571
17.0167,1580
17.0194,1586
17.0222,1616
17.0250,1632
17.0278,1638
17.0306,1614
17.0333,1571
17.0361,1542
17.0389,1532
17.0417,1575
17.0444,1732
17.0472,1993
17.0500,2360
17.0528,2655
17.0556,2738
17.0583,2711
17.0611,2620
17.0639,2540
17.0667,2454
17.0694,2203
17.0722,1779
17.0750,1407
17.0778,1189
17.0806,1094
17.0833,1046
17.0861,1032
17.0889,1018
17.0917,1018
17.0944,1031
17.0972,1063
17.1000,1098
17.1028,1152
17.1056,1198
17.1083,1271
17.1111,1346
17.1139,1440
17.1167,1537
17.1194,1609
17.1222,1659
17.1250,1684
17.1278,1692
17.1306,1706
17.1333,1730
17.1361,1764
17.1389,1781
17.1417,1783
17.1444,1781
17.1472,1788
17.1500,1788
17.1528,1803
17.1556,1825
17.1583,1838
17.1611,1840
17.1639,1839
17.1667,1841
17.1694,1835
17.1722,1847
17.1750,1859
17.1778,1875
17.1806,1881
17.1833,1889
17.1861,1881
17.1889,1877
17.1917,1868
17.1944,1887
17.1972,1907
17.2000,1924
17.2028,1937
17.2056,1931
17.2083,1930
17.2111,1931
17.2139,1947
17.2167,1972
17.2194,1983
17.2222,1990
17.2250,1990
17.2278,1983
17.2306,1999
17.2333,2015
17.2361,2037
17.2389,2050
17.2417,2066
17.2444,2065
17.2472,2069
17.2500,2072
17.2528,2084
17.2556,2098
17.2583,2115
17.2611,2121
17.2639,2127
17.2667,2120
17.2694,1861
17.2722,1861
17.2750,1844
17.2778,1819
17.2806,1787
17.2833,1765
17.2861,1741
17.2889,1717
17.2917,1701
17.2944,1688
17.2972,1676
17.3000,1655
17.3028,1628
17.3056,1612
17.3083,1605
17.3111,1599
17.3139,1598
17.3167,1598
17.3194,1598
17.3222,1582
17.3250,1573
17.3278,1577
17.3306,1583
17.3333,1582
17.3361,1582
17.3389,1581
17.3417,1580
17.3444,1577
17.3472,1578
17.3500,1589
17.3528,1581
17.3556,1594
17.3583,1598
17.3611,1600
17.3639,1589
17.3667,1591
17.3694,1588
17.3722,1601
17.3750,1619
17.3778,1622
17.3806,1626
17.3833,1633
17.3861,1627
17.3889,1620
17.3917,1620
17.3944,1624
17.3972,1632
17.4000,1626
17.4028,1625
17.4056,1614
17.4083,1618
17.4111,1638
17.4139,1648
17.4167,1646
17.4194,1657
17.4222,1649
17.4250,1649
17.4278,1630
17.4306,1638
17.4333,1640
17.4361,1648
17.4389,1650
17.4417,1650
17.4444,1641
17.4472,1644
17.4500,1648
17.4528,1650
17.4556,1641
17.4583,1634
17.4611,1632
17.4639,1624
17.4667,1625
17.4694,1632
17.4722,1637
17.4750,1636
17.4778,1641
17.4806,1627
17.4833,1624
17.4861,1613
17.4889,1605
17.4917,1604
17.4944,1595
17.4972,1593
17.5000,1594
17.5028,1604
17.5056,1603
17.5083,1609
17.5111,1608
17.5139,1606
17.5167,1599
17.5194,1607
17.5222,1604
17.5250,1605
17.5278,1593
17.5306,1603
17.5333,1593
17.5361,1586
17.5389,1577
17.5417,1588
17.5444,1593
17.5472,1599
17.5500,1608
17.5528,1599
17.5556,1595
17.5583,1584
17.5611,1575
17.5639,1578
17.5667,1581
17.5694,1588
17.5722,1589
17.5750,1582
17.5778,1575
17.5806,1575
17.5833,1569
17.5861,1572
17.5889,1570
17.5917,1581
17.5944,1584
17.5972,1582
17.6000,1579
17.6028,1580
17.6056,1579
17.6083,1566
17.6111,1574
17.6139,1597
17.6167,1606
17.6194,1608
17.6222,1608
17.6250,1599
17.6278,1580
17.6306,1558
17.6333,1557
17.6361,1556
17.6389,1559
17.6417,1564
17.6444,1578
17.6472,1578
17.6500,1589
17.6528,1584
17.6556,1579
17.6583,1563
17.6611,1551
17.6639,1533
17.6667,1539
17.6694,1545
17.6722,1544
17.6750,1554
17.6778,1566
17.6806,1565
17.6833,1561
17.6861,1550
17.6889,1543
17.6917,1533
17.6944,1528
17.6972,1524
17.7000,1534
17.7028,1542
17.7056,1526
17.7083,1511
17.7111,1510
17.7139,1514
17.7167,1515
17.7194,1524
17.7222,1527
17.7250,1535
17.7278,1542
17.7306,1547
17.7333,1551
17.7361,1564
17.7389,1559
17.7417,1545
17.7444,1533
17.7472,1520
17.7500,1519
17.7528,1534
17.7556,1535
17.7583,1545
17.7611,1541
17.7639,1547
17.7667,1546
17.7694,1544
17.7722,1544
17.7750,1532
17.7778,1522
17.7806,1507
17.7833,1515
17.7861,1509
17.7889,1524
17.7917,1531
17.7944,1542
17.7972,1544
17.8000,1521
17.8028,1522
17.8056,1518
17.8083,1519
17.8111,1531
17.8139,1541
17.8167,1553
17.8194,1554
17.8222,1556
17.8250,1549
17.8278,1551
17.8306,1541
17.8333,1539
17.8361,1543
17.8389,1541
17.8417,1551
17.8444,1558
17.8472,1559
17.8500,1568
17.8528,1568
17.8556,1584
17.8583,1601
17.8611,1621
17.8639,1643
17.8667,1668
17.8694,1672
17.8722,1702
17.8750,1713
17.8778,1727
17.8806,1724
17.8833,1719
17.8861,1730
17.8889,1760
17.8917,1798
17.8944,1833
17.8972,1872
17.9000,1881
17.9028,1882
17.9056,1873
17.9083,1849
17.9111,1821
17.9139,1775
17.9167,1731
17.9194,1681
17.9222,1641
17.9250,1601
17.9278,1587
17.9306,1576
17.9333,1566
17.9361,1570
17.9389,1555
17.9417,1553
17.9444,1536
17.9472,1538
17.9500,1534
17.9528,1539
17.9556,1537
17.9583,1526
17.9611,1519
17.9639,1523
17.9667,1519
17.9694,1515
17.9722,1498
17.9750,1496
17.9778,1509
17.9806,1518
17.9833,1522
17.9861,1550
17.9889,1568
17.9917,1585
17.9944,1610
17.9972,1622
18.0000,1595
18.0028,1563
18.0056,1519
18.0083,1518
18.0111,1560
18.0139,1707
18.0167,1941
18.0194,2275
18.0222,2479
18.0250,2500
18.0278,2453
18.0306,2415
18.0333,2402
18.0361,2356
18.0389,2200
18.0417,1928
18.0444,1669
18.0472,1490
18.0500,1373
18.0528,1281
18.0556,1196
18.0583,1085
18.0611,1050
18.0639,1048
18.0667,1073
18.0694,1106
18.0722,1151
18.0750,1201
18.0778,1239
18.0806,1301
18.0833,1376
18.0861,1453
18.0889,1522
18.0917,1576
18.0944,1610
18.0972,1630
18.1000,1655
18.1028,1677
18.1056,1697
18.1083,1723
18.1111,1711
18.1139,1718
18.1167,1715
18.1194,1720
18.1222,1733
18.1250,1766
18.1278,1794
18.1306,1806
18.1333,1808
18.1361,1794
18.1389,1790
18.1417,1786
18.1444,1796
18.1472,1795
18.1500,1801
18.1528,1828
18.1556,1846
18.1583,1864
18.1611,1869
18.1639,1875
18.1667,1876
18.1694,1873
18.1722,1873
18.1750,1872
18.1778,1869
18.1806,1877
18.1833,1893
18.1861,1909
18.1889,1919
18.1917,1941
18.1944,1943
18.1972,1937
18.2000,1937
18.2028,1941
18.2056,1949
18.2083,1967
18.2111,1971
18.2139,2051
18.2167,2047
18.2194,2015
18.2222,1999
18.2250,2002
18.2278,1992
18.2306,1979
18.2333,1932
18.2361,1900
18.2389,1865
18.2417,1837
18.2444,1823
18.2472,1799
18.2500,1766
18.2528,1737
18.2556,1707
18.2583,1685
18.2611,1681
18.2639,1673
18.2667,1659
18.2694,1649
18.2722,1627
18.2750,1618
18.2778,1611
18.2806,1598
18.2833,1581
18.2861,1581
18.2889,1580
18.2917,1574
18.2944,1552
18.2972,1545
18.3000,1546
18.3028,1551
18.3056,1559
18.3083,1573
18.3111,1578
18.3139,1572
18.3167,1562
18.3194,1556
18.3222,1562
18.3250,1583
18.3278,1592
18.3306,1598
18.3333,1599
18.3361,1583
18.3389,1571
18.3417,1580
18.3444,1577
18.3472,1589
18.3500,1590
18.3528,1592
18.3556,1583
18.3583,1568
18.3611,1568
18.3639,1585
18.3667,1603
18.3694,1610
18.3722,1611
18.3750,1604
18.3778,1605
18.3806,1605
18.3833,1612
18.3861,1620
18.3889,1625
18.3917,1622
18.3944,1615
18.3972,1611
18.4000,1616
18.4028,1626
18.4056,1621
18.4083,1621
18.4111,1629
18.4139,1621
18.4167,1614
18.4194,1616
18.4222,1615
18.4250,1607
18.4278,1613
18.4306,1620
18.4333,1619
18.4361,1613
18.4389,1611
18.4417,1622
18.4444,1612
18.4472,1601
18.4500,1599
18.4528,1601
18.4556,1609
18.4583,1612
18.4611,1614
18.4639,1605
18.4667,1604
18.4694,1591
18.4722,1595
18.4750,1592
18.4778,1590
18.4806,1599
18.4833,1609
18.4861,1604
18.4889,1607
18.4917,1599
18.4944,1597
18.4972,1577
18.5000,1578
18.5028,1587
18.5056,1604
18.5083,1608
18.5111,1613
18.5139,1593
18.5167,1583
18.5194,1580
18.5222,1586
18.5250,1595
18.5278,1602
18.5306,1607
18.5333,1605
18.5361,1598
18.5389,1608
18.5417,1611
18.5444,1618
18.5472,1612
18.5500,1606
18.5528,1594
18.5556,1599
18.5583,1602
18.5611,1610
18.5639,1616
18.5667,1629
18.5694,1640
18.5722,1639
18.5750,1631
18.5778,1652
18.5806,1667
18.5833,1696
18.5861,1725
18.5889,1739
18.5917,1752
18.5944,1767
18.5972,1779
18.6000,1801
18.6028,1816
18.6056,1833
18.6083,1854
18.6111,1873
18.6139,1897
18.6167,1920
18.6194,1953
18.6222,1992
18.6250,2004
18.6278,2014
18.6306,2010
18.6333,1997
18.6361,1969
18.6389,1939
18.6417,1887
18.6444,1836
18.6472,1775
18.6500,1733
18.6528,1705
18.6556,1684
18.6583,1668
18.6611,1661
18.6639,1650
18.6667,1646
18.6694,1645
18.6722,1632
18.6750,1619
18.6778,1625
18.6806,1630
18.6833,1642
18.6861,1646
18.6889,1632
18.6917,1620
18.6944,1612
18.6972,1617
18.7000,1626
18.7028,1631
18.7056,1649
18.7083,1646
18.7111,1648
18.7139,1641
18.7167,1660
18.7194,1676
18.7222,1689
18.7250,1673
18.7278,1653
18.7306,1620
18.7333,1596
18.7361,1611
18.7389,1691
18.7417,1862
18.7444,2146
18.7472,2458
18.7500,2600
18.7528,2581
18.7556,2520
18.7583,2481
18.7611,2448
18.7639,2348
18.7667,2105
18.7694,1842
18.7722,1657
18.7750,1520
18.7778,1381
18.7806,1258
18.7833,1145
18.7861,1070
18.7889,1057
18.7917,1087
18.7944,1132
18.7972,1186
18.8000,1246
18.8028,1311
18.8056,1367
18.8083,1427
18.8111,1487
18.8139,1566
18.8167,1630
18.8194,1681
18.8222,1714
18.8250,1732
18.8278,1745
18.8306,1759
18.8333,1760
18.8361,1774
18.8389,1788
18.8417,1791
18.8444,1802
18.8472,1816
18.8500,1840
18.8528,1846
18.8556,1852
18.8583,1854
18.8611,1848
18.8639,1850
18.8667,1857
18.8694,1876
18.8722,1888
18.8750,1907
18.8778,1908
18.8806,1904
18.8833,1895
18.8861,1902
18.8889,1907
18.8917,1930
18.8944,1943
18.8972,1947
18.9000,1952
18.9028,1946
18.9056,1952
18.9083,1949
18.9111,1965
18.9139,1975
18.9167,1981
18.9194,1996
18.9222,1990
18.9250,1995
18.9278,2008
18.9306,2034
18.9333,2050
18.9361,2074
18.9389,2074
18.9417,2089
18.9444,2086
18.9472,2080
18.9500,2060
18.9528,2032
18.9556,2012
18.9583,1973
18.9611,1944
18.9639,1895
18.9667,1865
18.9694,1847
18.9722,1826
18.9750,1809
18.9778,1778
18.9806,1749
18.9833,1721
18.9861,1703
18.9889,1693
18.9917,1697
18.9944,1688
18.9972,1681
19.0000,1669
19.0028,1644
19.0056,1630
19.0083,1640
19.0111,1649
19.0139,1652
19.0167,1640
19.0194,1631
19.0222,1630
19.0250,1634
19.0278,1646
19.0306,1656
19.0333,1663
19.0361,1669
19.0389,1663
19.0417,1648
19.0444,1643
19.0472,1634
19.0500,1640
19.0528,1658
19.0556,1654
19.0583,1656
19.0611,1654
19.0639,1662
19.0667,1657
19.0694,1659
19.0722,1679
19.0750,1685
19.0778,1675
19.0806,1675
19.0833,1667
19.0861,1674
19.0889,1684
19.0917,1689
19.0944,1686
19.0972,1689
19.1000,1693
19.1028,1681
19.1056,1661
19.1083,1665
19.1111,1659
19.1139,1653
19.1167,1667
19.1194,1645
19.1222,1649
19.1250,1651
19.1278,1661
19.1306,1669
19.1333,1672
19.1361,1670
19.1389,1655
19.1417,1641
19.1444,1643
19.1472,1646
19.1500,1642
19.1528,1644
19.1556,1644
19.1583,1639
19.1611,1635
19.1639,1637
19.1667,1636
19.1694,1632
19.1722,1637
19.1750,1638
19.1778,1643
19.1806,1647
19.1833,1652
19.1861,1651
19.1889,1653
19.1917,1644
19.1944,1637
19.1972,1629
19.2000,1621
19.2028,1619
19.2056,1612
19.2083,1605
19.2111,1597
19.2139,1595
19.2167,1591
19.2194,1591
19.2222,1589
19.2250,1582
19.2278,1581
19.2306,1574
19.2333,1576
19.2361,1575
19.2389,1574
19.2417,1574
19.2444,1571
19.2472,1574
19.2500,1566
19.2528,1574
19.2556,1578
19.2583,1581
19.2611,1586
19.2639,1584
19.2667,1582
19.2694,1592
19.2722,1591
19.2750,1587
19.2778,1578
19.2806,1577
19.2833,1570
19.2861,1577
19.2889,1587
19.2917,1599
19.2944,1622
19.2972,1651
19.3000,1689
19.3028,1720
19.3056,1734
19.3083,1739
19.3111,1745
19.3139,1748
19.3167,1768
19.3194,1786
19.3222,1817
19.3250,1844
19.3278,1871
19.3306,1899
19.3333,1935
19.3361,1955
19.3389,1967
19.3417,1974
19.3444,1974
19.3472,1950
19.3500,1924
19.3528,1899
19.3556,1852
19.3583,1787
19.3611,1720
19.3639,1657
19.3667,1619
19.3694,1597
19.3722,1567
19.3750,1548
19.3778,1528
19.3806,1509
19.3833,1498
19.3861,1504
19.3889,1519
19.3917,1511
19.3944,1512
19.3972,1510
19.4000,1512
19.4028,1505
19.4056,1508
19.4083,1498
19.4111,1500
19.4139,1504
19.4167,1499
19.4194,1493
19.4222,1489
19.4250,1495
19.4278,1508
19.4306,1527
19.4333,1561
19.4361,1594
19.4389,1593
19.4417,1573
19.4444,1544
19.4472,1522
19.4500,1508
19.4528,1569
19.4556,1735
19.4583,1981
19.4611,2344
19.4639,2589
19.4667,2630
19.4694,2581
19.4722,2494
19.4750,2424
19.4778,2324
19.4806,2045
19.4833,1654
19.4861,1312
19.4889,1123
19.4917,1024
19.4944,988
19.4972,948
19.5000,940
19.5028,948
19.5056,976
19.5083,1030
19.5111,1095
19.5139,1175
19.5167,1247
19.5194,1320
19.5222,1402
19.5250,1502
19.5278,1589
19.5306,1642
19.5333,1685
19.5361,1698
19.5389,1706
19.5417,1711
19.5444,1730
19.5472,1753
19.5500,1773
19.5528,1776
19.5556,1783
19.5583,1787
19.5611,1793
19.5639,1801
19.5667,1824
19.5694,1838
19.5722,1840
19.5750,1821
19.5778,1816
19.5806,1826
19.5833,1854
19.5861,1869
19.5889,1891
19.5917,1900
19.5944,1897
19.5972,1883
19.6000,1877
19.6028,1890
19.6056,1905
19.6083,1923
19.6111,1936
19.6139,1937
19.6167,1925
19.6194,1927
19.6222,1944
19.6250,1962
19.6278,1978
19.6306,1991
19.6333,2000
19.6361,1998
19.6389,1991
19.6417,1993
19.6444,2007
19.6472,2018
19.6500,2040
19.6528,2050
19.6556,2060
19.6583,2075
19.6611,2083
19.6639,2094
19.6667,2117
19.6694,2126
19.6722,2130
19.6750,2134
19.6778,2117
19.6806,1817
19.6833,1823
19.6861,1805
19.6889,1775
19.6917,1760
19.6944,1727
19.6972,1705
19.7000,1689
19.7028,1685
19.7056,1671
19.7083,1662
19.7111,1652
19.7139,1641
19.7167,1630
19.7194,1620
19.7222,1610
19.7250,1607
19.7278,1608
19.7306,1611
19.7333,1606
19.7361,1603
19.7389,1594
19.7417,1607
19.7444,1608
19.7472,1616
19.7500,1613
19.7528,1604
19.7556,1598
19.7583,1603
19.7611,1610
19.7639,1615
19.7667,1616
19.7694,1625
19.7722,1614
19.7750,1610
19.7778,1593
19.7806,1588
19.7833,1605
19.7861,1616
19.7889,1619
19.7917,1630
19.7944,1624
19.7972,1627
19.8000,1640
19.8028,1656
19.8056,1663
19.8083,1670
19.8111,1662
19.8139,1655
19.8167,1651
19.8194,1647
19.8222,1643
19.8250,1652
19.8278,1654
19.8306,1655
19.8333,1648
19.8361,1634
19.8389,1646
19.8417,1640
19.8444,1656
19.8472,1652
19.8500,1651
19.8528,1643
19.8556,1641
19.8583,1638
19.8611,1635
19.8639,1635
19.8667,1631
19.8694,1645
19.8722,1637
19.8750,1628
19.8778,1632
19.8806,1628
19.8833,1622
19.8861,1622
19.8889,1620
19.8917,1620
19.8944,1614
19.8972,1617
19.9000,1623
19.9028,1632
19.9056,1639
19.9083,1640
19.9111,1639
19.9139,1624
19.9167,1607
19.9194,1603
19.9222,1596
19.9250,1600
19.9278,1601
19.9306,1591
19.9333,1591
19.9361,1591
19.9389,1589
19.9417,1598
19.9444,1606
19.9472,1609
19.9500,1604
19.9528,1594
19.9556,1599
19.9583,1590
19.9611,1597
19.9639,1596
19.9667,1600
19.9694,1600
19.9722,1596
19.9750,1593
19.9778,1589
19.9806,1587
19.9833,1586
19.9861,1593
19.9889,1596
19.9917,1593
19.9944,1597
19.9972,1589
20.0000,1596
20.0028,1595
20.0056,1598
20.0083,1589
20.0111,1586
20.0139,1591
20.0167,1596
20.0194,1591
20.0222,1591
20.0250,1598
20.0278,1600
20.0306,1594
20.0333,1591
20.0361,1587
20.0389,1585
20.0417,1597
20.0444,1605
20.0472,1600
20.0500,1604
20.0528,1604
20.0556,1599
20.0583,1599
20.0611,1605
20.0639,1600
20.0667,1615
20.0694,1618
20.0722,1612
20.0750,1605
20.0778,1607
20.0806,1608
20.0833,1613
20.0861,1609
20.0889,1609
20.0917,1622
20.0944,1611
20.0972,1617
20.1000,1620
20.1028,1630
20.1056,1641
20.1083,1649
20.1111,1660
20.1139,1674
20.1167,1702
20.1194,1729
20.1222,1744
20.1250,1761
20.1278,1772
20.1306,1782
20.1333,1783
20.1361,1798
20.1389,1808
20.1417,1823
20.1444,1846
20.1472,1881
20.1500,1910
20.1528,1945
20.1556,1964
20.1583,1963
20.1611,1952
20.1639,1941
20.1667,1923
20.1694,1894
20.1722,1846
20.1750,1794
20.1778,1733
20.1806,1677
20.1833,1643
20.1861,1610
20.1889,1586
20.1917,1587
20.1944,1569
20.1972,1562
20.2000,1553
20.2028,1556
20.2056,1547
20.2083,1539
20.2111,1535
20.2139,1528
20.2167,1519
20.2194,1516
20.2222,1517
20.2250,1514
20.2278,1515
20.2306,1513
20.2333,1524
20.2361,1525
20.2389,1532
20.2417,1531
20.2444,1545
20.2472,1560
20.2500,1589
20.2528,1615
20.2556,1615
20.2583,1599
20.2611,1558
20.2639,1538
20.2667,1546
20.2694,1626
20.2722,1805
20.2750,2080
20.2778,2440
20.2806,2693
20.2833,2747
20.2861,2694
20.2889,2593
20.2917,2506
20.2944,2373
20.2972,2051
20.3000,1601
20.3028,1244
20.3056,1046
20.3083,968
20.3111,943
20.3139,913
20.3167,913
20.3194,919
20.3222,947
20.3250,992
20.3278,1057
20.3306,1119
20.3333,1189
20.3361,1269
20.3389,1363
20.3417,1467
20.3444,1541
20.3472,1605
20.3500,1645
20.3528,1668
20.3556,1680
20.3583,1689
20.3611,1714
20.3639,1724
20.3667,1741
20.3694,1748
20.3722,1749
20.3750,1738
20.3778,1743
20.3806,1762
20.3833,1784
20.3861,1798
20.3889,1798
20.3917,1794
20.3944,1793
20.3972,1794
20.4000,1818
20.4028,1841
20.4056,1860
20.4083,1869
20.4111,1871
20.4139,1856
20.4167,1852
20.4194,1863
20.4222,1891
20.4250,1919
20.4278,1925
20.4306,1923
20.4333,1916
20.4361,1917
20.4389,1935
20.4417,1953
20.4444,1971
20.4472,1982
20.4500,1992
20.4528,1990
20.4556,1982
20.4583,1999
20.4611,2007
20.4639,2021
20.4667,2043
20.4694,2048
20.4722,2053
20.4750,2060
20.4778,2067
20.4806,2086
20.4833,2104
20.4861,2108
20.4889,2111
20.4917,2111
20.4944,2106
20.4972,1829
20.5000,1844
20.5028,1825
20.5056,1794
20.5083,1779
20.5111,1745
20.5139,1725
20.5167,1710
20.5194,1691
20.5222,1681
20.5250,1662
20.5278,1645
20.5306,1635
20.5333,1616
20.5361,1607
20.5389,1602
20.5417,1612
20.5444,1603
20.5472,1598
20.5500,1597
20.5528,1594
20.5556,1595
20.5583,1586
20.5611,1596
20.5639,1605
20.5667,1609
20.5694,1605
20.5722,1601
20.5750,1592
20.5778,1590
20.5806,1602
20.5833,1608
20.5861,1621
20.5889,1623
20.5917,1620
20.5944,1620
20.5972,1623
20.6000,1628
20.6028,1640
20.6056,1649
20.6083,1641
20.6111,1641
20.6139,1634
20.6167,1635
20.6194,1643
20.6222,1646
20.6250,1649
20.6278,1650
20.6306,1638
20.6333,1639
20.6361,1638
20.6389,1642
20.6417,1647
20.6444,1649
20.6472,1646
20.6500,1645
20.6528,1647
20.6556,1650
20.6583,1644
20.6611,1649
20.6639,1642
20.6667,1641
20.6694,1644
20.6722,1641
20.6750,1640
20.6778,1639
20.6806,1640
20.6833,1654
20.6861,1653
20.6889,1644
20.6917,1638
20.6944,1638
20.6972,1632
20.7000,1625
20.7028,1624
20.7056,1615
20.7083,1620
20.7111,1623
20.7139,1620
20.7167,1620
20.7194,1614
20.7222,1624
20.7250,1619
20.7278,1619
20.7306,1617
20.7333,1610
20.7361,1593
20.7389,1595
20.7417,1600
20.7444,1599
20.7472,1597
20.7500,1601
20.7528,1606
20.7556,1606
20.7583,1609
20.7611,1610
20.7639,1602
20.7667,1595
20.7694,1583
20.7722,1587
20.7750,1582
20.7778,1592
20.7806,1599
20.7833,1599
20.7861,1606
20.7889,1605
20.7917,1592
20.7944,1591
20.7972,1581
20.8000,1582
20.8028,1582
20.8056,1590
20.8083,1588
20.8111,1580
20.8139,1578
20.8167,1576
20.8194,1588
20.8222,1598
20.8250,1608
20.8278,1614
20.8306,1609
20.8333,1594
20.8361,1585
20.8389,1585
20.8417,1578
20.8444,1593
20.8472,1597
20.8500,1603
20.8528,1597
20.8556,1582
20.8583,1579
20.8611,1563
20.8639,1555
20.8667,1566
20.8694,1596
20.8722,1614
20.8750,1623
20.8778,1628
20.8806,1625
20.8833,1615
20.8861,1602
20.8889,1596
20.8917,1606
20.8944,1622
20.8972,1635
20.9000,1627
20.9028,1589
20.9056,1576
20.9083,1584
20.9111,1597
20.9139,1594
20.9167,1613
20.9194,1631
20.9222,1643
20.9250,1651
20.9278,1659
20.9306,1700
20.9333,1753
20.9361,1786
20.9389,1817
20.9417,1822
20.9444,1808
20.9472,1803
20.9500,1807
20.9528,1818
20.9556,1835
20.9583,1866
20.9611,1907
20.9639,1953
20.9667,1976
20.9694,1986
20.9722,1996
20.9750,1979
20.9778,1976
20.9806,1963
20.9833,1938
20.9861,1897
20.9889,1831
20.9917,1751
20.9944,1683
20.9972,1641
21.0000,1627
21.0028,1602
21.0056,1600
21.0083,1593
21.0111,1576
21.0139,1562
21.0167,1553
21.0194,1570
21.0222,1570
21.0250,1580
21.0278,1591
21.0306,1592
21.0333,1571
21.0361,1556
21.0389,1534
21.0417,1529
21.0444,1527
21.0472,1515
21.0500,1521
21.0528,1528
21.0556,1526
21.0583,1535
21.0611,1568
21.0639,1597
21.0667,1623
21.0694,1621
21.0722,1584
21.0750,1547
21.0778,1502
21.0806,1514
21.0833,1609
21.0861,1806
21.0889,2101
21.0917,2457
21.0944,2661
21.0972,2666
21.1000,2596
21.1028,2477
21.1056,2390
21.1083,2220
21.1111,1861
21.1139,1470
21.1167,1202
21.1194,1061
21.1222,1005
21.1250,983
21.1278,951
21.1306,940
21.1333,952
21.1361,983
21.1389,1018
21.1417,1068
21.1444,1127
21.1472,1185
21.1500,1274
21.1528,1374
21.1556,1484
21.1583,1580
21.1611,1636
21.1639,1674
21.1667,1688
21.1694,1681
21.1722,1697
21.1750,1719
21.1778,1753
21.1806,1790
21.1833,1802
21.1861,1795
21.1889,1757
21.1917,1728
21.1944,1748
21.1972,1796
21.2000,1829
21.2028,1834
21.2056,1819
21.2083,1791
21.2111,1789
21.2139,1831
21.2167,1868
21.2194,1902
21.2222,1909
21.2250,1909
21.2278,1898
21.2306,1887
21.2333,1880
21.2361,1877
21.2389,1880
21.2417,1927
21.2444,1956
21.2472,1964
21.2500,1965
21.2528,1965
21.2556,1965
21.2583,1956
21.2611,1955
21.2639,1947
21.2667,1929
21.2694,1896
21.2722,1902
21.2750,1953
21.2778,2021
21.2806,2078
21.2833,2109
21.2861,2092
21.2889,2085
21.2917,2071
21.2944,2042
21.2972,2003
21.3000,1979
21.3028,1973
21.3056,1955
21.3083,1933
21.3111,1836
21.3139,1742
21.3167,1718
21.3194,1722
21.3222,1743
21.3250,1719
21.3278,1684
21.3306,1668
21.3333,1650
21.3361,1637
21.3389,1635
21.3417,1626
21.3444,1639
21.3472,1649
21.3500,1634
21.3528,1629
21.3556,1605
21.3583,1579
21.3611,1583
21.3639,1603
21.3667,1627
21.3694,1632
21.3722,1639
21.3750,1650
21.3778,1644
21.3806,1616
21.3833,1598
21.3861,1582
21.3889,1579
21.3917,1597
21.3944,1593
21.3972,1585
21.4000,1598
21.4028,1611
21.4056,1611
21.4083,1611
21.4111,1622
21.4139,1611
21.4167,1574
21.4194,1541
21.4222,1517
21.4250,1552
21.4278,1595
21.4306,1642
21.4333,1662
21.4361,1668
21.4389,1650
21.4417,1620
21.4444,1604
21.4472,1593
21.4500,1565
21.4528,1592
21.4556,1644
21.4583,1657
21.4611,1648
21.4639,1631
21.4667,1631
21.4694,1669
21.4722,1674
21.4750,1671
21.4778,1661
21.4806,1629
21.4833,1584
21.4861,1580
21.4889,1598
21.4917,1615
21.4944,1630
21.4972,1634
21.5000,1641
21.5028,1636
21.5056,1639
21.5083,1635
21.5111,1632
21.5139,1618
21.5167,1627
21.5194,1620
21.5222,1614
21.5250,1565
21.5278,1532
21.5306,1565
21.5333,1596
21.5361,1588
21.5389,1571
21.5417,1588
21.5444,1636
21.5472,1659
21.5500,1677
21.5528,1669
21.5556,1652
21.5583,1626
21.5611,1603
21.5639,1606
21.5667,1617
21.5694,1633
21.5722,1630
21.5750,1627
21.5778,1627
21.5806,1612
21.5833,1586
21.5861,1580
21.5889,1589
21.5917,1587
21.5944,1601
21.5972,1629
21.6000,1634
21.6028,1627
21.6056,1612
21.6083,1588
21.6111,1603
21.6139,1629
21.6167,1639
21.6194,1642
21.6222,1627
21.6250,1628
21.6278,1622
21.6306,1611
21.6333,1617
21.6361,1660
21.6389,1714
21.6417,1740
21.6444,1736
21.6472,1715
21.6500,1703
21.6528,1721
21.6556,1771
21.6583,1814
21.6611,1840
21.6639,1858
21.6667,1867
21.6694,1865
21.6722,1893
21.6750,1907
21.6778,1941
21.6806,1992
21.6833,2006
21.6861,1985
21.6889,1962
21.6917,1942
21.6944,1927
21.6972,1885
21.7000,1820
21.7028,1746
21.7056,1684
21.7083,1643
21.7111,1617
21.7139,1593
21.7167,1560
21.7194,1551
21.7222,1566
21.7250,1566
21.7278,1560
21.7306,1543
21.7333,1526
21.7361,1511
21.7389,1515
21.7417,1502
21.7444,1498
21.7472,1501
21.7500,1499
21.7528,1500
21.7556,1477
21.7583,1478
21.7611,1506
21.7639,1532
21.7667,1559
21.7694,1579
21.7722,1599
21.7750,1601
21.7778,1604
21.7806,1573
21.7833,1534
21.7861,1496
21.7889,1495
21.7917,1553
21.7944,1668
21.7972,1850
21.8000,2121
21.8028,2439
21.8056,2617
21.8083,2620
21.8111,2524
21.8139,2424
21.8167,2327
21.8194,2120
21.8222,1746
21.8250,1358
21.8278,1126
21.8306,1014
21.8333,967
21.8361,942
21.8389,923
21.8417,913
21.8444,924
21.8472,959
21.8500,1027
21.8528,1091
21.8556,1148
21.8583,1230
21.8611,1311
21.8639,1394
21.8667,1482
21.8694,1576
21.8722,1644
21.8750,1677
21.8778,1687
21.8806,1707
21.8833,1719
21.8861,1748
21.8889,1776
21.8917,1790
21.8944,1813
21.8972,1796
21.9000,1795
21.9028,1812
21.9056,1835
21.9083,1852
21.9111,1867
21.9139,1850
21.9167,1846
21.9194,1853
21.9222,1864
21.9250,1871
21.9278,1885
21.9306,1889
21.9333,1879
21.9361,1874
21.9389,1865
21.9417,1890
21.9444,1943
21.9472,1950
21.9500,1954
21.9528,1959
21.9556,1962
21.9583,1957
21.9611,1962
21.9639,1962
21.9667,1962
21.9694,1995
21.9722,2012
21.9750,2021
21.9778,2007
21.9806,2001
21.9833,2030
21.9861,2060
21.9889,2086
21.9917,2097
21.9944,2097
21.9972,2079
22.0000,2080
22.0028,2095
22.0056,2099
22.0083,2110
22.0111,2104
22.0139,2099
22.0167,2109
22.0194,1879
22.0222,1877
22.0250,1864
22.0278,1834
22.0306,1789
22.0333,1776
22.0361,1742
22.0389,1718
22.0417,1691
22.0444,1668
22.0472,1657
22.0500,1661
22.0528,1652
22.0556,1663
22.0583,1682
22.0611,1675
22.0639,1655
22.0667,1631
22.0694,1622
22.0722,1627
22.0750,1624
22.0778,1634
22.0806,1636
22.0833,1642
22.0861,1647
22.0889,1657
22.0917,1623
22.0944,1609
22.0972,1603
22.1000,1611
22.1028,1656
22.1056,1682
22.1083,1688
22.1111,1690
22.1139,1677
22.1167,1665
22.1194,1667
22.1222,1660
22.1250,1657
22.1278,1668
22.1306,1659
22.1333,1647
22.1361,1641
22.1389,1639
22.1417,1659
22.1444,1669
22.1472,1682
22.1500,1679
22.1528,1682
22.1556,1683
22.1583,1689
22.1611,1688
22.1639,1679
22.1667,1659
22.1694,1640
22.1722,1624
22.1750,1612
22.1778,1644
22.1806,1675
22.1833,1691
22.1861,1698
22.1889,1675
22.1917,1661
22.1944,1648
22.1972,1653
22.2000,1643
22.2028,1641
22.2056,1639
22.2083,1644
22.2111,1650
22.2139,1617
22.2167,1612
22.2194,1604
22.2222,1596
22.2250,1610
22.2278,1627
22.2306,1634
22.2333,1636
22.2361,1642
22.2389,1643
22.2417,1646
22.2444,1628
22.2472,1611
22.2500,1618
22.2528,1610
22.2556,1621
22.2583,1625
22.2611,1625
22.2639,1626
22.2667,1622
22.2694,1637
22.2722,1632
22.2750,1643
22.2778,1629
22.2806,1620
22.2833,1619
22.2861,1624
22.2889,1618
22.2917,1627
22.2944,1641
22.2972,1638
22.3000,1628
22.3028,1618
22.3056,1621
22.3083,1611
22.3111,1615
22.3139,1613
22.3167,1629
22.3194,1631
22.3222,1626
22.3250,1618
22.3278,1614
22.3306,1622
22.3333,1623
22.3361,1631
22.3389,1642
22.3417,1664
22.3444,1705
22.3472,1741
22.3500,1755
22.3528,1756
22.3556,1750
22.3583,1750
22.3611,1761
22.3639,1785
22.3667,1808
22.3694,1834
22.3722,1861
22.3750,1879
22.3778,1904
22.3806,1942
22.3833,1951
22.3861,1952
22.3889,1964
22.3917,1956
22.3944,1945
22.3972,1937
22.4000,1895
22.4028,1844
22.4056,1775
22.4083,1696
22.4111,1631
22.4139,1584
22.4167,1564
22.4194,1554
22.4222,1560
22.4250,1559
22.4278,1551
22.4306,1542
22.4333,1523
22.4361,1511
22.4389,1493
22.4417,1479
22.4444,1494
22.4472,1512
22.4500,1520
22.4528,1522
22.4556,1525
22.4583,1516
22.4611,1511
22.4639,1507
22.4667,1510
22.4694,1514
22.4722,1508
22.4750,1522
22.4778,1546
22.4806,1562
22.4833,1576
22.4861,1560
22.4889,1513
22.4917,1475
22.4944,1476
22.4972,1528
22.5000,1673
22.5028,1916
22.5056,2260
22.5083,2531
22.5111,2606
22.5139,2558
22.5167,2464
22.5194,2354
22.5222,2201
22.5250,1891
22.5278,1491
22.5306,1185
22.5333,1028
22.5361,980
22.5389,950
22.5417,927
22.5444,908
22.5472,900
22.5500,917
22.5528,960
22.5556,1024
22.5583,1083
22.5611,1148
22.5639,1223
22.5667,1306
22.5694,1403
22.5722,1504
22.5750,1575
22.5778,1625
22.5806,1650
22.5833,1668
22.5861,1671
22.5889,1667
22.5917,1694
22.5944,1720
22.5972,1731
22.6000,1753
22.6028,1763
22.6056,1776
22.6083,1786
22.6111,1807
22.6139,1830
22.6167,1841
22.6194,1857
22.6222,1853
22.6250,1847
22.6278,1857
22.6306,1866
22.6333,1873
22.6361,1881
22.6389,1882
22.6417,1880
22.6444,1885
22.6472,1896
22.6500,1909
22.6528,1929
22.6556,1950
22.6583,1969
22.6611,1961
22.6639,1960
22.6667,1956
22.6694,1968
22.6722,1984
22.6750,1989
22.6778,1996
22.6806,2003
22.6833,2004
22.6861,2002
22.6889,2012
22.6917,2015
22.6944,2027
22.6972,2033
22.7000,2042
22.7028,2068
22.7056,2084
22.7083,2104
22.7111,2108
22.7139,2121
22.7167,2108
22.7194,2097
22.7222,2086
22.7250,1773
22.7278,1773
22.7306,1741
22.7333,1711
22.7361,1673
22.7389,1647
22.7417,1632
22.7444,1630
22.7472,1620
22.7500,1604
22.7528,1584
22.7556,1575
22.7583,1570
22.7611,1566
22.7639,1552
22.7667,1542
22.7694,1548
22.7722,1537
22.7750,1542
22.7778,1535
22.7806,1547
22.7833,1553
22.7861,1557
22.7889,1568
22.7917,1551
22.7944,1566
22.7972,1550
22.8000,1550
22.8028,1552
22.8056,1560
22.8083,1566
22.8111,1589
22.8139,1595
22.8167,1601
22.8194,1608
22.8222,1606
22.8250,1595
22.8278,1595
22.8306,1588
22.8333,1589
22.8361,1592
22.8389,1594
22.8417,1597
22.8444,1607
22.8472,1618
22.8500,1612
22.8528,1606
22.8556,1606
22.8583,1588
22.8611,1571
22.8639,1559
22.8667,1561
22.8694,1564
22.8722,1577
22.8750,1579
22.8778,1596
22.8806,1597
22.8833,1597
22.8861,1609
22.8889,1616
22.8917,1609
22.8944,1611
22.8972,1615
22.9000,1627
22.9028,1627
22.9056,1626
22.9083,1629
22.9111,1635
22.9139,1623
22.9167,1616
22.9194,1621
22.9222,1613
22.9250,1612
22.9278,1600
22.9306,1607
22.9333,1611
22.9361,1612
22.9389,1612
22.9417,1609
22.9444,1611
22.9472,1608
22.9500,1608
22.9528,1587
22.9556,1585
22.9583,1577
22.9611,1583
22.9639,1593
22.9667,1601
22.9694,1594
22.9722,1605
22.9750,1600
22.9778,1597
22.9806,1591
22.9833,1596
22.9861,1592
22.9889,1601
22.9917,1595
22.9944,1593
22.9972,1590
23.0000,1590
23.0028,1595
23.0056,1600
23.0083,1607
23.0111,1611
23.0139,1620
23.0167,1615
23.0194,1601
23.0222,1592
23.0250,1588
23.0278,1582
23.0306,1574
23.0333,1577
23.0361,1585
23.0389,1567
23.0417,1567
23.0444,1585
23.0472,1613
23.0500,1654
23.0528,1678
23.0556,1682
23.0583,1674
23.0611,1682
23.0639,1691
23.0667,1705
23.0694,1729
23.0722,1755
23.0750,1780
23.0778,1802
23.0806,1833
23.0833,1858
23.0861,1887
23.0889,1904
23.0917,1915
23.0944,1919
23.0972,1907
23.1000,1882
23.1028,1852
23.1056,1804
23.1083,1748
23.1111,1669
23.1139,1595
23.1167,1543
23.1194,1518
23.1222,1506
23.1250,1506
23.1278,1514
23.1306,1520
23.1333,1517
23.1361,1511
23.1389,1500
23.1417,1496
23.1444,1489
23.1472,1479
23.1500,1477
23.1528,1461
23.1556,1460
23.1583,1457
23.1611,1450
23.1639,1451
23.1667,1457
23.1694,1470
23.1722,1466
23.1750,1471
23.1778,1478
23.1806,1488
23.1833,1521
23.1861,1529
23.1889,1522
23.1917,1494
23.1944,1472
23.1972,1448
23.2000,1450
23.2028,1496
23.2056,1623
23.2083,1830
23.2111,2151
23.2139,2408
23.2167,2465
23.2194,2422
23.2222,2361
23.2250,2288
23.2278,2228
23.2306,2051
23.2333,1769
23.2361,1509
23.2389,1342
23.2417,1234
23.2444,1138
23.2472,1056
23.2500,977
23.2528,934
23.2556,922
23.2583,955
23.2611,999
23.2639,1066
23.2667,1141
23.2694,1201
23.2722,1255
23.2750,1330
23.2778,1414
23.2806,1487
23.2833,1538
23.2861,1574
23.2889,1592
23.2917,1613
23.2944,1620
23.2972,1646
23.3000,1675
23.3028,1692
23.3056,1714
23.3083,1726
23.3111,1730
23.3139,1750
23.3167,1764
23.3194,1770
23.3222,1775
23.3250,1760
23.3278,1748
23.3306,1753
23.3333,1767
23.3361,1771
23.3389,1793
23.3417,1788
23.3444,1787
23.3472,1798
23.3500,1800
23.3528,1809
23.3556,1819
23.3583,1841
23.3611,1848
23.3639,1854
23.3667,1849
23.3694,1847
23.3722,1843
23.3750,1847
23.3778,1869
23.3806,1883
23.3833,1896
23.3861,1897
23.3889,1898
23.3917,1904
23.3944,1903
23.3972,1915
23.4000,1936
23.4028,1949
23.4056,2009
23.4083,2007
23.4111,1983
23.4139,1977
23.4167,1965
23.4194,1940
23.4222,1914
23.4250,1878
23.4278,1840
23.4306,1818
23.4333,1799
23.4361,1781
23.4389,1777
23.4417,1754
23.4444,1732
23.4472,1701
23.4500,1682
23.4528,1662
23.4556,1657
23.4583,1657
23.4611,1657
23.4639,1655
23.4667,1649
23.4694,1647
23.4722,1652
23.4750,1663
23.4778,1678
23.4806,1692
23.4833,1697
23.4861,1692
23.4889,1685
23.4917,1680
23.4944,1662
23.4972,1656
23.5000,1664
23.5028,1669
23.5056,1654
23.5083,1654
23.5111,1652
23.5139,1644
23.5167,1641
23.5194,1641
23.5222,1638
23.5250,1633
23.5278,1618
23.5306,1616
23.5333,1597
23.5361,1597
23.5389,1597
23.5417,1607
23.5444,1598
23.5472,1592
23.5500,1588
23.5528,1586
23.5556,1598
23.5583,1597
23.5611,1614
23.5639,1595
23.5667,1587
23.5694,1581
23.5722,1574
23.5750,1582
23.5778,1586
23.5806,1588
23.5833,1586
23.5861,1582
23.5889,1580
23.5917,1573
23.5944,1569
23.5972,1571
23.6000,1572
23.6028,1575
23.6056,1575
23.6083,1569
23.6111,1570
23.6139,1569
23.6167,1580
23.6194,1590
23.6222,1587
23.6250,1581
23.6278,1565
23.6306,1554
23.6333,1557
23.6361,1571
23.6389,1587
23.6417,1601
23.6444,1611
23.6472,1621
23.6500,1613
23.6528,1595
23.6556,1596
23.6583,1602
23.6611,1611
23.6639,1617
23.6667,1613
23.6694,1611
23.6722,1599
23.6750,1589
23.6778,1580
23.6806,1584
23.6833,1591
23.6861,1582
23.6889,1591
23.6917,1604
23.6944,1622
23.6972,1659
23.7000,1684
23.7028,1686
23.7056,1688
23.7083,1692
23.7111,1701
23.7139,1721
23.7167,1739
23.7194,1763
23.7222,1796
23.7250,1820
23.7278,1846
23.7306,1864
23.7333,1899
23.7361,1923
23.7389,1942
23.7417,1951
23.7444,1938
23.7472,1905
23.7500,1869
23.7528,1819
23.7556,1724
23.7583,1645
23.7611,1602
23.7639,1559
23.7667,1542
23.7694,1520
23.7722,1513
23.7750,1505
23.7778,1492
23.7806,1472
23.7833,1464
23.7861,1456
23.7889,1459
23.7917,1463
23.7944,1474
23.7972,1472
23.8000,1467
23.8028,1453
23.8056,1455
23.8083,1443
23.8111,1444
23.8139,1452
23.8167,1464
23.8194,1465
23.8222,1460
23.8250,1469
23.8278,1481
23.8306,1521
23.8333,1532
23.8361,1548
23.8389,1519
23.8417,1469
23.8444,1435
23.8472,1425
23.8500,1468
23.8528,1618
23.8556,1854
23.8583,2209
23.8611,2544
23.8639,2666
23.8667,2636
23.8694,2549
23.8722,2460
23.8750,2356
23.8778,2069
23.8806,1622
23.8833,1222
23.8861,983
23.8889,890
23.8917,871
23.8944,854
23.8972,844
23.9000,855
23.9028,881
23.9056,925
23.9083,992
23.9111,1061
23.9139,1131
23.9167,1243
23.9194,1328
23.9222,1430
23.9250,1521
23.9278,1612
23.9306,1672
23.9333,1694
23.9361,1703
23.9389,1693
23.9417,1698
23.9444,1714
23.9472,1740
23.9500,1753
23.9528,1757
23.9556,1761
23.9583,1755
23.9611,1785
23.9639,1823
23.9667,1859
23.9694,1860
23.9722,1850
23.9750,1834
23.9778,1833
23.9806,1840
23.9833,1853
23.9861,1871
23.9889,1879
23.9917,1889
23.9944,1888
23.9972,1892
24.0000,1906
24.0028,1927
24.0056,1941
24.0083,1951
24.0111,1953
24.0139,1957
24.0167,1970
24.0194,1980
24.0222,2002
24.0250,2009
24.0278,2011
24.0306,2013
24.0333,2011
24.0361,2025
24.0389,2034
24.0417,2052
24.0444,2064
24.0472,2082
24.0500,2080
24.0528,2085
24.0556,2083
24.0583,2086
24.0611,2105
24.0639,2128
24.0667,2149
24.0694,2142
24.0722,2150
24.0750,2153
24.0778,1851
24.0806,1854
24.0833,1841
24.0861,1817
24.0889,1785
24.0917,1756
24.0944,1731
24.0972,1714
24.1000,1714
24.1028,1708
24.1056,1698
24.1083,1688
24.1111,1665
24.1139,1658
24.1167,1632
24.1194,1625
24.1222,1637
24.1250,1632
24.1278,1638
24.1306,1657
24.1333,1664
24.1361,1660
24.1389,1667
24.1417,1675
24.1444,1662
24.1472,1661
24.1500,1647
24.1528,1643
24.1556,1646
24.1583,1643
24.1611,1639
24.1639,1647
24.1667,1664
24.1694,1664
24.1722,1668
24.1750,1660
24.1778,1672
24.1806,1680
24.1833,1693
24.1861,1691
24.1889,1694
24.1917,1687
24.1944,1693
24.1972,1696
24.2000,1701
24.2028,1703
24.2056,1706
24.2083,1698
24.2111,1688
24.2139,1687
24.2167,1685
24.2194,1690
24.2222,1687
24.2250,1681
24.2278,1674
24.2306,1677
24.2333,1689
24.2361,1694
24.2389,1696
24.2417,1698
24.2444,1697
24.2472,1686
24.2500,1676
24.2528,1668
24.2556,1679
24.2583,1674
24.2611,1675
24.2639,1675
24.2667,1687
24.2694,1672
24.2722,1655
24.2750,1642
24.2778,1651
24.2806,1655
24.2833,1664
24.2861,1666
24.2889,1665
24.2917,1647
24.2944,1642
24.2972,1648
24.3000,1639
24.3028,1643
24.3056,1640
24.3083,1635
24.3111,1636
24.3139,1628
24.3167,1623
24.3194,1634
24.3222,1632
24.3250,1630
24.3278,1639
24.3306,1628
24.3333,1649
24.3361,1644
24.3389,1650
24.3417,1645
24.3444,1648
24.3472,1662
24.3500,1688
24.3528,1711
24.3556,1748
24.3583,1786
24.3611,1803
24.3639,1803
24.3667,1805
24.3694,1795
24.3722,1814
24.3750,1839
24.3778,1860
24.3806,1897
24.3833,1927
24.3861,1952
24.3889,1984
24.3917,1995
24.3944,2002
24.3972,2007
24.4000,2015
24.4028,1995
24.4056,1973
24.4083,1936
24.4111,1858
24.4139,1758
24.4167,1683
24.4194,1618
24.4222,1580
24.4250,1558
24.4278,1547
24.4306,1532
24.4333,1525
24.4361,1521
24.4389,1518
24.4417,1520
24.4444,1507
24.4472,1506
24.4500,1497
24.4528,1482
24.4556,1482
24.4583,1482
24.4611,1480
24.4639,1481
24.4667,1490
24.4694,1499
24.4722,1502
24.4750,1504
24.4778,1501
24.4806,1499
24.4833,1505
24.4861,1507
24.4889,1522
24.4917,1548
24.4944,1558
24.4972,1531
24.5000,1492
24.5028,1455
24.5056,1466
24.5083,1556
24.5111,1753
24.5139,2023
24.5167,2387
24.5194,2649
24.5222,2729
24.5250,2672
24.5278,2567
24.5306,2452
24.5333,2271
24.5361,1875
24.5389,1399
24.5417,1060
24.5444,881
24.5472,823
24.5500,809
24.5528,809
24.5556,812
24.5583,835
24.5611,878
24.5639,948
24.5667,1029
24.5694,1097
24.5722,1181
24.5750,1278
24.5778,1378
24.5806,1475
24.5833,1550
24.5861,1611
24.5889,1641
24.5917,1661
24.5944,1683
24.5972,1690
24.6000,1704
24.6028,1732
24.6056,1742
24.6083,1750
24.6111,1748
24.6139,1737
24.6167,1737
24.6194,1747
24.6222,1777
24.6250,1794
24.6278,1806
24.6306,1815
24.6333,1809
24.6361,1824
24.6389,1845
24.6417,1850
24.6444,1860
24.6472,1860
24.6500,1853
24.6528,1840
24.6556,1848
24.6583,1859
24.6611,1887
24.6639,1911
24.6667,1937
24.6694,1937
24.6722,1934
24.6750,1941
24.6778,1936
24.6806,1956
24.6833,1964
24.6861,1971
24.6889,1976
24.6917,1976
24.6944,1974
24.6972,1993
24.7000,2013
24.7028,2044
24.7056,2048
24.7083,2063
24.7111,2056
24.7139,2052
24.7167,2049
24.7194,2057
24.7222,2076
24.7250,2094
24.7278,2111
24.7306,2106
24.7333,1820
24.7361,1820
24.7389,1814
24.7417,1780
24.7444,1761
24.7472,1739
24.7500,1708
24.7528,1692
24.7556,1673
24.7583,1665
24.7611,1649
24.7639,1633
24.7667,1621
24.7694,1597
24.7722,1582
24.7750,1577
24.7778,1581
24.7806,1599
24.7833,1609
24.7861,1604
24.7889,1608
24.7917,1609
24.7944,1616
24.7972,1615
24.8000,1605
24.8028,1607
24.8056,1606
24.8083,1594
24.8111,1587
24.8139,1598
24.8167,1606
24.8194,1615
24.8222,1624
24.8250,1620
24.8278,1627
24.8306,1625
24.8333,1636
24.8361,1641
24.8389,1638
24.8417,1637
24.8444,1635
24.8472,1633
24.8500,1644
24.8528,1652
24.8556,1657
24.8583,1656
24.8611,1647
24.8639,1645
24.8667,1646
24.8694,1654
24.8722,1645
24.8750,1646
24.8778,1643
24.8806,1661
24.8833,1659
24.8861,1663
24.8889,1659
24.8917,1654
24.8944,1649
24.8972,1651
24.9000,1653
24.9028,1647
24.9056,1641
24.9083,1642
24.9111,1641
24.9139,1638
24.9167,1642
24.9194,1636
24.9222,1644
24.9250,1639
24.9278,1645
24.9306,1638
24.9333,1627
24.9361,1614
24.9389,1614
24.9417,1616
24.9444,1619
24.9472,1606
24.9500,1599
24.9528,1599
24.9556,1604
24.9583,1604
24.9611,1610
24.9639,1615
24.9667,1613
24.9694,1611
24.9722,1613
24.9750,1614
24.9778,1614
24.9806,1622
24.9833,1626
24.9861,1611
24.9889,1604
24.9917,1600
24.9944,1599
24.9972,1599
25.0000,1603
25.0028,1597
25.0056,1593
25.0083,1586
25.0111,1598
25.0139,1593
25.0167,1597
25.0194,1597
25.0222,1595
25.0250,1590
25.0278,1587
25.0306,1585
25.0333,1583
25.0361,1584
25.0389,1590
25.0417,1594
25.0444,1602
25.0472,1597
25.0500,1598
25.0528,1601
25.0556,1606
25.0583,1605
25.0611,1607
25.0639,1603
25.0667,1597
25.0694,1600
25.0722,1589
25.0750,1593
25.0778,1612
25.0806,1626
25.0833,1651
25.0861,1687
25.0889,1721
25.0917,1747
25.0944,1768
25.0972,1767
25.1000,1769
25.1028,1765
25.1056,1777
25.1083,1802
25.1111,1819
25.1139,1850
25.1167,1875
25.1194,1912
25.1222,1937
25.1250,1951
25.1278,1964
25.1306,1972
25.1333,1978
25.1361,1966
25.1389,1949
25.1417,1911
25.1444,1862
25.1472,1782
25.1500,1705
25.1528,1646
25.1556,1601
25.1583,1571
25.1611,1570
25.1639,1562
25.1667,1548
25.1694,1533
25.1722,1522
25.1750,1510
25.1778,1505
25.1806,1501
25.1833,1509
25.1861,1503
25.1889,1499
25.1917,1484
25.1944,1482
25.1972,1485
25.2000,1492
25.2028,1489
25.2056,1493
25.2083,1489
25.2111,1500
25.2139,1506
25.2167,1518
25.2194,1534
25.2222,1559
25.2250,1570
25.2278,1574
25.2306,1548
25.2333,1496
25.2361,1472
25.2389,1483
25.2417,1590
25.2444,1780
25.2472,2063
25.2500,2429
25.2528,2666
25.2556,2715
25.2583,2655
25.2611,2541
25.2639,2422
25.2667,2247
25.2694,1864
25.2722,1420
25.2750,1108
25.2778,939
25.2806,883
25.2833,872
25.2861,857
25.2889,857
25.2917,872
25.2944,905
25.2972,952
25.3000,1023
25.3028,1074
25.3056,1162
25.3083,1261
25.3111,1371
25.3139,1466
25.3167,1557
25.3194,1623
25.3222,1650
25.3250,1663
25.3278,1663
25.3306,1672
25.3333,1698
25.3361,1717
25.3389,1741
25.3417,1753
25.3444,1745
25.3472,1750
25.3500,1759
25.3528,1776
25.3556,1792
25.3583,1806
25.3611,1806
25.3639,1803
25.3667,1790
25.3694,1798
25.3722,1805
25.3750,1822
25.3778,1833
25.3806,1847
25.3833,1857
25.3861,1851
25.3889,1870
25.3917,1883
25.3944,1902
25.3972,1910
25.4000,1916
25.4028,1901
25.4056,1880
25.4083,1884
25.4111,1894
25.4139,1917
25.4167,1950
25.4194,1971
25.4222,1977
25.4250,1977
25.4278,1978
25.4306,1989
25.4333,2002
25.4361,2012
25.4389,2022
25.4417,2039
25.4444,2047
25.4472,2043
25.4500,2050
25.4528,2076
25.4556,2076
25.4583,2092
25.4611,2086
25.4639,2076
25.4667,1840
25.4694,1834
25.4722,1809
25.4750,1791
25.4778,1767
25.4806,1742
25.4833,1713
25.4861,1702
25.4889,1692
25.4917,1674
25.4944,1662
25.4972,1644
25.5000,1627
25.5028,1613
25.5056,1600
25.5083,1590
25.5111,1584
25.5139,1593
25.5167,1599
25.5194,1599
25.5222,1597
25.5250,1588
25.5278,1585
25.5306,1571
25.5333,1566
25.5361,1575
25.5389,1584
25.5417,1586
25.5444,1586
25.5472,1594
25.5500,1592
25.5528,1601
25.5556,1607
25.5583,1611
25.5611,1601
25.5639,1605
25.5667,1612
25.5694,1618
25.5722,1625
25.5750,1616
25.5778,1613
25.5806,1612
25.5833,1615
25.5861,1617
25.5889,1632
25.5917,1632
25.5944,1648
25.5972,1651
25.6000,1655
25.6028,1654
25.6056,1649
25.6083,1646
25.6111,1645
25.6139,1659
25.6167,1662
25.6194,1661
25.6222,1666
25.6250,1658
25.6278,1647
25.6306,1636
25.6333,1633
25.6361,1635
25.6389,1642
25.6417,1642
25.6444,1648
25.6472,1643
25.6500,1639
25.6528,1639
25.6556,1634
25.6583,1641
25.6611,1629
25.6639,1635
25.6667,1624
25.6694,1616
25.6722,1611
25.6750,1605
25.6778,1611
25.6806,1607
25.6833,1611
25.6861,1604
25.6889,1606
25.6917,1610
25.6944,1613
25.6972,1601
25.7000,1608
25.7028,1613
25.7056,1596
25.7083,1593
25.7111,1597
25.7139,1613
25.7167,1609
25.7194,1609
25.7222,1602
25.7250,1596
25.7278,1593
25.7306,1590
25.7333,1593
25.7361,1593
25.7389,1588
25.7417,1585
25.7444,1578
25.7472,1577
25.7500,1576
25.7528,1570
25.7556,1578
25.7583,1589
25.7611,1590
25.7639,1595
25.7667,1595
25.7694,1593
25.7722,1585
25.7750,1594
25.7778,1583
25.7806,1570
25.7833,1574
25.7861,1579
25.7889,1588
25.7917,1587
25.7944,1590
25.7972,1589
25.8000,1587
25.8028,1584
25.8056,1581
25.8083,1587
25.8111,1585
25.8139,1596
25.8167,1598
25.8194,1605
25.8222,1599
25.8250,1614
25.8278,1612
25.8306,1606
25.8333,1615
25.8361,1616
25.8389,1615
25.8417,1616
25.8444,1611
25.8472,1609
25.8500,1618
25.8528,1622
25.8556,1622
25.8583,1626
25.8611,1631
25.8639,1618
25.8667,1615
25.8694,1622
25.8722,1625
25.8750,1628
25.8778,1626
25.8806,1625
25.8833,1616
25.8861,1614
25.8889,1614
25.8917,1618
25.8944,1629
25.8972,1623
25.9000,1620
25.9028,1620
25.9056,1627
25.9083,1648
25.9111,1676
25.9139,1711
25.9167,1746
25.9194,1773
25.9222,1787
25.9250,1808
25.9278,1815
25.9306,1807
25.9333,1817
25.9361,1814
25.9389,1828
25.9417,1849
25.9444,1883
25.9472,1907
25.9500,1936
25.9528,1961
25.9556,1972
25.9583,1953
25.9611,1952
25.9639,1922
25.9667,1884
25.9694,1828
25.9722,1769
25.9750,1707
25.9778,1644
25.9806,1618
25.9833,1599
25.9861,1586
25.9889,1584
25.9917,1574
25.9944,1567
25.9972,1552
26.0000,1543
26.0028,1536
26.0056,1531
26.0083,1522
26.0111,1513
26.0139,1513
26.0167,1516
26.0194,1515
26.0222,1515
26.0250,1498
26.0278,1502
26.0306,1510
26.0333,1514
26.0361,1521
26.0389,1536
26.0417,1549
26.0444,1566
26.0472,1592
26.0500,1605
26.0528,1603
26.0556,1575
26.0583,1519
26.0611,1494
26.0639,1516
26.0667,1598
26.0694,1783
26.0722,2053
26.0750,2418
26.0778,2657
26.0806,2708
26.0833,2638
26.0861,2535
26.0889,2436
26.0917,2266
26.0944,1934
26.0972,1520
26.1000,1217
26.1028,1055
26.1056,984
26.1083,953
26.1111,919
26.1139,906
26.1167,918
26.1194,952
26.1222,1001
26.1250,1057
26.1278,1122
26.1306,1174
26.1333,1240
26.1361,1334
26.1389,1431
26.1417,1521
26.1444,1588
26.1472,1629
26.1500,1641
26.1528,1654
26.1556,1658
26.1583,1679
26.1611,1697
26.1639,1713
26.1667,1711
26.1694,1715
26.1722,1720
26.1750,1738
26.1778,1753
26.1806,1767
26.1833,1780
26.1861,1789
26.1889,1792
26.1917,1788
26.1944,1790
26.1972,1800
26.2000,1796
26.2028,1810
26.2056,1807
26.2083,1817
26.2111,1830
26.2139,1838
26.2167,1843
26.2194,1860
26.2222,1870
26.2250,1884
26.2278,1880
26.2306,1874
26.2333,1882
26.2361,1883
26.2389,1893
26.2417,1909
26.2444,1916
26.2472,1915
26.2500,1924
26.2528,1920
26.2556,1937
26.2583,1951
26.2611,1967
26.2639,1982
26.2667,1987
26.2694,2005
26.2722,1994
26.2750,1993
26.2778,1988
26.2806,1979
26.2833,1961
26.2861,1937
26.2889,1910
26.2917,1876
26.2944,1831
26.2972,1825
26.3000,1802
26.3028,1785
26.3056,1762
26.3083,1733
26.3111,1722
26.3139,1709
26.3167,1687
26.3194,1674
26.3222,1660
26.3250,1652
26.3278,1637
26.3306,1613
26.3333,1608
26.3361,1611
26.3389,1619
26.3417,1610
26.3444,1617
26.3472,1611
26.3500,1606
26.3528,1602
26.3556,1605
26.3583,1615
26.3611,1626
26.3639,1625
26.3667,1623
26.3694,1620
26.3722,1623
26.3750,1625
26.3778,1630
26.3806,1631
26.3833,1639
26.3861,1631
26.3889,1634
26.3917,1638
26.3944,1636
26.3972,1642
26.4000,1648
26.4028,1645
26.4056,1645
26.4083,1630
26.4111,1648
26.4139,1645
26.4167,1649
26.4194,1653
26.4222,1658
26.4250,1659
26.4278,1655
26.4306,1655
26.4333,1656
26.4361,1656
